timestamp,emg1,emg2,emg3,emg4,emg5,emg6,emg7,emg8
1511884671630145,0,0,-1,-2,-4,-8,-8,0
1511884671630145,2,0,4,7,1,-4,-2,-1
1511884671631168,-2,-1,-2,-1,-1,2,5,-2
1511884671631168,-3,-1,-1,0,-1,-2,-1,-3
1511884671635179,-1,-1,-1,-6,0,1,-1,-2
1511884671635179,-1,2,-2,-2,-3,4,3,2
1511884671636158,0,0,-1,3,2,-6,-7,-2
1511884671636158,0,-4,0,3,0,1,2,3
1511884671641174,0,0,3,1,0,-1,10,-1
1511884671641174,0,1,-2,-1,1,0,2,0
1511884671649191,2,1,-4,-5,0,1,-6,0
1511884671649191,1,0,0,0,-1,1,4,2
1511884671666237,2,-1,-3,2,-1,0,-1,-2
1511884671666237,-2,-1,-1,-1,-1,0,2,-6
1511884671671266,0,-2,2,0,-1,0,3,4
1511884671671266,-7,-1,4,3,1,-3,-3,-3
1511884671682283,5,0,-6,-4,-2,-5,-3,-1
1511884671682283,-1,0,-4,-6,-2,5,-1,-1
1511884671695317,-2,-3,-2,3,0,-3,5,1
1511884671695317,-1,1,-4,-6,-4,-5,-11,-4
1511884671701330,-3,-1,1,4,1,4,-1,-2
1511884671701330,-1,0,-3,-2,-2,-7,-3,0
1511884671747456,1,2,3,2,2,5,4,-3
1511884671747456,-2,-6,-5,-3,-3,-3,2,0
1511884671748455,-2,3,0,-6,-2,0,-7,-2
1511884671748455,-1,-4,-3,-1,-1,-2,-3,-2
1511884671749461,-1,-1,3,-1,0,-1,-5,-1
1511884671749461,-1,1,2,6,5,0,2,-1
1511884671749461,-2,-1,-10,-8,-5,2,1,-2
1511884671749461,3,0,-1,-3,0,4,3,6
1511884671760491,-3,-3,-5,0,-3,-4,-2,-1
1511884671760491,9,7,2,1,-2,-1,-3,-2
1511884671768510,-2,-2,7,12,6,2,8,3
1511884671768510,0,0,-3,-3,-1,0,-2,1
1511884671776704,-2,-3,-5,-4,-2,-2,-2,-4
1511884671776704,-4,-1,-1,-4,0,-1,-3,0
1511884671790747,-2,-2,-1,-4,-1,-1,-2,-1
1511884671790747,1,2,2,2,-1,-2,0,-2
1511884671799777,0,1,5,7,5,-1,2,2
1511884671799777,-3,-4,-3,-3,0,1,-1,1
1511884671805821,0,-3,-7,-9,-5,-5,-2,-4
1511884671805821,-2,-1,-4,-4,-2,-2,0,0
1511884671820866,1,2,-4,-4,-2,-1,-1,0
1511884671820866,0,0,4,7,-1,0,0,0
1511884671827847,1,-2,1,0,-1,-2,-1,-1
1511884671827847,-1,2,3,1,-1,1,0,-1
1511884671836871,1,-2,4,2,1,-1,-1,-1
1511884671836871,-4,-1,-8,-3,-2,5,2,-1
1511884671850907,1,-3,1,0,-1,3,7,1
1511884671850907,-4,-4,-4,0,-2,-10,-9,-5
1511884671859928,7,5,2,-3,-2,1,12,9
1511884671859928,2,2,0,-2,-2,1,-5,-1
1511884671866001,-2,-1,0,-1,-1,-3,-4,-1
1511884671866001,0,-1,0,-1,0,4,2,-3
1511884671880986,-3,-5,-4,-4,-4,-10,-15,-1
1511884671880986,-1,-1,2,-2,2,7,11,2
1511884671888005,0,-1,-3,5,4,-1,-6,1
1511884671888005,-1,-1,1,-2,-2,1,0,-5
1511884671897025,-1,-2,-4,-6,-4,-2,1,-3
1511884671897025,-2,-1,1,-1,-1,-3,-1,-1
1511884671911089,2,1,2,2,0,0,-4,1
1511884671911089,-3,0,0,-2,1,-3,3,1
1511884671919289,0,1,2,1,0,2,-3,-6
1511884671919289,1,-5,-1,3,-2,-8,-12,3
1511884671925192,0,0,-3,-9,-4,-2,2,0
1511884671925192,0,-2,-1,1,1,1,1,1
1511884671940329,-2,-1,-1,-1,-1,7,17,1
1511884671940329,1,4,7,7,7,-8,-4,-2
1511884671948484,0,-1,0,1,0,-2,1,3
1511884671948484,-2,-4,-5,-7,-2,3,-1,1
1511884671957374,-1,-1,-2,-6,-1,-1,1,2
1511884671957374,0,0,2,-3,-6,1,1,-1
1511884671970724,1,0,0,3,2,1,6,0
1511884671970724,-1,3,1,0,-2,-9,-11,-4
1511884671979625,0,3,2,9,3,2,1,-4
1511884671979625,-4,-4,-1,-2,0,3,4,-2
1511884671985675,-1,-3,-6,-16,-5,-16,-23,-5
1511884671985675,0,1,4,6,1,4,6,4
1511884672000703,-2,-1,-4,-3,3,-5,-13,-6
1511884672000703,1,1,0,-7,-10,-1,0,0
1511884672007700,-1,0,2,7,4,4,8,2
1511884672007700,1,-1,-1,-4,-3,-5,-6,-2
1511884672016755,-2,0,2,4,2,0,-4,5
1511884672016755,1,-4,-3,-2,1,0,2,-1
1511884672030761,0,2,-1,-4,-3,0,-1,2
1511884672030761,-1,0,0,-3,-2,0,-4,-2
1511884672040021,1,2,9,9,3,2,8,2
1511884672040021,-1,0,-4,-2,-1,0,0,-2
1511884672046043,-1,0,1,3,-6,0,0,-4
1511884672046043,1,-2,-1,-3,2,-2,-1,-2
1511884672060097,-2,-5,-4,-9,-2,0,-3,-2
1511884672060097,0,0,2,4,1,2,1,1
1511884672068113,0,-1,2,2,0,3,2,2
1511884672068113,-1,1,2,7,-2,-5,2,1
1511884672077134,-5,-5,-6,-6,-2,1,-10,-12
1511884672077134,5,3,-8,-9,-4,-3,-4,3
1511884672091182,-3,-3,-3,-5,1,0,-2,-2
1511884672091182,-1,-3,2,2,3,5,15,2
1511884672099177,3,2,6,4,4,-4,-9,1
1511884672099177,-2,-1,2,2,-1,-5,-4,-3
1511884672105193,-4,-1,-3,0,-3,3,5,-4
1511884672105193,-3,-3,-8,-9,-3,1,-3,-4
1511884672120268,-1,1,-3,-1,-3,1,4,6
1511884672120268,-1,-1,0,0,0,-3,-3,0
1511884672128289,0,-1,2,6,5,0,4,0
1511884672128289,-3,-6,-2,5,1,-3,-8,-4
1511884672137314,1,-5,-6,-3,-2,-4,-8,5
1511884672137314,-2,1,-2,-4,-1,-2,-2,-1
1511884672150350,-3,-3,-9,-17,-7,-7,-10,-5
1511884672150350,-1,-4,-3,-3,-3,2,3,0
1511884672159371,1,-1,-3,-3,-2,5,14,4
1511884672159371,-2,-3,2,2,-5,-12,-9,1
1511884672165390,1,2,8,12,8,4,-2,1
1511884672165390,1,3,-2,-1,-1,-2,1,3
1511884672180428,-1,1,2,-1,-2,-2,4,2
1511884672180428,-2,-1,3,2,3,5,2,-2
1511884672187710,0,-2,-3,0,-4,3,6,0
1511884672187710,-1,4,-2,-11,-3,-9,-8,-2
1511884672197671,-1,1,0,-3,-1,-1,-2,-2
1511884672197671,-1,-2,1,3,0,-1,-4,-2
1511884672210777,1,1,6,6,3,2,0,0
1511884672210777,0,-2,1,7,3,3,5,2
1511884672219849,-4,-5,-8,-14,-8,0,0,-5
1511884672219849,0,3,-2,-5,0,2,2,0
1511884672225866,-1,1,0,0,-3,-5,1,2
1511884672225866,2,-1,4,6,5,-2,-3,0
1511884672240907,1,1,1,8,0,-3,1,-4
1511884672240907,-2,-3,-5,-10,-2,1,2,-1
1511884672248047,-3,-1,1,4,1,-1,-2,-1
1511884672248047,5,5,6,1,5,1,2,0
1511884672257070,0,1,-1,0,-4,1,-4,1
1511884672257070,0,-2,-3,-3,-5,-4,-9,-4
1511884672270108,1,-1,-5,-5,3,-3,-8,1
1511884672270108,-4,-2,-2,-10,-7,-1,2,3
1511884672279326,0,0,6,8,-4,-4,-5,-1
1511884672279326,0,3,-3,-1,5,3,9,-1
1511884672293395,1,-1,-3,-4,-1,3,4,2
1511884672293395,-3,-3,-7,-8,-11,-3,-9,-3
1511884672300412,2,3,-1,-1,5,4,6,1
1511884672300412,-5,-2,14,11,0,-1,1,-2
1511884672308435,-4,-7,-15,-4,-7,-3,-6,-5
1511884672308435,4,4,-1,-2,2,2,3,-1
1511884672317456,0,-3,-1,0,6,-2,3,1
1511884672317456,1,0,-1,-9,-11,-1,3,-4
1511884672330493,0,0,13,24,14,4,15,2
1511884672330493,-4,-4,-6,-6,-13,-3,-5,-1
1511884672339514,-5,-2,-4,-3,6,1,-9,-4
1511884672339514,-2,-6,-7,-23,-19,-1,2,1
1511884672353729,2,-2,4,-1,-3,-2,-5,0
1511884672353729,1,0,-2,12,5,0,5,2
1511884672360592,-3,-1,-1,-3,-12,-13,-4,-1
1511884672360592,0,1,2,10,21,19,7,4
1511884672367589,-1,1,1,-8,-11,-4,-4,-7
1511884672367589,1,-4,2,6,3,3,-2,4
1511884672376616,-2,-2,1,5,3,-4,-2,-2
1511884672376616,-4,-6,-14,-8,-1,-5,-6,-2
1511884672390653,2,5,1,-4,8,5,6,-1
1511884672390653,1,1,8,12,4,2,0,-2
1511884672399675,-2,-1,0,-15,-8,1,-3,-1
1511884672399675,0,-7,-10,4,-9,-11,-2,0
1511884672413714,-1,2,5,2,11,3,-5,-3
1511884672413714,-5,-6,-12,-16,-5,-11,-7,-3
1511884672420914,-3,-2,-5,-12,-28,-3,-1,-2
1511884672420914,-1,-2,6,12,25,28,23,1
1511884672427752,1,5,7,5,5,-12,-6,0
1511884672427752,1,-1,11,15,11,0,3,1
1511884672436812,2,7,2,8,0,-7,-6,0
1511884672436812,2,2,0,-3,-9,-22,-17,-2
1511884672450814,-3,-8,-16,-9,6,24,8,2
1511884672450814,-1,5,11,-5,-5,4,1,-3
1511884672459835,-2,-11,-7,2,18,6,-1,-1
1511884672459835,4,4,10,16,5,1,0,2
1511884672474072,0,1,0,-5,-19,-15,-4,-2
1511884672474072,1,1,-5,-10,-7,6,0,0
1511884672480890,2,-2,0,1,3,-5,3,3
1511884672480890,0,4,-1,-1,0,-1,-4,-4
1511884672488051,-2,-4,-2,-3,-11,-4,-1,-3
1511884672488051,-2,-5,-10,-7,6,4,-1,-2
1511884672497074,4,-4,1,5,15,8,-1,-5
1511884672497074,10,15,11,4,-2,-3,7,9
1511884672510110,-1,0,-17,-13,-11,-8,-3,0
1511884672510110,-3,2,3,-1,-8,-1,-4,-7
1511884672519302,6,6,13,7,5,4,5,3
1511884672519302,-5,-14,-4,0,0,-8,-6,-1
1511884672533302,0,-3,0,-2,1,0,0,1
1511884672533302,1,10,0,-2,1,-1,1,1
1511884672540321,-2,-3,-10,-4,-2,1,0,-2
1511884672540321,-5,-15,6,-1,2,5,-2,-4
1511884672548380,4,8,0,5,-8,-9,2,6
1511884672548380,0,-12,-7,0,6,4,5,6
1511884672557367,-2,5,8,-3,-4,-4,1,-1
1511884672557367,0,5,-4,-1,-3,1,0,-2
1511884672570397,-5,2,1,0,6,3,-2,-7
1511884672570397,1,-10,3,9,3,-3,-2,11
1511884672579421,-1,-5,-4,-5,-10,2,-4,-1
1511884672579421,-2,20,5,-3,2,-3,-5,0
1511884672593459,2,-9,-4,0,1,3,1,-1
1511884672593459,-3,-2,1,1,0,-2,0,-4
1511884672600477,-3,10,3,0,-12,-16,-3,3
1511884672600477,-7,-12,-5,-5,4,5,-1,-12
1511884672608502,1,-6,1,0,1,7,-17,7
1511884672608502,1,4,-2,0,-2,-7,-1,1
1511884672622633,-3,-5,-6,-2,-8,-6,-5,-4
1511884672622633,3,8,2,0,1,9,9,-13
1511884672630657,-1,-5,-1,-6,-2,-1,1,4
1511884672630657,-1,-1,-3,-2,-4,-6,-1,13
1511884672639704,-1,5,1,1,6,4,3,-13
1511884672639704,3,-2,-7,-1,3,2,6,12
1511884672653836,1,0,2,-1,-4,-8,4,1
1511884672653836,-7,-5,-3,-4,-2,1,-13,-18
1511884672660739,-1,0,2,3,1,-1,7,-4
1511884672660739,-6,-7,-7,-9,-8,-9,-3,5
1511884672667752,7,-1,-2,4,4,-2,-10,4
1511884672667752,1,5,6,0,2,2,9,-8
1511884672682835,0,-3,-2,1,4,6,21,5
1511884672682835,9,12,3,-5,-7,-3,-15,3
1511884672690816,-27,-8,4,4,3,-1,10,-22
1511884672690816,17,1,-2,1,-1,-1,-7,23
1511884672699838,-7,-5,1,0,9,12,3,-15
1511884672699838,-7,2,-1,-1,0,1,9,1
1511884672714006,17,15,3,0,-3,2,-3,16
1511884672714006,-10,-20,-11,-4,-2,3,-8,-25
1511884672721011,6,0,-4,-5,-6,-3,-12,1
1511884672721011,-3,4,3,4,-2,-10,-13,2
1511884672735936,5,4,2,0,0,2,-4,-8
1511884672735936,-27,0,0,-3,-3,-2,3,-23
1511884672750974,10,-6,-7,-4,-5,-8,1,39
1511884672750974,-13,-4,-3,2,4,7,4,-34
1511884672751977,2,3,3,-1,-4,-10,-13,-4
1511884672751977,17,6,2,1,3,-4,10,16
1511884672759170,-1,-2,-1,-1,-1,6,1,3
1511884672759170,0,-2,0,4,-1,-10,-8,-9
1511884672773236,-3,-4,0,-2,2,5,35,8
1511884672773236,8,11,4,0,0,7,-10,-12
1511884672782261,-25,-1,0,0,-1,-4,-6,-30
1511884672782261,16,-3,1,-2,-1,-3,3,28
1511884672796508,-3,-16,-12,-5,-2,4,6,-7
1511884672796508,-17,2,-2,-6,-7,-12,2,-3
1511884672803316,14,3,1,-1,1,15,8,16
1511884672803316,-6,-1,2,0,1,6,5,-6
1511884672819462,-3,5,5,1,0,-9,-5,0
1511884672819462,17,-2,-1,3,1,4,33,23
1511884672821364,-18,-7,-2,0,-1,-7,-28,-15
1511884672821364,9,-5,-8,-4,-1,-4,-18,16
1511884672833398,-5,3,1,0,-3,2,-4,-11
1511884672833398,-3,-5,-5,-3,-1,-8,-6,5
1511884672842423,3,2,0,0,0,4,25,-2
1511884672842423,2,-1,1,2,2,9,7,-1
1511884672856703,3,-4,-1,4,2,-9,-18,10
1511884672856703,-9,-1,-2,-3,-2,6,15,-17
1511884672862549,7,-1,-3,-5,-3,-7,-9,5
1511884672862549,-6,-2,-2,-2,-1,5,6,1
1511884672879715,0,5,8,9,5,3,4,-2
1511884672879715,6,-1,-2,5,-1,-4,-4,1
1511884672880716,5,4,-5,-7,-3,-3,-4,4
1511884672880716,5,12,12,4,3,-6,-1,-7
1511884672892868,-7,-8,-14,-12,-4,4,13,-2
1511884672892868,-12,-29,-10,-4,1,3,-15,-7
1511884672901961,11,12,17,14,5,-2,0,6
1511884672901961,-12,-14,-6,-8,-8,-9,-9,-3
1511884672916836,3,7,-3,-11,-4,-10,-19,-4
1511884672916836,-1,12,0,-7,-4,-2,-10,-4
1511884672922970,4,-21,0,8,2,5,1,11
1511884672922970,-6,1,1,12,12,-5,2,-7
1511884672939895,3,-5,-15,-20,-10,7,15,12
1511884672939895,-9,4,5,-6,-2,-3,-9,-17
1511884672940893,4,5,2,-4,-1,-2,5,3
1511884672940893,5,6,10,8,0,3,6,7
1511884672952928,-6,-6,10,11,-1,-8,-14,-9
1511884672952928,10,7,-9,0,16,16,25,11
1511884672961952,-7,-1,-8,12,9,-4,-3,-3
1511884672961952,-8,-30,-18,-15,-13,-7,-7,-1
1511884672975991,3,6,-7,-6,4,6,2,-4
1511884672975991,-13,-9,4,1,-14,-13,-20,4
1511884672983050,-3,11,0,-16,-6,-1,-1,-6
1511884672983050,3,0,-19,-13,3,4,2,6
1511884672999164,5,6,28,28,6,-6,-17,0
1511884672999164,3,6,8,0,11,1,-1,0
1511884673001054,-2,-6,-10,-2,-14,-2,-12,-1
1511884673001054,-13,-13,-17,-24,-22,-17,-3,-8
1511884673013259,2,7,-3,-13,0,15,7,4
1511884673013259,6,5,15,16,-2,-5,-18,2
1511884673022283,-4,-2,6,8,8,0,2,-4
1511884673022283,6,7,3,8,-3,-10,-7,8
1511884673036528,0,-4,1,11,14,8,11,5
1511884673036528,-1,-6,-5,1,-6,-17,-3,-4
1511884673043473,-1,-4,-9,-8,-4,9,-23,4
1511884673043473,2,1,-2,-15,-11,-4,-1,-3
1511884673059515,-1,-2,3,6,1,11,4,-3
1511884673059515,5,3,-4,-12,-4,18,4,4
1511884673060517,-2,7,9,2,-4,-10,12,-22
1511884673060517,5,2,-2,3,6,-3,-4,7
1511884673072549,-5,-1,-5,-4,-1,0,3,-9
1511884673072549,0,6,0,2,-5,-3,-16,-8
1511884673081573,2,-1,-2,-5,-4,-7,6,-1
1511884673081573,-5,-2,5,10,9,7,5,-1
1511884673096613,-2,-4,-11,-11,-11,-4,-3,14
1511884673096613,3,-1,6,7,6,-16,-13,-8
1511884673102629,3,1,-7,-5,-5,1,-11,32
1511884673102629,-2,-2,-1,1,-2,0,16,8
1511884673119693,-13,-2,0,0,3,-5,-5,-18
1511884673119693,3,-1,-3,-4,-4,2,0,12
1511884673120677,-1,-7,0,-3,2,2,-4,-5
1511884673120677,1,8,7,4,5,12,10,-17
1511884673132713,0,-3,-4,-5,-5,-5,4,13
1511884673132713,-5,-4,-1,-1,0,4,14,-5
1511884673141733,-3,-1,-1,1,0,-3,14,-5
1511884673141733,0,4,1,0,1,6,14,-11
1511884673155771,1,0,1,2,-1,-3,-18,-10
1511884673155771,2,-1,0,0,3,2,11,2
1511884673162789,-2,-1,2,2,-1,0,3,-2
1511884673162789,2,-2,-2,1,5,-5,-2,8
1511884673193888,5,0,1,-9,-7,2,1,0
1511884673193888,0,1,-1,3,5,0,-2,4
1511884673201893,-6,6,-2,-3,-1,-2,1,-15
1511884673201893,13,-2,0,2,0,6,-1,15
1511884673208911,11,15,2,6,2,-7,-1,8
1511884673208911,-13,-29,-5,-4,0,5,8,-9
1511884673208911,-8,-11,-9,-3,-2,0,-11,-7
1511884673208911,7,6,3,3,1,-5,-4,-13
1511884673215931,5,-2,1,1,0,6,15,10
1511884673215931,6,5,-1,-3,-5,-8,-18,-3
1511884673222952,-6,1,2,1,4,2,-1,-1
1511884673222952,0,-6,5,4,-3,2,0,6
1511884673238992,-7,-13,-12,-9,-8,-7,-2,-6
1511884673238992,1,7,-4,-1,-1,4,4,-1
1511884673240998,-2,-9,-6,-11,-3,-3,-7,-17
1511884673240998,-4,2,-1,1,0,1,7,6
1511884673253266,-13,-2,-4,-5,8,-2,-2,-12
1511884673253266,9,5,2,-2,-6,1,-2,19
1511884673262164,5,8,5,6,5,-4,4,0
1511884673262164,-3,-7,-3,-3,-6,5,-7,-12
1511884673276204,-2,-2,4,9,3,-4,-3,8
1511884673276204,-6,5,5,8,-2,-1,3,-15
1511884673283221,2,-1,-6,-7,-2,3,5,6
1511884673283221,-4,4,-3,-16,-8,-1,-5,-5
1511884673299375,-3,-3,-4,-4,-3,-5,1,1
1511884673299375,-4,2,-4,2,2,-1,-2,-2
1511884673301292,2,1,5,2,0,-4,-10,2
1511884673301292,2,0,-2,0,-3,-1,6,4
1511884673313454,-8,-2,-5,-4,-3,3,10,-7
1511884673313454,5,4,3,0,5,3,10,7
1511884673322478,0,4,7,10,4,5,15,-2
1511884673322478,-12,-5,5,7,5,-2,-15,-4
1511884673336700,-1,-3,-4,-4,-5,-6,3,-4
1511884673336700,2,-2,-11,-11,-4,5,-3,-9
1511884673343534,-4,-12,-10,-4,1,0,7,7
1511884673343534,-6,-1,1,2,1,-3,-4,-10
1511884673359668,11,6,14,9,5,7,13,4
1511884673359668,-1,2,1,2,-3,-4,-2,1
1511884673360667,4,5,-2,-8,-3,-3,-6,2
1511884673360667,-1,-5,-2,1,-5,0,2,4
1511884673372611,-1,-3,-7,-2,2,-2,-15,2
1511884673372611,1,4,7,18,6,0,-2,4
1511884673381732,0,0,-17,-29,-25,-13,-8,3
1511884673381732,-4,-1,-7,-2,8,6,5,-10
1511884673410757,3,0,1,-15,-18,4,11,2
1511884673410757,1,-2,0,-6,3,-8,-19,1
1511884673420834,-3,-1,9,25,20,0,-6,1
1511884673420834,5,4,2,1,-5,-2,-4,-2
1511884673425848,-2,-3,-3,6,6,0,-3,-3
1511884673425848,-4,-1,-3,-9,-9,-4,1,-2
1511884673426843,-1,0,-5,-18,-9,-1,-1,-4
1511884673426843,-3,-2,-6,-10,-1,-2,-5,0
1511884673432899,1,5,7,7,2,1,-5,-5
1511884673432899,0,2,10,10,2,0,7,3
1511884673441886,0,-2,5,15,11,2,3,4
1511884673441886,5,5,1,-3,-8,9,9,1
1511884673455919,-2,-4,3,8,8,-20,-33,-3
1511884673455919,-3,0,-2,-9,-9,-5,4,0
1511884673462940,-3,-9,-11,-9,-2,-5,-10,-8
1511884673462940,3,7,5,2,0,3,9,8
1511884673480007,3,-1,-2,-1,-7,-1,4,-2
1511884673480007,-10,-7,-6,-4,-9,-3,0,0
1511884673480986,1,3,6,8,5,0,-3,0
1511884673480986,-3,-2,-5,-4,-1,2,4,5
1511884673493020,-2,-3,-5,4,12,7,3,1
1511884673493020,1,-15,-16,-11,-10,-14,-7,1
1511884673502049,-1,1,9,5,-3,5,7,0
1511884673502049,-1,-3,-4,5,3,-7,-11,-4
1511884673516081,-2,-2,-6,-15,-8,3,-3,-1
1511884673516081,1,3,2,-1,7,6,3,0
1511884673523100,-1,-2,11,12,2,2,-3,-3
1511884673523100,5,5,-4,-3,-6,-11,-12,0
1511884673539143,-1,0,7,9,-2,-6,0,6
1511884673539143,-7,-2,-1,-3,4,-1,-6,-1
1511884673541149,3,0,-13,-6,5,15,8,2
1511884673541149,-2,-2,0,1,-9,-7,-13,-3
1511884673553206,0,-1,5,-1,0,-1,-1,2
1511884673553206,5,0,-3,1,-10,0,-2,3
1511884673562201,-3,-1,-2,-6,-6,-5,5,0
1511884673562201,0,-4,5,5,5,1,8,4
1511884673576377,-1,0,-5,1,0,-3,-7,-6
1511884673576377,2,3,2,-3,-5,-2,-3,-2
1511884673583395,2,-1,-4,-5,1,-1,-2,-1
1511884673583395,-4,-2,-7,-4,1,-5,-8,-5
1511884673598436,0,1,1,0,7,21,17,6
1511884673598436,6,2,-4,4,5,-7,-9,-2
1511884673605454,-5,-2,-3,3,-1,2,-2,-6
1511884673605454,-4,0,3,0,0,4,-1,0
1511884673613477,2,4,-1,-2,-2,4,9,2
1511884673613477,-2,-4,-3,-3,2,0,3,6
1511884673622501,-1,-3,0,3,-5,-4,-2,-3
1511884673622501,1,-6,-7,-6,6,-9,-7,-4
1511884673636663,-1,1,0,-3,-5,-5,2,6
1511884673636663,-9,-7,-2,-6,-3,0,1,-6
1511884673642693,1,1,1,-3,-6,-11,-10,1
1511884673642693,-5,-1,-1,1,2,5,10,0
1511884673658859,1,3,-5,-7,-3,-7,-7,-9
1511884673658859,-3,-1,2,2,3,6,2,-10
1511884673665755,4,-3,2,4,2,3,18,15
1511884673665755,-2,0,3,0,-3,-2,-6,-9
1511884673672806,-1,-8,-3,1,-1,-3,-3,-9
1511884673672806,-7,-9,-18,-11,-8,-9,-6,6
1511884673681826,9,11,6,4,3,8,-1,2
1511884673681826,1,-4,-1,0,-10,-4,-2,1
1511884673695991,-3,-2,-4,-9,6,1,1,-3
1511884673695991,1,5,7,9,4,2,-1,1
1511884673703015,-3,-1,-2,-4,2,1,3,-7
1511884673703015,-2,-1,-6,-10,-8,-7,-5,0
1511884673719054,0,0,4,6,3,12,1,0
1511884673719054,5,2,3,4,4,1,2,3
1511884673725947,-4,-3,-5,-5,0,-6,-6,-3
1511884673725947,2,6,9,8,4,3,2,-4
1511884673741986,-1,-2,2,5,-6,-8,-9,-1
1511884673741986,-4,5,1,3,7,9,6,-12
1511884673743996,-1,2,0,-7,-2,3,3,13
1511884673743996,6,5,2,1,2,-9,-5,-4
1511884673756209,-7,-17,-7,0,-1,-1,-4,-1
1511884673756209,1,-2,7,6,4,2,3,4
1511884673763148,1,3,8,8,-6,-4,-2,-4
1511884673763148,-1,-1,-2,3,8,-1,-3,0
1511884673787237,0,5,-3,-1,-6,-2,-1,1
1511884673787237,1,-2,-7,-25,-14,3,5,2
1511884673788233,-2,-7,-11,-8,-4,-7,-6,-1
1511884673788233,-1,0,7,4,0,5,-4,1
1511884673802331,0,1,1,6,6,3,8,-3
1511884673802331,0,-1,-4,3,6,6,4,2
1511884673803275,-1,2,11,7,-1,-4,-6,-7
1511884673803275,-4,-3,-11,-11,3,5,9,0
1511884673816272,-3,-1,0,-6,-8,-7,-9,2
1511884673816272,5,5,5,5,1,9,2,-4
1511884673823205,0,-5,-6,1,2,-2,-7,5
1511884673823205,-2,1,10,15,2,2,-1,-5
1511884673838245,1,0,-6,-12,-1,-4,2,0
1511884673838245,-2,-4,-3,-6,-3,-3,-4,-8
1511884673845401,-2,-1,2,4,1,2,-2,1
1511884673845401,0,-5,-8,-10,-3,1,5,12
1511884673861626,3,5,7,8,3,-3,1,0
1511884673861626,-2,1,4,2,0,-7,-8,3
1511884673863629,-4,-7,-9,-8,-6,1,7,-6
1511884673863629,-3,-4,-7,-10,-8,-14,-9,8
1511884673876753,0,1,1,-12,-11,1,2,-2
1511884673876753,-5,1,2,7,7,3,8,1
1511884673882682,1,1,-1,1,2,-3,-2,0
1511884673882682,1,-4,4,13,1,1,2,-4
1511884673898724,8,0,-1,1,-1,1,-7,0
1511884673898724,-10,0,-9,-13,-6,-5,-7,-2
1511884673905740,-4,-5,-5,-6,-1,-1,-2,-3
1511884673905740,5,8,3,1,0,5,0,0
1511884673921905,-3,-10,-4,3,5,-4,-1,-1
1511884673921905,3,-1,1,3,-2,0,4,2
1511884673923915,1,6,2,3,-1,-1,1,2
1511884673923915,-4,-2,3,10,4,-13,-14,-9
1511884673935981,-1,-2,-10,-30,-15,8,6,3
1511884673935981,-5,-6,-9,-2,0,-10,-8,0
1511884673943963,0,3,1,-5,-2,-1,-7,-2
1511884673943963,1,0,7,5,3,10,15,-6
1511884673959128,-4,-1,10,22,9,-5,-18,-9
1511884673959128,4,1,-5,-11,-4,-5,4,-1
1511884673966054,-2,0,5,2,2,4,17,7
1511884673966054,-1,-6,-11,-5,0,-10,-9,-4
1511884673982228,-1,3,1,2,0,6,9,-4
1511884673982228,2,3,11,5,-1,-1,9,4
1511884673983239,-1,-1,4,7,2,1,-10,-6
1511884673983239,3,3,-2,-10,1,7,0,3
1511884673996106,-3,2,-1,-2,0,-1,3,-2
1511884673996106,1,2,11,18,4,-3,-7,0
1511884674004127,-5,-4,-2,4,-2,-1,1,-4
1511884674004127,-1,-6,-32,-24,-6,0,4,-2
1511884674019211,0,1,-3,-6,0,-9,-8,-2
1511884674019211,1,-1,5,1,-1,6,2,0
1511884674025185,3,1,1,2,-2,-3,4,-5
1511884674025185,-2,-1,1,1,1,1,-8,1
1511884674042229,0,2,4,12,16,9,15,1
1511884674042229,2,-3,-9,-9,-7,-1,-5,3
1511884674043228,-2,-4,-6,-5,-2,-1,0,-3
1511884674043228,-3,-2,6,-1,-5,-2,3,0
1511884674055453,2,0,-10,-6,-2,-4,-1,3
1511884674055453,0,3,6,9,2,-5,-7,-6
1511884674064284,2,-1,-7,-8,-3,2,-1,12
1511884674064284,0,2,3,-2,-3,-3,-7,0
1511884674078325,-4,-3,1,5,-4,-5,4,-3
1511884674078325,4,3,3,7,6,3,2,7
1511884674085340,-5,-5,-18,-15,-6,-4,-3,-8
1511884674085340,2,1,5,2,3,6,8,9
1511884674101382,0,-1,3,-2,-6,-2,-6,-2
1511884674101382,1,1,2,-1,-1,-1,-6,-7
1511884674103388,3,1,4,3,3,-4,0,2
1511884674103388,-3,-4,3,4,-1,0,-4,-2
1511884674115423,-1,0,-12,-13,-4,4,-1,0
1511884674115423,-1,-1,0,-7,-1,1,3,3
1511884674124453,2,0,6,7,2,-2,-5,-4
1511884674124453,-2,-2,-2,4,-3,1,-1,-8
1511884674138510,1,-1,-1,0,-4,-8,0,9
1511884674138510,-1,-2,-9,-4,1,8,-2,-1
1511884674145503,2,0,2,6,4,2,9,3
1511884674145503,-1,1,3,2,-2,-3,1,-2
1511884674162548,-2,0,3,5,2,2,-1,-4
1511884674162548,3,-1,-5,-4,-1,2,2,1
1511884674163549,-5,-4,2,-1,0,-8,-12,-2
1511884674163549,0,-5,-8,-11,-6,12,5,4
1511884674176582,1,1,9,11,9,-6,-9,0
1511884674176582,-3,-1,-6,-8,-8,-1,3,-6
1511884674182797,-3,1,2,-3,-4,2,1,-1
1511884674182797,-3,0,0,-3,1,-4,-2,-4
1511884674198644,-1,-1,2,1,-8,-5,-2,0
1511884674198644,0,-2,2,8,14,6,3,-1
1511884674205660,0,0,-2,-5,-7,-3,4,-2
1511884674205660,0,1,1,-5,-2,6,-8,-4
1511884674221743,1,-2,-2,0,0,3,6,-1
1511884674221743,-3,-1,-2,-3,-4,-4,-7,-3
1511884674223715,0,0,0,2,2,2,0,1
1511884674223715,0,2,1,2,1,-3,3,3
1511884674235764,1,1,2,1,0,5,1,2
1511884674235764,1,-1,3,1,-3,-8,0,-1
1511884674244765,0,-2,-3,1,1,2,2,1
1511884674244765,-1,0,-2,3,1,-5,-5,-2
1511884674258820,-4,0,-6,-6,-2,1,-5,-7
1511884674258820,0,-4,2,-2,-3,-4,-6,1
1511884674265941,0,0,-8,-5,1,1,-8,-5
1511884674265941,1,-2,-5,-4,-1,4,13,8
1511884674282007,-3,-1,-4,-3,0,-2,0,-1
1511884674282007,0,0,-1,0,-4,-1,-2,0
1511884674283900,-1,0,5,2,2,-1,-3,-3
1511884674283900,-3,-6,-5,-2,-3,-1,-1,0
1511884674295970,0,1,-2,-2,-1,-5,-7,-1
1511884674295970,0,1,-2,-1,1,10,9,-1
1511884674304960,1,-2,4,3,-3,-6,-5,1
1511884674304960,0,3,0,-1,4,-2,-4,-2
1511884674318996,0,-2,0,-3,-2,-3,3,-2
1511884674318996,-1,-1,-3,-2,-2,4,3,0
1511884674326014,-1,0,3,5,5,2,0,-1
1511884674326014,-1,0,3,-6,-7,-8,-3,-3
1511884674342057,-2,-3,-8,-8,-1,-2,1,1
1511884674342057,-2,1,2,0,-2,-3,-5,-2
1511884674343061,0,-1,0,2,2,2,3,0
1511884674343061,2,0,8,6,1,1,6,0
1511884674355088,-1,-2,8,5,1,-2,-2,-5
1511884674355088,0,-2,-7,-2,-1,-1,-3,0
1511884674364251,-2,4,4,-1,-3,-6,7,8
1511884674364251,-2,-2,-3,0,-4,-2,0,1
1511884674379254,3,1,2,-1,-2,1,-3,1
1511884674379254,2,2,6,11,5,1,6,1
1511884674385283,-2,-3,-9,-7,-3,3,0,-3
1511884674385283,0,-3,-7,-5,-2,-5,-6,-1
1511884674402332,0,-2,-4,-1,-1,-2,0,-1
1511884674402332,-1,-3,3,-1,1,-5,6,-1
1511884674403295,0,-1,-1,0,-4,1,-4,-1
1511884674403295,-2,-1,2,3,2,-3,-1,-1
1511884674415368,-1,-1,-4,-1,0,3,-1,0
1511884674415368,-2,-1,-3,-3,-4,-3,-1,-2
1511884674424351,-3,-6,-3,-6,0,1,-2,-3
1511884674424351,1,0,3,4,4,3,3,0
1511884674438437,1,1,4,6,-2,-8,1,0
1511884674438437,1,-3,-6,-4,-1,9,2,1
1511884674445409,-2,-2,-5,-4,-4,-7,-2,-3
1511884674445409,3,0,1,6,1,0,3,2
1511884674461453,-2,1,-1,-2,4,5,-1,-1
1511884674461453,-2,-4,-3,-7,-3,-7,-9,-3
1511884674463454,1,0,0,-5,-6,12,10,-4
1511884674463454,1,-2,-4,1,0,-5,-10,4
1511884674475490,-1,-2,5,8,2,0,2,-1
1511884674475490,-2,2,-1,1,1,-4,5,-1
1511884674484573,-1,-3,-6,-2,-1,5,3,-3
1511884674484573,1,-1,2,0,-2,2,-1,-1
1511884674498609,-1,-1,-4,-4,-4,1,-8,-1
1511884674498609,-4,1,1,-1,1,0,5,-2
1511884674505805,1,4,1,-2,-2,-11,-14,-1
1511884674505805,-1,1,-1,-4,1,2,3,-5
1511884674521670,1,0,1,3,0,2,0,0
1511884674521670,1,-1,-2,-1,0,8,5,2
1511884674527686,-4,1,3,-2,-2,-7,-5,-1
1511884674527686,-2,1,1,2,-1,5,7,0
1511884674535708,1,-3,-1,4,2,-1,3,3
1511884674535708,0,1,4,1,-5,-2,-9,-4
1511884674544731,0,-1,-4,-3,2,0,6,1
1511884674544731,-2,-3,0,-1,-2,2,-5,-6
1511884674558768,-1,0,-2,-3,-3,-1,0,-2
1511884674558768,2,-1,5,1,-4,-8,-4,-3
1511884674565788,2,1,1,9,3,-4,10,3
1511884674565788,-3,2,2,-5,0,-1,-13,-2
1511884674580854,-3,-3,-7,-5,-3,-2,-4,-2
1511884674580854,-1,-3,-8,-7,-6,-1,-5,-3
1511884674587847,1,5,-1,-4,-2,3,0,-2
1511884674587847,0,-1,1,5,1,-5,-7,-2
1511884674595868,-1,0,4,-2,-2,0,11,2
1511884674595868,-1,-3,-2,-1,3,-9,-5,2
1511884674611911,0,-2,3,4,5,15,5,-4
1511884674611911,0,3,-2,1,-1,-7,-2,4
1511884674618932,-1,-2,-3,-1,-3,-2,-5,0
1511884674618932,1,0,-7,-4,-1,1,3,0
1511884674625951,-2,-4,0,0,-1,-5,-6,-2
1511884674625951,-2,-3,0,-2,-2,6,12,1
1511884674641113,1,1,2,1,2,-9,-15,-3
1511884674641113,-1,3,2,2,2,0,5,0
1511884674648279,-2,0,4,7,0,1,2,-3
1511884674648279,0,-1,-8,-6,-2,-1,4,0
1511884674655265,0,1,1,-6,0,-2,2,11
1511884674655265,-2,-4,-8,-6,-3,0,-2,3
1511884674664285,1,1,2,0,-1,-11,-8,1
1511884674664285,0,-1,4,6,5,9,9,3
1511884674678326,-2,-4,-6,-5,-5,6,4,-7
1511884674678326,-2,1,-2,0,-1,-13,-15,-3
1511884674685546,-5,-7,-6,-3,-2,1,5,0
1511884674685546,-1,-3,3,-2,-6,-9,-4,-3
1511884674701414,0,-1,2,0,-2,0,-6,-4
1511884674701414,-2,-1,2,6,1,6,11,4
1511884674708436,-1,-5,-4,-2,1,-6,-13,0
1511884674708436,-1,2,0,-4,1,3,7,-2
1511884674724515,-3,0,3,3,3,-6,-6,-1
1511884674724515,1,-6,0,-1,-3,0,0,0
1511884674725518,0,3,-2,-1,1,0,0,1
1511884674725518,-4,-3,-2,-4,-4,-5,-8,-5
1511884674738734,2,1,-3,1,2,5,5,1
1511884674738734,-2,3,0,-1,0,1,1,-2
1511884674745570,2,0,2,1,3,3,0,-2
1511884674745570,-1,-2,-10,-4,-3,-8,-11,-3
1511884674760737,-2,2,2,-3,-3,4,8,2
1511884674760737,1,-2,3,4,0,-2,-6,-2
1511884674767756,2,-2,-4,-8,-7,-6,-9,0
1511884674767756,-1,0,1,0,-1,0,2,-1
1511884674784803,0,-2,2,0,3,0,3,-2
1511884674784803,-4,-2,-8,-5,-4,1,-3,-2
1511884674785806,-1,1,3,3,2,0,6,2
1511884674785806,2,0,1,0,0,3,2,1
1511884674798961,-1,-2,1,0,0,0,-6,0
1511884674798961,1,1,0,-2,1,-5,-5,-2
1511884674805911,0,-1,-1,-2,2,2,0,1
1511884674805911,-2,0,-4,-1,-1,-1,-5,-1
1511884674822032,-1,-1,-1,2,0,4,8,3
1511884674822032,1,-1,1,-4,-1,4,-2,-2
1511884674827973,-1,0,-3,0,0,2,0,-1
1511884674827973,1,-1,3,1,-1,-5,-4,-2
1511884674844015,1,1,-1,1,1,-2,-3,-4
1511884674844015,-2,-4,-6,-6,3,-8,11,-3
1511884674845967,2,1,1,0,3,9,-7,4
1511884674845967,-1,-1,4,-5,-12,-6,2,-2
1511884674859001,2,6,-2,-1,6,2,9,0
1511884674859001,0,2,7,8,-2,3,2,0
1511884674865047,-6,-2,-9,-7,-6,-7,-7,-2
1511884674865047,-1,-1,-1,-2,2,0,-2,0
1511884674881093,0,-1,0,0,-5,-7,-4,0
1511884674881093,0,-1,-2,-4,1,6,4,4
1511884674888109,-1,1,5,4,4,0,6,1
1511884674888109,-3,2,5,7,2,-7,-9,-2
1511884674904346,-3,-6,-8,-9,-8,-3,-2,-6
1511884674904346,-1,-1,-2,-3,1,-7,-12,1
1511884674906159,-2,-2,1,-1,-5,-2,1,-5
1511884674906159,-1,0,-2,0,2,0,1,2
1511884674919195,0,-1,-1,3,0,1,-4,1
1511884674919195,1,-1,2,3,0,3,6,0
1511884674925210,1,1,0,3,-3,-1,-3,-1
1511884674925210,1,-1,0,0,2,2,7,3
1511884674941279,-2,-4,-8,-8,-5,-8,-7,-1
1511884674941279,-2,-1,1,3,5,8,1,-1
1511884674948272,1,-2,-2,-4,-4,-7,0,3
1511884674948272,1,4,5,5,7,18,10,-2
1511884674964314,0,-5,-2,-1,-4,-6,-6,-2
1511884674964314,-2,-6,-10,-6,-6,-14,-11,-2
1511884674966320,-2,4,-5,-13,-1,10,-1,-2
1511884674966320,-1,-2,-6,-4,-3,-1,2,3
1511884674978470,-1,2,9,5,4,3,4,-1
1511884674978470,2,-1,2,4,-2,1,-11,0
1511884674985488,-2,-5,1,3,1,1,3,-2
1511884674985488,0,-1,-3,-5,-2,-4,-6,-2
1511884675001723,-1,1,1,1,2,2,-1,1
1511884675001723,-2,1,3,5,3,1,1,-5
1511884675007562,0,1,1,-2,-4,0,6,2
1511884675007562,-1,-4,-4,-3,0,-5,-2,0
1511884675024621,-2,-1,2,2,2,-1,-5,3
1511884675024621,-2,-1,-1,-3,1,10,10,1
1511884675025690,2,2,-1,1,0,-3,-3,0
1511884675025690,3,-2,-1,0,1,-6,-1,0
1511884675038627,-1,1,1,4,-1,1,3,3
1511884675038627,-3,1,-4,-10,-5,5,7,2
1511884675045650,1,-1,1,1,-4,-5,2,3
1511884675045650,-1,-4,-7,-3,3,2,-13,-2
1511884675061741,3,3,-5,-2,-2,12,18,6
1511884675061741,-2,0,1,0,-5,-9,-8,-6
1511884675067708,-1,-5,-2,3,6,-7,-6,-5
1511884675067708,-4,0,0,-4,-6,1,2,-4
1511884675084933,1,0,0,1,2,-5,-9,-3
1511884675084933,1,0,0,2,1,-2,1,4
1511884675085764,0,2,0,3,-4,-2,1,0
1511884675085764,-1,0,2,0,1,1,2,0
1511884675098963,-4,-1,-5,-8,-5,-4,-4,-3
1511884675098963,3,1,0,1,2,-2,3,2
1511884675105927,1,0,6,4,-1,0,0,0
1511884675105927,-1,1,2,6,5,-1,2,3
1511884675128965,-1,-3,-6,-6,-4,-1,-5,-5
1511884675128965,0,-4,-1,1,3,-1,2,1
1511884675130952,-1,-1,-5,-5,-5,-5,-1,3
1511884675130952,2,0,-2,-6,-3,3,6,2
1511884675143990,-4,-2,3,2,0,-12,-8,-4
1511884675143990,2,1,2,3,-1,12,-8,4
1511884675145991,1,-2,0,-1,-1,-6,-8,-4
1511884675145991,-3,-5,-5,-3,-7,-6,2,-2
1511884675159030,1,2,2,1,3,-2,-12,0
1511884675159030,-1,1,1,-2,1,6,3,-1
1511884675166045,-2,1,8,6,5,-5,-5,0
1511884675166045,0,-3,-2,-1,-5,2,2,-3
1511884675181201,-1,-1,3,7,1,-3,-3,-1
1511884675181201,-3,-2,-9,-14,-8,-3,-2,-1
1511884675188272,2,-3,-5,-13,-7,2,8,-2
1511884675188272,-3,2,0,0,7,-2,-2,-2
1511884675204265,0,0,8,16,3,0,0,3
1511884675204265,-1,3,2,-3,-1,-3,3,-2
1511884675206154,0,-3,-6,-5,-5,0,4,3
1511884675206154,-1,0,-1,3,-4,1,0,-2
1511884675218215,0,-3,1,-1,0,-2,1,2
1511884675218215,-2,-3,0,-1,-1,-3,0,-5
1511884675227234,-2,0,-7,-7,0,0,-5,-5
1511884675227234,-1,-4,-5,-2,0,2,2,1
1511884675241293,2,3,0,-2,-1,-5,-2,-2
1511884675241293,-1,-1,-1,-1,2,-5,-1,-2
1511884675248304,-1,2,3,7,3,5,3,5
1511884675248304,0,0,4,2,-1,0,-1,-4
1511884675264306,0,-1,-1,-3,-2,6,10,2
1511884675264306,-1,-3,-3,-2,-2,-8,-5,-1
1511884675266312,-3,-2,-4,3,3,-3,-4,-4
1511884675266312,1,3,-3,-6,-3,0,-3,-1
1511884675278545,-3,-2,-8,0,6,-5,-4,-2
1511884675278545,3,2,6,4,2,3,1,0
1511884675286750,-6,-3,0,1,-3,3,-3,-7
1511884675286750,2,1,5,5,-1,-1,1,3
1511884675301803,-2,0,-7,-10,-3,0,1,-1
1511884675301803,2,3,7,8,4,0,6,-3
1511884675307883,3,1,-2,6,2,-1,-8,12
1511884675307883,-3,-3,-6,-8,-8,-4,-6,-4
1511884675324749,0,3,3,-4,-1,5,8,1
1511884675324749,-2,-3,-1,3,-1,-1,0,2
1511884675325751,2,-3,4,2,1,-1,6,-3
1511884675325751,-1,0,-1,-3,-6,-2,-5,-3
1511884675337784,-2,-2,0,-5,0,-2,3,-3
1511884675337784,-2,-1,5,8,-5,-8,-7,3
1511884675346807,0,2,-9,-7,-3,-6,-3,-3
1511884675346807,-1,-2,-8,-10,1,5,3,3
1511884675360844,1,0,5,-1,-10,-5,-14,-5
1511884675360844,1,-1,-6,-1,8,8,7,2
1511884675367884,-1,-1,10,8,5,4,2,-3
1511884675367884,0,1,3,10,3,-1,7,1
1511884675383915,-3,-1,-4,-8,-7,-2,-9,-3
1511884675383915,0,0,-11,-2,-2,-2,1,6
1511884675385910,1,0,2,-1,4,5,6,3
1511884675385910,-2,-1,4,5,5,-6,-9,-4
1511884675397943,0,-2,-1,6,4,18,21,2
1511884675397943,-1,-1,9,5,-6,-16,-20,-6
1511884675406966,-4,-6,-16,-16,-15,3,8,-5
1511884675406966,2,0,-8,-3,3,-7,-12,-1
1511884675421198,4,4,7,8,0,-3,7,7
1511884675421198,2,-2,-5,-3,5,5,3,-1
1511884675428377,-4,-1,-3,-3,-5,-3,-10,-5
1511884675428377,-1,-2,-2,-2,3,-7,1,1
1511884675444290,-1,-3,-4,0,4,4,10,2
1511884675444290,0,-3,-6,-15,-20,-8,-9,-3
1511884675446292,0,-3,3,3,2,-5,-1,0
1511884675446292,0,0,4,8,8,13,1,-3
1511884675458489,0,0,1,12,11,-3,-1,3
1511884675458489,-3,0,3,-1,-4,-1,-1,-2
1511884675466634,-3,-1,-4,2,7,0,1,-4
1511884675466634,-1,0,-3,-14,-7,0,-1,-2
1511884675481756,-3,-3,-1,-3,-6,1,-3,-2
1511884675481756,0,-4,-1,-10,-7,6,0,0
1511884675487796,0,-1,-4,3,1,-2,-2,1
1511884675487796,1,1,2,2,0,3,5,4
1511884675503738,-1,6,11,10,-3,-4,-4,-1
1511884675503738,-3,-1,-4,-4,8,-5,0,-3
1511884675510752,2,2,-6,-17,-4,-5,-3,2
1511884675510752,-3,-3,-1,-4,-6,-5,-2,-4
1511884675517951,3,1,-2,-8,-2,2,3,4
1511884675517951,-2,-4,5,14,9,-3,-1,3
1511884675526935,1,2,9,11,3,3,6,2
1511884675526935,1,4,8,1,-5,-6,-10,1
1511884675540976,-3,-5,-7,-8,-4,-9,-9,-8
1511884675540976,-1,1,-10,-4,-1,5,5,-1
1511884675548096,1,-3,-1,-6,-5,2,2,-1
1511884675548096,-5,-2,4,4,-2,-3,-1,1
1511884675564078,-2,4,2,3,1,6,4,-2
1511884675564078,3,0,2,4,1,-3,-1,0
1511884675570095,-1,-3,0,0,2,0,0,-2
1511884675570095,1,-2,-3,4,4,1,5,1
1511884675578075,-1,-4,-6,-8,-4,-3,-3,-2
1511884675578075,0,0,-5,-8,-2,0,1,-1
1511884675587365,1,2,7,3,-2,1,0,-4
1511884675587365,2,-2,-4,1,0,-1,2,12
1511884675601377,1,2,0,-2,0,-1,-5,-4
1511884675601377,-3,-2,5,3,-1,4,5,2
1511884675608508,-3,0,-5,-6,-1,-5,-6,-6
1511884675608508,-3,2,4,1,0,11,7,0
1511884675623687,-4,-5,-2,-7,-4,-3,-7,-1
1511884675623687,5,1,4,7,5,-8,-9,5
1511884675630705,2,4,4,3,-2,3,-1,-1
1511884675630705,-2,-3,-2,-1,-2,-2,-2,-3
1511884675646751,0,-4,-5,-2,-4,-6,-5,-5
1511884675646751,0,-4,-3,-5,-3,2,5,5
1511884675648756,1,3,6,4,8,-3,-1,1
1511884675648756,1,-1,-2,-2,-3,-4,-9,-4
1511884675661843,-2,-4,-4,1,1,-2,-1,2
1511884675661843,-1,-1,2,-1,-3,7,2,0
1511884675667812,-3,-3,-5,-2,-4,-2,1,0
1511884675667812,-2,-6,-2,-1,-1,-3,0,-3
1511884675683852,0,3,3,-3,-2,0,0,3
1511884675683852,-2,1,-1,0,-3,0,0,-5
1511884675690872,3,-1,3,2,4,1,-1,5
1511884675690872,-4,0,-1,-3,-2,-1,0,-8
1511884675707213,1,-2,1,1,-3,0,-6,-2
1511884675707213,1,3,7,1,-1,-8,-1,-1
1511884675708105,-1,-4,-6,-3,0,6,0,0
1511884675708105,2,1,-2,-2,-3,-5,4,9
1511884675721249,0,-1,-4,-6,1,-3,6,-2
1511884675721249,-1,1,3,6,7,2,-7,-1
1511884675728153,-3,0,2,0,-5,-4,4,-2
1511884675728153,0,0,-3,-4,-3,2,-1,-1
1511884675744212,-1,1,-4,1,2,8,2,3
1511884675744212,0,-1,0,-2,-4,-5,-4,0
1511884675750231,1,2,5,6,8,1,1,-1
1511884675750231,-3,-3,-6,-3,0,0,-3,-1
1511884675766292,-2,-2,0,-4,-9,-15,-1,0
1511884675766292,1,0,-4,-3,2,3,2,-1
1511884675767257,-4,-1,-2,-1,-5,-1,-4,-5
1511884675767257,1,-1,2,-1,-6,-1,15,7
1511884675788352,1,-5,-5,0,13,-1,-8,3
1511884675788352,-1,-4,-2,-1,-2,1,1,-4
1511884675789315,-1,2,-5,-5,-13,-11,-4,2
1511884675789315,2,0,0,-3,3,5,1,-4
1511884675804356,1,-1,1,0,-7,5,2,-2
1511884675804356,-1,2,-3,2,9,1,2,2
1511884675810409,-2,-2,-4,-2,-6,-5,-2,3
1511884675810409,0,-1,-1,2,-1,-8,-6,-5
1511884675826480,0,0,0,-5,-4,4,-3,-3
1511884675826480,-3,-1,-1,1,-2,-4,-4,0
1511884675827482,0,-1,7,2,5,2,3,5
1511884675827482,-3,1,-4,2,-2,-2,-6,-6
1511884675848730,-3,-4,-6,-6,0,0,1,-2
1511884675848730,-1,-2,-11,-13,-5,0,4,-4
1511884675849539,0,-2,2,-2,-1,-5,-5,2
1511884675849539,3,0,8,4,3,3,0,-4
1511884675864578,0,2,1,5,2,1,1,0
1511884675864578,-3,-1,1,2,-1,1,3,-6
1511884675870754,-2,-2,-2,1,2,3,-5,-1
1511884675870754,-2,-2,-2,-2,-3,-3,-10,-8
1511884675885803,0,-3,-1,2,-1,-2,3,6
1511884675885803,1,-1,1,-3,-5,-5,2,5
1511884675886768,-3,1,-3,-7,-2,4,-15,-11
1511884675886768,0,0,0,1,-1,-6,3,10
1511884675909053,-1,1,-5,-3,-2,0,1,-1
1511884675909053,-1,-2,-2,-1,-2,-3,3,1
1511884675909053,-3,0,0,-3,-5,-3,6,-2
1511884675909053,-2,-3,-3,-2,-1,-8,-2,-2
1511884675924227,-8,-4,-2,-5,0,3,-10,-6
1511884675924227,10,0,-2,1,-2,-5,-1,15
1511884675930247,4,1,1,3,5,3,14,-7
1511884675930247,-12,-1,-3,-5,-3,-3,6,14
1511884675946288,-4,4,1,1,-5,-6,-9,-37
1511884675946288,9,-5,-1,0,2,5,0,1
1511884675947292,8,-1,-3,-2,-2,-6,1,12
1511884675947292,4,-2,1,2,2,1,0,-1
1511884675962329,-13,1,0,0,-1,-3,-2,-7
1511884675962329,6,3,0,-4,-5,-3,-10,-14
1511884675968370,-20,-2,0,3,0,1,2,-5
1511884675968370,4,1,0,2,5,4,3,-17
1511884675984388,-6,-1,-1,-1,0,4,-10,5
1511884675984388,-1,-1,3,1,-2,-9,-18,-16
1511884675990569,3,-3,0,0,2,2,-1,12
1511884675990569,4,3,0,1,0,2,-3,-2
1511884676006607,6,-1,2,2,0,0,10,10
1511884676006607,-28,-1,-3,-1,-5,-1,-4,-14
1511884676006607,13,-2,-4,-5,2,4,0,5
1511884676006607,20,3,-1,2,-1,-1,-2,45
1511884676028669,43,2,9,11,1,-1,6,16
1511884676028669,-31,-4,-7,-10,1,3,3,-15
1511884676029668,-11,-4,-11,-11,-8,-3,0,-8
1511884676029668,-22,2,3,1,-1,-1,-6,-22
1511884676044746,14,-4,-1,-2,-4,-2,-7,17
1511884676044746,9,2,-7,-11,-3,0,5,11
1511884676050781,-2,2,-1,-2,-1,0,-3,4
1511884676050781,-5,-10,4,6,1,3,1,2
1511884676066902,9,4,10,13,6,2,3,13
1511884676066902,8,8,9,11,3,1,3,3
1511884676066902,-4,-5,-11,-4,-2,-5,-2,-7
1511884676066902,2,4,-5,-2,-2,1,-4,-1
1511884676088999,-7,-7,-10,-6,-4,-5,-2,-10
1511884676088999,2,-7,-7,-7,-3,-2,1,3
1511884676089961,9,12,7,2,5,4,1,-2
1511884676089961,-1,-3,-3,-3,1,1,0,-1
1511884676105009,-14,7,1,-2,-2,-4,-1,-7
1511884676105009,-5,-9,0,3,0,-1,2,1
1511884676111018,-1,0,9,8,3,3,1,-3
1511884676111018,-2,-1,1,1,3,1,4,-4
1511884676126058,-3,-5,-6,-8,-1,4,-2,9
1511884676126058,-3,-6,-2,-3,-4,-4,-1,6
1511884676127060,1,0,-10,-5,-8,-3,1,3
1511884676127060,3,-1,-4,-14,-4,1,4,-3
1511884676149153,-4,-1,0,12,5,-6,-1,-11
1511884676149153,-5,-3,-4,-11,-8,-2,-9,-5
1511884676149153,3,1,4,8,3,0,8,3
1511884676149153,-4,6,9,15,1,-5,-4,-9
1511884676164161,-9,7,9,1,3,6,3,-12
1511884676164161,5,-5,-14,-15,-6,-5,2,11
1511884676170301,-16,-17,-5,-14,-1,7,-2,-11
1511884676170301,-3,-6,-31,-26,-9,-12,-8,-9
1511884676186259,-2,1,-4,-6,18,9,2,1
1511884676186259,1,4,18,28,6,3,5,4
1511884676187220,2,2,18,16,0,7,-3,-3
1511884676187220,-3,-1,4,0,1,4,-1,-5
1511884676209324,-2,-8,-9,-3,-8,-11,-6,6
1511884676209324,5,6,-3,-8,-10,1,0,0
1511884676209324,0,-2,1,5,-7,7,-1,-2
1511884676209324,-2,-1,-4,-9,8,-10,-5,-4
1511884676224323,2,2,-3,-16,-7,7,8,7
1511884676224323,2,3,2,9,7,7,9,-3
1511884676230450,3,3,4,5,-4,-12,-7,0
1511884676230450,-6,-1,15,17,-7,-7,-8,-5
1511884676246578,-2,-4,-11,-15,3,15,21,1
1511884676246578,2,1,-9,-1,7,-4,-4,4
1511884676247554,0,-4,5,0,3,-14,-8,-8
1511884676247554,2,2,-5,-5,-7,15,16,5
1511884676268538,-1,-6,3,8,-2,-7,-9,0
1511884676268538,-1,0,0,-1,-7,1,-23,-7
1511884676269438,-3,-1,-8,-2,10,-19,-32,-7
1511884676269438,4,-2,-3,-7,1,8,3,18
1511884676284477,-4,3,6,3,-11,-7,-11,-22
1511884676284477,2,3,0,2,2,6,22,0
1511884676290497,4,2,-2,-8,2,6,4,14
1511884676290497,-6,-4,-5,0,-2,4,9,-17
1511884676306536,-3,-3,0,4,5,-18,-39,-2
1511884676306536,4,-2,3,-6,0,3,-5,16
1511884676306536,1,4,-4,2,4,3,20,-4
1511884676306536,-1,-11,0,11,15,-7,-10,7
1511884676328598,1,7,-1,-10,-16,0,23,17
1511884676328598,-10,-6,2,6,5,0,-9,-35
1511884676329597,9,2,-1,-6,-9,-1,-9,34
1511884676329597,0,8,0,-4,-5,9,4,-23
1511884676344637,-5,-7,1,1,1,-6,-4,3
1511884676344637,-2,0,3,-1,-4,1,-5,-8
1511884676350751,-6,-6,-11,-7,1,1,-10,-8
1511884676350751,3,-2,-1,0,6,-6,-14,1
1511884676365788,1,-2,-1,0,-9,-13,-3,19
1511884676365788,-3,3,0,3,1,4,4,1
1511884676366787,0,-1,0,0,-2,-1,7,-13
1511884676366787,2,4,4,1,-1,-4,-6,14
1511884676389065,-4,-3,-2,3,3,3,5,-12
1511884676389065,-2,-2,-1,-4,0,2,1,-9
1511884676389065,-2,1,-1,-3,-4,-2,8,-2
1511884676389065,-9,-1,5,5,2,0,-5,-23
1511884676404100,3,-1,-3,-4,-2,8,18,6
1511884676404100,10,2,-4,-5,-4,-12,-10,2
1511884676410076,-17,-4,-1,3,2,5,5,-8
1511884676410076,-8,-2,0,-7,-9,-4,0,-21
1511884676425116,0,0,2,0,0,10,13,3
1511884676425116,2,-3,-2,2,1,-1,2,10
1511884676433140,-11,-1,-6,-8,-3,1,0,-4
1511884676433140,14,-2,4,2,-2,-1,7,17
1511884676449217,-3,3,-1,0,1,-1,-5,-12
1511884676449217,-2,2,2,3,2,0,6,2
1511884676449217,7,3,3,3,0,0,2,2
1511884676449217,-11,1,-1,1,0,0,-5,-6
1511884676464222,12,2,-1,-1,0,2,9,19
1511884676464222,-2,-5,0,-1,0,2,5,2
1511884676470236,0,0,-3,-3,-2,-6,-9,-7
1511884676470236,6,2,-2,-2,-3,-4,4,16
1511884676485574,-9,-2,-3,1,3,0,-8,-14
1511884676485574,-4,1,3,2,1,-4,3,-1
1511884676493436,6,-1,5,1,-8,-1,4,4
1511884676493436,1,-2,1,0,8,14,6,6
1511884676508451,-2,-5,-3,-3,0,-5,-9,-11
1511884676508451,0,-1,-8,-10,-3,-1,0,4
1511884676509455,5,1,-2,1,1,5,9,-1
1511884676509455,-1,2,2,-2,-6,-3,-5,3
1511884676524494,1,-3,2,4,3,0,0,-9
1511884676524494,-1,3,5,7,5,0,4,5
1511884676530514,1,3,4,6,2,4,6,-17
1511884676530514,15,0,-5,-7,-2,-7,3,26
1511884676545707,4,-9,-8,-6,0,8,8,-4
1511884676545707,-16,-6,-6,-12,-7,-2,-13,-6
1511884676552806,1,-1,0,1,-1,-3,1,7
1511884676552806,0,3,5,12,11,-4,1,-9
1511884676590930,0,3,11,13,1,-2,0,-4
1511884676590930,5,2,-8,-3,-8,-1,1,1
1511884676598047,-5,-8,-16,-20,-2,-7,-2,-2
1511884676598047,-2,-2,-6,-18,-11,2,-4,1
1511884676615000,-3,0,3,4,1,-2,-7,1
1511884676615000,1,2,11,9,2,-1,3,-4
1511884676615974,3,1,6,13,10,7,0,4
1511884676615974,-2,-3,-3,4,-5,-3,-4,-10
1511884676629210,-6,-2,-10,-17,-2,-4,-2,3
1511884676629210,3,1,-1,-5,-3,-2,-1,3
1511884676631014,1,-2,-2,0,-4,-3,-1,8
1511884676631014,-3,-1,-1,6,2,6,1,0
1511884676643048,-3,3,5,-1,-7,-2,2,0
1511884676643048,3,2,4,7,3,-1,-3,-5
1511884676652069,-1,-3,-1,1,-3,-2,-4,-2
1511884676652069,-6,-8,-2,7,5,-4,2,-4
1511884676667285,-3,4,-11,-3,-6,9,8,-2
1511884676667285,-2,0,-2,-15,-10,-5,-2,-6
1511884676668255,6,7,0,-7,8,11,8,12
1511884676668255,-3,-2,-2,-1,-6,1,4,-9
1511884676682291,-6,-1,1,-7,-3,-8,-16,-3
1511884676682291,2,-6,2,22,6,2,9,2
1511884676683294,-5,-1,-4,-14,-9,5,-4,-9
1511884676683294,-1,0,0,23,13,0,-8,-5
1511884676695368,-2,-1,7,-6,4,-7,-6,0
1511884676695368,-6,-2,-12,-16,-11,-2,-5,-7
1511884676704353,-3,-4,-1,-16,-19,-10,-8,-4
1511884676704353,-4,2,-5,17,3,-8,-15,-8
1511884676719587,-4,-6,-8,-20,-6,13,12,-8
1511884676719587,0,2,5,3,0,0,-1,1
1511884676720547,-3,-1,-6,4,5,4,10,-1
1511884676720547,1,0,7,-7,-13,-8,-17,-3
1511884676735600,2,4,11,31,20,10,4,0
1511884676735600,-5,-8,-7,-9,2,1,-2,-2
1511884676736435,3,3,-4,2,-7,-13,-11,-4
1511884676736435,-2,4,6,-8,7,7,11,1
1511884676756489,-6,-3,8,10,-15,-12,-3,-6
1511884676756489,2,2,-7,-8,2,2,-3,4
1511884676756489,-4,-6,-13,-8,-5,-1,-2,-7
1511884676756489,-3,5,4,-9,-9,-3,3,-2
1511884676764509,6,2,-2,-1,-11,-8,-3,3
1511884676764509,-3,-1,-1,5,18,11,12,-1
1511884676770529,-1,1,6,22,10,-7,-15,-1
1511884676770529,0,-3,1,-18,-6,-3,1,0
1511884676785752,2,-1,-1,10,5,2,-9,3
1511884676785752,-1,0,1,-1,-13,-5,-3,-3
1511884676792587,-4,0,3,-1,-2,-3,2,-2
1511884676792587,0,-2,-4,-5,-1,7,4,-2
1511884676824814,-1,-1,2,6,4,-12,-11,-4
1511884676824814,-3,-2,-10,-12,-9,-5,-6,-4
1511884676825817,0,0,-7,-7,-6,-2,-2,11
1511884676825817,0,-5,4,-3,-1,1,4,-7
1511884676845915,-2,2,1,6,-1,-1,2,1
1511884676845915,1,3,8,11,5,-5,-8,0
1511884676852932,-1,0,8,5,1,7,9,-3
1511884676852932,1,-1,-7,1,-5,-2,4,8
1511884676876952,-2,-5,-5,-13,1,0,-5,-6
1511884676876952,2,0,-7,-11,-11,1,9,-1
1511884676883975,-2,-5,0,-4,4,-10,-17,-4
1511884676883975,0,1,3,13,9,0,4,-2
1511884676900019,5,-2,-5,-6,-4,-2,1,6
1511884676900019,-4,-5,4,-7,-9,-7,0,-1
1511884676905285,-1,0,-1,5,-3,4,-1,-5
1511884676905285,-1,0,-3,-5,1,1,5,3
1511884676920218,-3,-7,-6,-2,1,0,-4,-2
1511884676920218,2,1,6,14,8,-1,1,1
1511884676929240,-8,-2,2,0,2,1,2,-2
1511884676929240,-5,-10,1,-1,-5,-3,-4,-2
1511884676959420,3,6,0,-3,1,2,5,4
1511884676959420,-4,3,-2,1,-1,-2,-6,-6
1511884676965592,0,-4,0,2,5,1,11,2
1511884676965592,0,4,-2,0,-3,1,-3,-1
1511884676981618,2,1,-1,-3,-3,-5,-3,-4
1511884676981618,-7,-4,-3,-4,1,3,1,1
1511884676982618,4,5,7,1,-3,0,-1,5
1511884676982618,-1,-2,-8,-5,-1,-1,0,1
1511884676996755,-4,-2,-7,-10,1,8,12,-2
1511884676996755,3,-2,2,6,3,-5,-10,2
1511884676996755,-5,-4,2,-1,2,-17,-14,-9
1511884676996755,0,3,-1,-2,-5,4,1,2
1511884677011779,0,-1,-1,1,0,0,-4,-6
1511884677011779,-1,0,1,11,12,4,-2,-4
1511884677013701,0,-2,-1,-1,-13,0,8,3
1511884677013701,1,-5,-4,0,-2,-9,-12,-5
1511884677025841,-5,-4,-7,-7,0,0,-1,-7
1511884677025841,1,4,8,6,6,-2,4,2
1511884677034756,-2,0,-10,-11,-5,-1,1,-4
1511884677034756,-2,-3,-10,-6,-4,-3,-3,1
1511884677049928,-1,0,0,-5,-11,3,2,-1
1511884677049928,0,-3,0,5,3,1,2,-4
1511884677050800,-1,1,2,5,5,6,-5,-7
1511884677050800,0,-1,-3,-7,-1,-3,1,0
1511884677065923,-1,2,2,4,-5,3,5,-8
1511884677065923,2,-2,-2,1,-3,-13,-25,-2
1511884677067845,-6,-3,-1,-1,-1,1,0,-10
1511884677067845,1,0,2,-2,-2,2,5,-5
1511884677070856,5,-2,1,5,1,-2,1,0
1511884677070856,-9,5,-2,-2,-6,-2,-1,-10
1511884677071854,-1,5,-4,5,1,2,1,2
1511884677071854,0,-2,-2,-6,-7,-3,-8,4
1511884677077874,-2,1,5,2,4,-7,-3,-1
1511884677077874,-5,-6,-2,5,-3,5,4,-1
1511884677087898,-1,-5,-11,-14,-11,-6,-5,-3
1511884677087898,-5,1,-3,-12,-2,6,4,-5
1511884677087898,-2,1,5,8,-3,-9,-10,-2
1511884677087898,1,2,-2,1,5,8,15,4
1511884677092914,1,2,5,-3,-8,-2,-7,-5
1511884677092914,4,4,-2,4,-5,-3,1,1
1511884677109058,-8,-11,-17,-16,-5,-2,-7,-7
1511884677109058,1,1,7,3,6,7,5,0
1511884677109981,2,0,9,18,5,0,0,2
1511884677109981,-3,3,-2,-2,1,3,2,-6
1511884677125038,-4,0,1,0,-2,-4,-11,2
1511884677125038,3,-3,-5,-11,-9,-3,6,3
1511884677130302,-2,-2,2,-3,6,4,-3,-8
1511884677130302,2,0,2,7,-2,-7,-8,-1
1511884677145229,-3,-2,-2,2,4,7,8,-4
1511884677145229,3,-3,-6,-8,-5,-4,-2,3
1511884677153344,-1,-1,0,0,1,6,13,-5
1511884677153344,-1,1,-1,1,0,-4,-4,2
1511884677168324,0,1,0,-2,-2,-7,-5,-4
1511884677168324,0,1,-1,-1,-5,5,0,-5
1511884677169296,0,-4,-2,1,2,1,6,2
1511884677169296,-3,-3,-3,-9,-7,3,-4,-5
1511884677184331,-4,4,0,10,11,-1,5,-1
1511884677184331,2,1,1,2,-4,-6,-11,1
1511884677190347,-1,-2,-2,7,7,-3,2,1
1511884677190347,-1,-4,-1,-4,4,8,18,1
1511884677205389,4,1,-1,-7,-8,0,-5,5
1511884677205389,-3,-1,-11,-12,-2,3,8,-5
1511884677213444,6,1,7,4,0,-2,-1,3
1511884677213444,-8,1,9,11,3,-1,-7,-1
1511884677228466,1,-3,-6,-8,-5,3,15,13
1511884677228466,-2,-3,-1,0,-3,-10,-7,0
1511884677229450,2,2,-10,-12,-6,2,-3,2
1511884677229450,3,-3,4,4,2,3,-2,-1
1511884677244490,-6,-3,-2,4,0,-3,-3,-4
1511884677244490,0,-3,-1,-8,-5,-5,-2,-1
1511884677250506,-3,-1,-1,1,-1,-3,-2,0
1511884677250506,-1,0,-1,2,-2,-5,-6,-3
1511884677265820,-1,3,1,0,3,8,4,-4
1511884677265820,5,2,7,2,3,6,-2,7
1511884677272740,-4,-3,-1,-2,-4,-2,-5,-5
1511884677272740,-2,-4,-6,-4,2,-4,-5,3
1511884677288784,2,1,1,0,-2,-5,-8,-4
1511884677288784,-2,0,1,6,1,1,7,-3
1511884677289783,2,1,0,-4,-2,-4,-2,5
1511884677289783,1,0,-2,-1,-3,9,9,2
1511884677304825,0,-1,-4,-5,0,-4,1,-2
1511884677304825,-4,0,3,-1,-2,-6,-15,-2
1511884677310842,1,2,6,13,8,2,8,-5
1511884677310842,1,0,-1,1,-2,0,1,-3
1511884677325886,1,-2,-5,-9,-6,-3,-1,-1
1511884677325886,-7,1,2,-2,0,4,9,1
1511884677332940,-3,-4,-7,-13,-9,-2,-8,-7
1511884677332940,1,1,5,3,6,-1,-7,-4
1511884677348041,-1,-4,5,6,-1,2,-1,0
1511884677348041,1,-1,-8,-4,-2,0,1,-4
1511884677356047,-3,-4,2,0,2,7,0,2
1511884677356047,0,-4,-8,-6,-5,-10,-3,-1
1511884677365037,-1,-2,-1,0,-4,0,-4,1
1511884677365037,3,3,4,3,7,4,-1,-2
1511884677370087,0,0,1,5,3,0,1,2
1511884677370087,-2,-1,-4,0,-3,2,3,-6
1511884677385181,-2,-3,-7,-11,-5,-12,-3,1
1511884677385181,-5,-5,-2,0,-3,2,-2,-2
1511884677393263,2,1,-1,-3,-6,-6,-7,5
1511884677393263,-3,0,2,1,7,1,7,-2
1511884677408302,1,4,10,10,5,-4,-3,0
1511884677408302,2,0,6,8,5,3,6,1
1511884677415362,-4,-3,-11,-13,-4,-2,1,-3
1511884677415362,0,-3,-7,-11,-10,-6,-7,-3
1511884677424441,-4,0,-2,-4,4,8,0,0
1511884677424441,3,2,4,8,2,-5,0,0
1511884677430514,2,3,10,11,5,7,4,5
1511884677430514,-1,0,-6,1,-5,-7,11,3
1511884677445618,-2,-3,-11,-13,-2,-5,-16,0
1511884677445618,-1,-3,-2,-6,-3,-3,-1,-3
1511884677452731,-2,-1,2,8,6,5,3,-4
1511884677452731,2,3,7,5,3,0,2,2
1511884677467736,-3,-2,6,7,4,1,2,-3
1511884677467736,-1,-5,-15,-12,-6,-3,-2,0
1511884677475835,2,-1,-4,-5,-3,-9,-2,9
1511884677475835,-1,-1,3,-5,-2,6,0,-2
1511884677484855,2,0,7,9,0,6,8,-1
1511884677484855,0,-1,-1,1,-1,-12,-16,-1
1511884677490870,0,-1,-3,-1,-2,7,9,-4
1511884677490870,1,-1,-1,-6,-1,-12,-25,-2
1511884677505909,-2,-1,-5,-1,-9,0,3,-1
1511884677505909,1,2,0,-4,11,12,11,1
1511884677513252,-2,-1,-1,2,2,-7,-16,-3
1511884677513252,-1,0,-5,-5,-3,7,13,2
1511884677528358,1,0,-2,-5,-1,-3,-7,-1
1511884677528358,-1,-1,2,3,-3,4,4,1
1511884677535424,-1,0,6,6,2,-1,0,-2
1511884677535424,-4,-3,-5,-1,1,-5,-8,-3
1511884677551638,2,2,3,-2,-2,2,5,1
1511884677551638,-3,1,-2,-3,-5,-3,-1,-7
1511884677552495,3,-2,-5,-5,-4,2,7,3
1511884677552495,0,-1,11,14,5,-2,-5,3
1511884677565753,-1,-2,-6,-1,-2,-1,-2,-3
1511884677565753,-3,-7,-7,-10,-5,0,0,-3
1511884677572665,-3,0,0,1,0,-9,-7,-5
1511884677572665,1,-2,-3,-10,-6,2,-4,-2
1511884677587802,0,-3,-3,0,7,6,8,3
1511884677587802,0,0,4,-1,-6,-6,-14,-4
1511884677595800,-3,-1,0,0,-4,-4,1,-2
1511884677595800,-2,-1,2,11,8,9,3,-1
1511884677610768,1,0,2,3,7,-4,-3,2
1511884677610768,-1,0,0,-1,-5,0,11,1
1511884677611767,3,1,-3,-2,0,-2,0,0
1511884677611767,0,-1,1,3,2,4,1,0
1511884677625808,0,-2,-3,-8,-4,-3,1,-1
1511884677625808,0,1,1,4,2,2,0,2
1511884677633154,1,-1,1,-1,-1,3,2,0
1511884677633154,-2,-2,5,3,-1,-5,-3,1
1511884677647994,-3,0,1,2,0,1,-3,-1
1511884677647994,-1,-1,-5,-5,0,-3,0,-3
1511884677655217,-1,-4,-4,-3,0,-4,-5,0
1511884677655217,-2,1,-2,-7,-6,-1,5,0
1511884677671260,1,4,7,4,-2,-1,-2,-1
1511884677671260,-1,-4,-3,-1,2,-1,2,-1
1511884677672089,0,-2,0,3,-2,3,6,-3
1511884677672089,1,1,2,-5,-1,-11,-17,-3
1511884677685391,-1,1,2,4,-1,7,20,0
1511884677685391,0,2,2,1,1,-3,-3,0
1511884677693287,0,1,-6,-4,-3,0,0,-1
1511884677693287,-2,-3,2,-3,-3,-4,2,0
1511884677707722,0,-4,-1,-4,-3,-4,-7,1
1511884677707722,0,0,0,3,-2,-4,4,-2
1511884677715733,-2,-1,0,-1,1,4,-7,3
1511884677715733,-1,-1,-2,2,0,2,3,-3
1511884677731629,1,0,-3,-1,-1,-3,-1,6
1511884677731629,2,0,3,5,-2,-5,-3,1
1511884677731629,-3,-1,-1,-4,0,-3,1,-1
1511884677731629,-2,-2,-6,-7,0,7,4,-1
1511884677745763,-2,0,-2,-1,-4,3,5,-1
1511884677745763,-1,0,3,4,-1,-6,-5,0
1511884677752777,3,3,8,9,7,-2,-7,-1
1511884677752777,-4,-4,-2,-7,-9,-5,-6,-1
1511884677767701,-4,-6,-11,-9,4,1,1,-4
1511884677767701,-2,-1,-6,-7,-4,-1,-1,2
1511884677775725,-1,0,-1,1,-3,1,1,1
1511884677775725,3,3,3,9,4,-4,-2,-2
1511884677790765,2,-1,5,3,-5,-4,-9,-3
1511884677790765,-3,-6,-12,-10,2,1,3,1
1511884677791764,-2,-2,-3,-5,-5,3,2,-2
1511884677791764,1,1,-2,4,4,3,5,2
1511884677805903,-1,3,7,4,-3,0,0,1
1511884677805903,0,0,4,7,5,1,-5,-3
1511884677812846,-2,-3,-3,-7,-2,-1,4,-1
1511884677812846,-1,-2,-6,-4,-1,2,-4,0
1511884677827888,0,0,1,-1,-2,-5,-11,-1
1511884677827888,3,0,-2,-2,-4,-3,3,0
1511884677835890,-4,-1,-1,0,0,3,7,2
1511884677835890,0,1,-1,-2,-3,4,14,0
1511884677850951,-2,-1,-7,-6,1,-2,-6,-2
1511884677850951,3,0,2,1,-1,6,4,2
1511884677851924,-1,0,3,5,0,-2,-6,-1
1511884677851924,2,0,5,8,4,-2,3,1
1511884677865962,-3,-8,-5,-4,1,3,4,0
1511884677865962,-2,-2,-1,-5,-6,3,0,0
1511884677872980,0,-4,-7,-9,-7,0,-2,-1
1511884677872980,-1,-2,-3,-2,-1,-2,-4,1
1511884677888020,-2,4,6,10,6,-1,-3,-2
1511884677888020,-1,2,11,4,-1,-3,-2,-2
1511884677895039,-1,-7,-14,-1,-1,0,-6,1
1511884677895039,-4,-3,-8,-10,-1,1,1,-1
1511884677911082,1,-1,0,-2,1,0,6,-1
1511884677911082,-3,-2,-3,-6,-5,-1,-8,0
1511884677912084,1,2,7,4,6,-3,-2,-2
1511884677912084,0,1,6,5,-3,-4,-5,1
1511884677925148,-1,0,-5,-2,1,4,3,-2
1511884677925148,1,0,-3,-1,-1,3,5,6
1511884677933170,-1,1,3,2,-1,0,-1,-1
1511884677933170,3,-4,-10,-4,0,-4,-1,5
1511884677948202,0,2,0,-2,0,12,2,1
1511884677948202,-2,-1,-3,1,1,-9,-9,-2
1511884677955199,-1,0,-3,-8,-3,2,8,-1
1511884677955199,-1,-3,2,-1,-2,1,-1,-2
1511884677971276,1,3,7,5,-2,-4,7,-5
1511884677971276,-2,-2,-8,-4,-2,3,-2,0
1511884677972253,-1,-1,-4,-1,2,0,3,0
1511884677972253,-3,-1,-4,-1,-2,-7,-8,-6
1511884677985279,2,3,4,3,-3,-1,-3,4
1511884677985279,0,1,0,5,4,1,3,1
1511884677993300,-2,-2,1,-3,-1,4,5,-2
1511884677993300,-1,0,-7,-5,-7,-10,-7,0
1511884678008340,-3,-5,-6,-13,-7,-1,-3,1
1511884678008340,1,3,0,4,2,-1,0,-4
1511884678015359,0,1,3,2,-3,-2,-3,1
1511884678015359,-1,1,1,1,1,5,9,1
1511884678031429,3,0,-1,6,0,-9,-8,1
1511884678031429,-2,-2,-5,-3,4,-1,-7,-4
1511884678031429,-2,1,-6,-11,-9,-3,-2,0
1511884678031429,0,-2,5,7,5,-1,-3,0
1511884678045439,0,0,0,1,2,-4,-1,1
1511884678045439,1,-1,3,1,-3,4,8,6
1511884678052457,0,-3,0,6,1,-11,-4,-4
1511884678052457,0,-1,-6,-12,-2,8,5,2
1511884678067497,-2,-2,-1,3,0,-5,-8,0
1511884678067497,-2,-1,-2,-1,1,2,3,2
1511884678075519,0,3,6,11,4,-1,0,-1
1511884678075519,-1,-5,-5,-10,-7,-1,0,0
1511884678091561,-2,-5,-10,-10,-1,-1,0,-5
1511884678091561,-1,-2,1,-1,-3,9,12,3
1511884678091561,2,2,7,2,5,-6,-6,0
1511884678091561,2,0,3,6,1,2,1,-3
1511884678105599,-1,0,0,-1,-2,3,3,1
1511884678105599,1,-3,0,3,-3,-3,-2,0
1511884678112617,-2,-3,-11,-10,-7,1,5,1
1511884678112617,-1,0,7,2,-1,-2,-3,-2
1511884678127657,-1,1,-6,-4,6,6,5,-1
1511884678127657,-1,1,1,0,-3,-7,-11,-3
1511884678135679,0,0,1,3,4,7,6,0
1511884678135679,0,1,4,10,2,0,-1,-2
1511884678150719,-2,-3,-6,-10,-5,-4,-5,-6
1511884678150719,-1,-2,-6,-10,-4,-4,-4,-4
1511884678151722,0,-2,-2,-6,-3,-3,-8,-1
1511884678151722,-2,3,9,4,3,4,5,1
1511884678165759,2,-1,10,20,4,-3,-3,-1
1511884678165759,-3,-4,-10,-12,-4,-3,-2,-3
1511884678172778,-1,-3,0,-4,-7,-2,-9,-3
1511884678172778,-3,-2,-3,-3,-3,-3,-2,1
1511884678187818,1,3,-2,-1,0,3,8,5
1511884678187818,0,1,4,-4,-4,-2,-7,-3
1511884678195839,1,-3,0,5,3,0,4,0
1511884678195839,0,2,0,-1,0,2,-7,-2
1511884678210879,-1,-4,0,-1,-2,-1,-8,1
1511884678210879,0,0,-5,1,5,-2,1,-4
1511884678211881,0,1,1,0,-2,5,0,1
1511884678211881,-1,-1,0,-3,2,2,3,-2
1511884678224916,1,0,-6,-3,2,-7,-3,-1
1511884678224916,-2,-3,0,4,-1,2,3,-3
1511884678232937,-2,-1,-2,-8,0,1,4,0
1511884678232937,-1,-1,-3,0,-1,-9,-13,0
1511884678247977,0,1,4,-5,-6,3,3,0
1511884678247977,2,-3,-2,11,8,0,1,1
1511884678254996,1,-1,-1,-7,-5,-2,6,3
1511884678254996,0,-3,-10,-12,-4,-2,3,-4
1511884678271039,0,1,3,2,0,1,-1,1
1511884678271039,-2,-3,4,6,1,1,2,-4
1511884678272053,-1,-1,1,5,-2,-6,-8,-3
1511884678272053,-2,-4,-3,1,2,5,7,-1
1511884678285103,-1,-1,-5,-11,-9,-8,-10,1
1511884678285103,1,2,2,5,-1,1,-4,-6
1511884678293124,-1,-2,-5,-5,0,-6,-5,-6
1511884678293124,2,2,1,-3,0,4,3,3
1511884678308167,-1,-1,-2,2,0,-1,1,-8
1511884678308167,-3,0,3,0,1,8,10,6
1511884678323201,0,0,1,-7,-4,-10,-10,2
1511884678323201,-1,0,2,4,1,4,3,1
1511884678330224,-1,-1,1,3,1,-1,-2,1
1511884678330224,2,1,6,1,2,3,5,2
1511884678338247,-2,-6,-2,-1,3,-4,-15,-3
1511884678338247,0,1,-4,-2,-5,2,9,1
1511884678345237,-3,-4,-7,-6,-1,-3,11,-2
1511884678345237,-1,-3,1,-1,-4,-8,-19,0
1511884678353258,0,2,6,4,1,7,5,0
1511884678353258,0,-5,-1,8,5,-6,-7,-2
1511884678368299,-2,-4,0,2,-3,9,4,0
1511884678368299,1,4,-3,-14,-4,-3,2,2
1511884678375317,0,-2,-1,2,-1,1,3,1
1511884678375317,0,2,3,2,0,0,-2,-2
1511884678390385,-1,1,-1,-2,1,-1,2,-3
1511884678390385,2,0,-3,0,-1,-1,1,-2
1511884678398407,3,1,-5,-6,1,3,5,4
1511884678398407,-2,2,9,15,2,-2,3,-1
1511884678405396,-2,-4,-3,-4,-2,-2,-8,-2
1511884678405396,-1,-3,-6,-10,-5,-4,-1,-1
1511884678413418,-2,0,6,9,4,5,6,2
1511884678413418,-1,-5,-10,-5,0,-5,-4,-1
1511884678427482,0,1,5,-7,-5,0,-2,-2
1511884678427482,-1,-1,-3,-2,0,-3,-7,-1
1511884678435503,-2,-1,1,-1,-4,-2,2,-2
1511884678435503,0,0,-2,-1,2,-3,5,0
1511884678450517,-2,-4,0,0,-1,-7,-22,-1
1511884678450517,-2,-1,1,10,5,5,10,-1
1511884678458561,0,0,-6,-1,-5,-4,-3,0
1511884678458561,-3,-2,-5,-13,-5,1,0,-5
1511884678473601,1,0,-1,3,6,3,6,1
1511884678473601,0,1,8,5,-1,-5,-7,-1
1511884678474603,0,0,-5,-3,0,-1,-2,0
1511884678474603,-3,-1,-3,-4,-10,-4,-1,-1
1511884678487638,-1,2,0,7,11,-1,-2,-4
1511884678487638,2,2,8,1,-3,1,-4,1
1511884678495660,-2,-3,-6,-2,-4,-4,2,-2
1511884678495660,-1,-4,-15,-21,-12,-3,-6,-2
1511884678510697,-2,4,4,1,2,3,4,-1
1511884678510697,1,1,3,3,-6,-1,4,0
1511884678518697,1,1,6,8,9,1,-2,-1
1511884678518697,1,2,-3,-4,-4,-1,-1,-1
1511884678533737,-1,-2,7,7,3,2,-2,1
1511884678533737,0,1,-11,-15,-12,-9,-4,-1
1511884678534769,-4,-5,1,0,-1,-2,5,-1
1511884678534769,-1,-3,8,7,8,0,-7,-2
1511884678547802,-1,-3,-6,4,3,0,0,1
1511884678547802,-3,1,-4,-6,-5,-2,6,1
1511884678555796,-1,2,1,0,8,6,-3,-2
1511884678555796,-1,-1,6,4,-1,-4,-8,0
1511884678570857,-1,0,-3,-2,-3,-3,10,0
1511884678570857,-2,-6,-12,-12,-6,-9,-11,2
1511884678578886,1,1,-5,-4,-8,1,-1,1
1511884678578886,-1,1,5,6,13,4,5,-1
1511884678593897,2,2,3,-3,-14,-3,0,2
1511884678593897,-1,-2,-5,7,9,3,5,-3
1511884678593897,-1,-3,0,-5,-1,-1,-1,0
1511884678593897,-1,-2,1,6,-2,-1,-3,-2
1511884678607934,-1,-1,-3,-3,3,2,2,-2
1511884678607934,1,-1,6,3,-7,-4,-5,-3
1511884678614953,1,-2,-1,1,7,3,-2,-2
1511884678614953,2,5,-3,-4,-4,3,8,6
1511884678629993,-4,-7,-3,-3,-4,-6,-3,-1
1511884678629993,1,0,1,7,13,8,0,2
1511884678638014,-1,-3,-5,-6,-16,-10,6,1
1511884678638014,-3,-5,-14,-9,-3,-4,4,-5
1511884678654057,3,6,6,0,0,2,2,8
1511884678654057,1,1,8,3,-1,4,5,7
1511884678654057,-1,-4,-11,-3,-2,0,-4,-6
1511884678654057,1,-1,2,-4,-4,-2,-4,2
1511884678668094,1,6,10,7,4,-1,0,-5
1511884678668094,1,-2,2,6,5,5,3,2
1511884678675113,1,4,4,10,5,-2,-3,-2
1511884678675113,3,0,-9,-15,-8,1,1,1
1511884678690153,-3,-3,2,9,12,2,-5,-2
1511884678690153,-4,-2,-5,-14,-18,-4,3,-1
1511884678698174,-1,3,3,5,10,-2,-7,1
1511884678698174,1,1,9,10,5,5,-1,0
1511884678713214,2,1,1,0,-5,3,-3,0
1511884678713214,-6,-7,-8,-5,6,3,6,-3
1511884678714217,-3,-7,-12,-10,-7,-5,-4,-3
1511884678714217,2,2,1,3,0,-5,-2,-1
1511884678728254,-1,-5,-7,-11,-10,-3,-1,2
1511884678728254,-1,1,0,1,5,6,3,-3
1511884678735273,3,3,10,5,7,-5,-12,5
1511884678735273,1,-7,-22,-8,-4,5,2,-3
1511884678750313,3,4,-3,-2,-3,-6,5,0
1511884678750313,0,0,-1,-2,-1,-6,-4,-4
1511884678758334,1,1,3,-1,6,5,8,5
1511884678758334,-3,-2,2,0,0,-4,0,-1
1511884678773374,-3,-6,-6,1,0,-1,0,-4
1511884678773374,3,1,0,0,5,4,4,3
1511884678774377,-1,-2,0,-6,-7,-1,0,-4
1511884678774377,-3,-4,2,-3,-4,2,-3,0
1511884678788415,-1,-5,-9,-5,-4,-5,-4,-1
1511884678788415,-2,3,9,4,2,-4,-7,-2
1511884678795461,3,-1,-2,3,2,9,2,-4
1511884678795461,-2,1,7,0,-1,-8,-5,-1
1511884678810473,-2,-1,-2,-2,-2,-2,1,-1
1511884678810473,-1,-4,-8,-6,-2,4,-6,0
1511884678817492,-1,5,5,1,-4,-4,4,4
1511884678817492,-2,-2,4,1,5,5,-2,-8
1511884678833534,1,3,1,3,2,7,-7,-1
1511884678833534,1,1,4,4,1,0,6,-1
1511884678834537,-3,-4,-2,4,6,9,5,1
1511884678834537,-3,-6,3,6,0,-3,1,3
1511884678847602,-2,-3,1,2,0,-3,0,1
1511884678847602,1,-3,-8,-5,-3,-3,1,1
1511884678855594,0,3,3,-5,-5,1,-3,-4
1511884678855594,0,-3,-8,-3,-8,-2,-4,-1
1511884678870660,3,4,3,-5,-4,-1,4,3
1511884678870660,0,8,15,25,24,8,-3,-8
1511884678877676,7,1,-2,-11,-12,-5,0,5
1511884678877676,-22,-16,-8,1,2,-5,-4,-6
1511884678893724,-8,4,7,1,-2,-2,0,-3
1511884678893724,-7,-11,-5,-1,-6,2,-1,-1
1511884678894724,10,8,-6,-8,-3,-2,-1,0
1511884678894724,-17,-14,2,-1,-1,-14,-25,-4
1511884678907759,-2,-9,-5,-2,2,6,0,-5
1511884678907759,-7,-4,-1,-4,-12,-12,-1,8
1511884678915780,-4,-3,0,1,2,1,4,-8
1511884678915780,12,3,-5,-2,-5,-10,-4,16
1511884678930793,-4,-5,-9,-3,-2,-2,5,7
1511884678930793,3,0,0,-5,-2,4,-8,-14
1511884678937812,-1,-4,0,-1,-8,-2,-9,5
1511884678937812,5,7,4,-1,4,7,17,6
1511884678953854,4,3,0,-1,-7,-6,-9,-8
1511884678953854,4,1,-5,0,2,-3,3,2
1511884678953854,-11,-2,13,8,6,0,-11,-4
1511884678953854,3,6,2,0,-3,5,0,-12
1511884678967891,6,-5,-8,-6,2,-1,2,22
1511884678967891,-1,0,-2,-3,-4,-9,-13,0
1511884678974910,-8,-8,-7,-1,-6,-14,-3,7
1511884678974910,6,7,8,2,3,9,-6,-6
1511884678989950,3,-3,-5,-3,-4,-4,5,-2
1511884678989950,5,6,1,4,4,-1,-10,-9
1511884678997979,-7,2,-4,-4,-7,-4,8,-10
1511884678997979,5,4,3,5,12,19,17,7
1511884679014016,3,-4,-4,-2,1,-10,-7,-2
1511884679014016,-8,-5,-2,-6,-7,0,1,-16
1511884679014016,5,3,-1,2,-2,1,-1,17
1511884679014016,-2,0,-1,-4,-2,0,5,-6
1511884679028079,-1,3,2,-1,-1,-6,5,13
1511884679028079,9,1,4,4,2,1,-2,4
1511884679035098,-3,-2,0,1,0,6,13,6
1511884679035098,2,1,1,0,3,2,0,4
1511884679050110,-2,2,4,3,3,9,7,-6
1511884679050110,2,1,6,13,9,-11,-5,5
1511884679058153,-1,-1,-11,-20,-17,6,9,-5
1511884679058153,-4,0,2,5,-1,-19,-26,-9
1511884679073192,3,0,5,-2,-3,-2,-2,1
1511884679073192,2,-5,-10,-6,-5,3,1,10
1511884679074174,3,4,6,9,9,-5,-9,-11
1511884679074174,5,9,3,1,-4,8,23,1
1511884679088241,1,-5,-11,-4,-3,-2,-10,1
1511884679088241,-11,-3,-7,-8,-7,4,6,-1
1511884679095258,1,2,8,9,10,-8,-21,-15
1511884679095258,10,7,3,1,-1,5,12,10
1511884679110300,0,-5,0,1,0,7,22,-16
1511884679110300,6,5,0,-5,-1,-2,0,0
1511884679118321,-14,-22,-16,-6,-1,-2,11,12
1511884679118321,-13,-3,0,-2,-4,-4,-17,-18
1511884679133331,3,4,2,-1,0,2,-4,-4
1511884679133331,-11,-3,3,-4,-1,1,-6,-14
1511884679134334,3,0,-1,3,3,1,5,-7
1511884679134334,4,-2,-3,-4,-3,7,10,7
1511884679148371,-9,-4,-1,0,1,-2,-9,3
1511884679148371,2,-2,0,-3,-1,0,-5,-2
1511884679155390,1,4,1,2,4,13,25,4
1511884679155390,3,-2,-8,2,0,-9,-17,-2
1511884679170458,-3,2,-3,-8,2,6,2,-8
1511884679170458,2,1,5,7,1,5,11,-7
1511884679177449,-3,-6,-6,-5,-1,-7,-19,3
1511884679177449,2,1,3,2,-2,-1,5,15
1511884679193516,7,1,-2,-3,-6,1,8,3
1511884679193516,-9,9,8,4,2,0,6,0
1511884679194495,5,-3,-7,0,-1,-5,-8,11
1511884679194495,-10,-4,-4,-9,0,1,10,-1
1511884679207550,7,4,7,5,-2,-11,-21,5
1511884679207550,3,-14,-20,-13,-9,2,1,7
1511884679215578,0,2,0,1,12,7,8,-9
1511884679215578,1,-4,7,5,-9,-18,-33,5
1511884679230611,-2,0,5,3,12,10,7,2
1511884679230611,-14,-9,-5,1,-2,-4,9,-5
1511884679237637,1,0,-2,-8,-8,2,-2,-3
1511884679237637,-2,-2,-5,-2,1,-2,0,-9
1511884679252677,-8,1,-6,-5,-4,7,-1,-8
1511884679252677,1,-1,9,6,2,-5,-5,5
1511884679260699,0,-2,-2,-6,-6,1,4,-4
1511884679260699,-5,-4,3,-5,-5,1,13,6
1511884679267692,-2,-8,-17,-7,2,5,0,-4
1511884679267692,0,-5,-2,1,2,-4,-5,3
1511884679275741,10,15,7,3,-3,1,-1,6
1511884679275741,-8,-5,5,10,6,5,7,-12
1511884679290780,2,3,0,3,-7,-8,-12,3
1511884679290780,2,-1,-15,-24,-20,0,0,2
1511884679297797,-5,0,12,19,19,-4,6,-14
1511884679297797,7,3,-15,-16,4,7,10,18
1511884679312809,-5,-6,1,-4,2,-2,0,-2
1511884679312809,8,5,8,6,1,-1,5,10
1511884679320830,-9,-4,-4,-5,-11,-6,-8,-8
1511884679320830,4,-6,4,9,10,3,9,-1
1511884679327850,3,11,9,11,4,-3,6,0
1511884679327850,-2,-5,-12,-14,-2,9,0,2
1511884679335888,-4,-9,-5,-5,-5,-6,1,-1
1511884679335888,1,2,5,7,-3,7,7,-2
1511884679349907,-6,0,-8,-4,5,-7,-11,-13
1511884679349907,13,6,10,6,4,-1,-2,26
1511884679357930,-2,1,-4,8,-5,4,-6,-5
1511884679357930,1,-1,-10,-13,7,-2,1,-2
1511884679373992,-10,2,9,5,-4,9,5,-18
1511884679373992,9,6,4,11,4,-8,-19,9
1511884679381017,-7,-11,-2,-11,0,0,7,-4
1511884679381017,6,-2,-2,-8,-11,-7,-19,0
1511884679388009,-5,-2,-2,-4,-14,-5,-1,-1
1511884679388009,-3,-4,-3,-7,0,7,18,-1
1511884679395055,5,4,2,-7,-7,-17,-20,0
1511884679395055,2,4,7,9,-8,-3,-15,-8
1511884679410089,-3,-9,2,1,-1,10,11,9
1511884679410089,-2,2,0,9,10,-20,-30,2
1511884679418116,7,-1,-2,-7,-6,-2,-2,16
1511884679418116,-16,-13,-4,3,-7,-12,-12,-8
1511884679433158,-1,2,5,6,3,3,42,-19
1511884679433158,1,2,-5,-7,-9,10,9,-1
1511884679441171,2,5,1,9,23,15,14,-4
1511884679441171,-1,4,1,-8,-22,-1,33,14
1511884679472240,4,-2,2,5,14,-12,-19,7
1511884679472240,-6,-2,5,3,-4,-2,10,-14
1511884679473235,-19,-1,-6,0,-3,6,12,-36
1511884679473235,14,2,-2,-5,1,-3,0,37
1511884679493289,0,-2,-1,-3,-8,-4,-5,-1
1511884679493289,0,-1,1,4,8,8,8,-3
1511884679500316,-4,9,11,4,-9,0,-5,-16
1511884679500316,-6,-17,-11,-1,11,12,1,-7
1511884679525374,-2,-3,-5,-2,2,-7,-20,13
1511884679525374,-3,6,4,-1,-3,-4,7,-43
1511884679527380,14,-3,-8,-9,-12,0,8,8
1511884679527380,-17,-11,7,8,10,-3,-6,-19
1511884679545427,8,0,-14,-7,-1,2,-6,6
1511884679545427,-6,-6,-3,-5,-4,1,9,8
1511884679554452,5,3,7,6,5,4,-6,9
1511884679554452,8,9,-1,-4,1,2,1,-4
1511884679576509,8,-2,1,-3,-10,-3,-8,13
1511884679576509,-9,0,1,3,-1,-8,-4,-9
1511884679578515,-1,-8,1,5,15,11,-5,9
1511884679578515,2,6,-7,-8,-9,-4,-10,-6
1511884679599571,-4,0,8,4,1,-4,-1,-7
1511884679599571,10,1,-4,-1,3,-6,3,25
1511884679600574,-11,-2,-2,-1,-2,-4,-8,3
1511884679600574,-5,1,0,3,-2,0,-1,-16
1511884679629653,-1,-2,-3,-5,5,-3,2,4
1511884679629653,1,0,-2,-4,-5,-3,-18,-9
1511884679630655,1,1,1,4,6,-4,-4,9
1511884679630655,11,-1,-2,-3,-5,1,0,15
1511884679651710,-19,-6,-8,-7,-10,-1,3,-19
1511884679651710,-4,3,1,-1,0,-5,-9,-14
1511884679653716,18,4,2,1,-1,10,15,39
1511884679653716,-11,7,3,1,3,0,-14,-9
1511884679672793,0,-6,6,4,-3,1,-4,-1
1511884679672793,-12,-10,-8,-4,-2,-3,9,-9
1511884679681790,1,0,-3,-6,-7,-11,-19,-8
1511884679681790,8,5,0,-5,-1,3,14,-2
1511884679710896,3,1,2,8,3,-4,-23,10
1511884679710896,-7,-7,-4,-11,-9,0,-3,5
1511884679719891,1,-1,-3,-4,-8,-6,-5,-4
1511884679719891,1,0,2,5,8,2,1,-2
1511884679726941,-5,2,0,4,6,4,6,-3
1511884679726941,8,5,5,-2,-10,6,17,-1
1511884679727944,-3,-4,-4,-6,8,-6,-18,-9
1511884679727944,-2,0,-4,1,-1,2,9,2
1511884679755018,-4,7,4,3,-2,2,8,-6
1511884679755018,3,1,-5,0,3,5,2,19
1511884679764008,1,-2,-1,-1,-5,0,4,0
1511884679764008,-5,-6,-1,-1,-3,-10,-5,-18
1511884679779076,3,-4,-2,-1,1,4,4,14
1511884679779076,5,0,-3,0,-3,-5,-19,5
1511884679781081,-10,4,-2,3,0,-6,-2,-14
1511884679781081,15,1,-3,-3,0,4,5,7
1511884679794110,-8,0,-2,-4,-4,-2,1,-12
1511884679794110,-2,1,6,1,3,2,-5,-7
1511884679796115,-8,-6,-1,-2,-7,-6,-5,-5
1511884679796115,-4,-1,7,13,6,-3,-6,2
1511884679808152,4,0,-15,-16,-9,-1,-2,-1
1511884679808152,-2,3,-4,3,8,6,4,-1
1511884679817150,0,2,-2,-5,-14,-11,-7,-3
1511884679817150,-5,1,-4,-12,-1,5,18,1
1511884679832190,2,1,6,-3,-17,-9,-17,-4
1511884679832190,2,5,5,13,15,6,2,2
1511884679833192,0,-4,4,5,10,5,7,3
1511884679833192,-4,1,-2,9,-5,0,-6,-9
1511884679846260,0,-3,-10,-11,-4,-6,-7,-3
1511884679846260,0,-4,-8,-15,-14,-6,2,3
1511884679853278,-8,6,6,3,2,4,2,-15
1511884679853278,1,-3,-1,2,3,-5,-5,6
1511884679860266,6,5,7,11,3,3,0,-9
1511884679860266,7,2,6,9,8,-1,1,6
1511884679869288,-13,-9,-9,-9,-12,-7,-7,-6
1511884679869288,-3,0,6,6,18,13,3,0
1511884679884330,-4,-4,-3,1,-2,2,7,-5
1511884679884330,-8,-5,-6,-19,-1,1,-13,-7
1511884679886334,6,0,3,13,-6,-1,3,7
1511884679886334,-5,2,-4,-29,-5,-6,-17,-8
1511884679898366,0,6,9,8,-2,-2,2,2
1511884679898366,1,3,10,14,7,9,7,0
1511884679899368,5,-1,-3,6,12,5,7,5
1511884679899368,-3,2,-2,-5,-7,-8,-17,-7
1511884679921427,6,3,3,6,6,11,18,11
1511884679921427,-4,-6,-18,-20,-16,-2,3,1
1511884679921427,6,3,-1,-14,-5,2,-6,1
1511884679921427,1,-7,1,5,2,-2,5,6
1511884679938473,3,-1,11,8,3,-4,-8,5
1511884679938473,2,-5,-1,10,9,12,23,5
1511884679939475,1,0,3,-1,0,-3,-2,2
1511884679939475,3,7,6,7,5,2,6,-1
1511884679957523,2,-3,-12,-8,0,2,8,16
1511884679957523,-3,-7,3,3,0,-21,-25,-5
1511884679968552,1,-2,-2,-5,6,10,8,5
1511884679968552,2,3,-1,-1,-4,-2,1,2
1511884679989608,-1,-2,2,2,6,-4,-13,-3
1511884679989608,6,8,11,-3,-28,-6,-2,4
1511884679990611,3,-5,-10,-3,26,13,14,8
1511884679990611,0,-5,-5,-7,-7,-9,-16,4
1511884680010664,2,0,-4,-8,1,2,7,1
1511884680010664,2,3,5,12,12,-2,-3,4
1511884680019688,5,4,16,-4,-15,0,5,0
1511884680019688,1,3,4,13,3,3,6,6
1511884680042780,1,-2,-2,-6,4,0,-10,2
1511884680042780,-3,-4,-8,-20,-12,0,-4,-6
1511884680043761,-2,-8,-6,-1,-2,-7,-13,-1
1511884680043761,3,-6,-6,5,12,4,10,1
1511884680062803,-1,-3,5,5,-6,4,-5,4
1511884680062803,4,7,0,3,7,-2,-5,1
1511884680071827,-5,-11,-3,3,-3,-6,-5,-1
1511884680071827,4,1,2,-4,0,-2,-3,-1
1511884680093886,-1,3,-3,-8,1,1,8,-6
1511884680093886,-2,0,1,9,0,0,1,-4
1511884680095891,2,1,-6,-5,-12,-9,-1,6
1511884680095891,-1,2,-7,-11,-7,6,11,-2
1511884680116948,1,-1,-2,2,3,-7,-7,0
1511884680116948,-2,0,1,3,12,-3,-6,-2
1511884680117977,0,2,5,6,-5,-1,3,-5
1511884680117977,-4,-7,-8,-4,-6,2,-1,0
1511884680138030,2,2,4,3,8,-4,3,-5
1511884680138030,-2,-6,-7,-10,-9,9,16,3
1511884680147028,2,4,10,11,15,2,-1,3
1511884680147028,-3,-6,-2,-1,-8,-10,-4,1
1511884680170088,2,5,2,-2,-7,0,-4,-6
1511884680170088,-7,-11,-3,2,3,-15,-12,-6
1511884680172094,1,2,1,-10,-1,11,19,-1
1511884680172094,10,8,4,4,3,-1,3,12
1511884680190166,6,-6,-11,-8,-5,-1,1,4
1511884680190166,-13,-2,-2,-1,4,9,6,-8
1511884680199166,1,3,6,8,1,-7,-14,4
1511884680199166,0,1,3,7,3,0,-4,-14
1511884680222227,-8,-7,-5,-7,-7,-6,-12,3
1511884680222227,7,4,5,3,1,1,8,7
1511884680224233,1,6,-4,-3,3,-5,-8,-3
1511884680224233,-10,-4,3,-4,-5,2,15,3
1511884680243283,-1,-6,-2,4,8,0,8,-4
1511884680243283,1,-2,-3,-2,-7,1,-16,-1
1511884680252307,2,4,-2,-10,0,3,17,1
1511884680252307,0,2,3,10,8,-9,-26,-5
1511884680274366,0,4,1,6,4,1,6,-1
1511884680274366,-3,-5,-4,0,0,-1,-9,-2
1511884680276371,-1,-9,-10,-10,-4,2,-9,-2
1511884680276371,-2,1,4,3,-5,1,-1,-5
1511884680296451,-1,-1,-1,4,0,2,8,1
1511884680296451,5,4,-5,-11,-3,-5,-4,-2
1511884680302469,3,-3,1,5,-3,-2,2,7
1511884680302469,-16,-6,-7,-11,-4,1,-5,-9
1511884680317507,-1,5,5,0,-4,0,-5,-3
1511884680317507,-6,-7,3,5,3,0,9,-6
1511884680326531,16,2,1,-1,-3,-9,-10,10
1511884680326531,2,2,5,7,7,14,31,6
1511884680333523,1,4,-4,-4,-9,-4,2,6
1511884680333523,0,-5,0,0,5,0,-1,-4
1511884680334553,-4,-1,0,-4,-3,-7,-14,-8
1511884680334553,0,0,-3,-3,-11,0,1,5
1511884680341544,-2,-2,-6,-10,-6,-2,-9,-4
1511884680341544,0,5,5,11,9,6,3,0
1511884680341544,-6,0,3,10,-2,5,4,2
1511884680341544,4,1,-5,-8,-6,-7,-15,2
1511884680349566,-3,-5,-9,-12,5,5,8,1
1511884680349566,2,2,4,-5,-12,-7,-9,2
1511884680352574,-3,-5,5,6,7,8,8,-7
1511884680352574,-1,-2,2,7,3,-9,-17,-5
1511884680356584,1,-3,-1,7,2,9,15,6
1511884680356584,1,1,-2,-8,2,1,-4,3
1511884680356584,-3,-1,-6,-1,-4,-5,-2,-6
1511884680356584,4,3,3,-6,-4,0,0,1
1511884680364606,-3,1,-3,5,-1,-1,0,1
1511884680364606,1,5,4,11,4,-2,-9,1
1511884680365609,-8,-14,-10,-10,0,-8,-7,-2
1511884680365609,-2,-4,-11,-5,3,2,6,-3
1511884680371624,1,-2,9,3,-1,0,-18,-16
1511884680371624,1,-1,-8,-3,-5,3,9,4
1511884680371624,-2,2,-5,-4,-5,-7,1,4
1511884680371624,-2,-3,2,-6,-1,0,0,-9
1511884680378767,0,1,2,3,2,9,5,9
1511884680378767,2,-4,1,-1,5,-6,4,-1
1511884680379646,-5,2,0,6,3,2,-4,-5
1511884680379646,-1,-1,0,5,-8,0,-2,1
1511884680386782,-3,-1,-7,-23,-14,-4,-6,-4
1511884680386782,4,0,-5,0,1,-3,-6,11
1511884680388670,-1,1,-1,1,-5,6,14,3
1511884680388670,1,1,6,10,8,-10,-4,1
1511884680393686,-2,-4,4,1,-7,-9,-14,-1
1511884680393686,6,5,1,-4,-3,3,9,4
1511884680394690,-5,-6,-2,6,12,5,9,-6
1511884680394690,4,2,-6,-12,-10,4,1,-1
1511884680400705,-2,-4,-2,6,10,-8,-2,-2
1511884680400705,3,2,-1,-5,-1,-1,-4,-3
1511884680401704,-7,2,1,-3,-1,4,3,-6
1511884680401704,2,1,2,6,4,-4,3,8
1511884680409729,0,1,1,4,1,4,2,-6
1511884680409729,-4,-6,4,5,-1,-1,2,-3
1511884680410728,3,3,3,3,-5,0,0,-2
1511884680410728,0,-5,-15,-22,-3,1,1,-1
1511884680415892,-4,-3,0,3,4,-7,-6,-5
1511884680415892,1,-1,6,3,-7,2,8,2
1511884680423910,0,-3,0,0,0,-6,-8,8
1511884680423910,-3,0,1,4,10,9,6,2
1511884680438989,0,1,2,-3,-11,-3,1,1
1511884680438989,-4,-1,-14,-5,8,0,-5,-8
1511884680438989,3,-1,-2,-13,-5,0,-10,-1
1511884680438989,0,-1,4,9,-1,-5,10,5
1511884680452985,-3,0,-2,0,3,1,-1,-4
1511884680452985,0,5,4,2,-5,-1,6,3
1511884680461006,-5,-6,-1,-4,4,2,-1,-7
1511884680461006,7,2,-8,-5,-3,0,-4,2
1511884680476073,-3,-1,-4,-4,-3,-3,0,-5
1511884680476073,-1,-1,0,-1,4,5,5,-1
1511884680484201,5,5,10,8,5,-6,-4,6
1511884680484201,8,-1,15,16,3,-2,-5,-6
1511884680499102,-13,-8,-10,-12,-9,-3,3,-5
1511884680499102,-2,1,-8,-5,-2,-6,-7,-3
1511884680500112,1,0,2,-4,-7,-3,0,7
1511884680500112,-8,-2,-2,-1,1,0,-3,-14
1511884680513259,3,-2,-4,-6,-3,-16,-17,9
1511884680513259,-2,-3,-3,-3,-1,-2,0,0
1511884680521277,-1,2,-5,-3,-4,4,3,-2
1511884680521277,-4,1,4,3,2,-2,-7,-2
1511884680535380,2,1,10,9,3,1,-8,-1
1511884680535380,-4,0,0,0,0,-1,-3,0
1511884680543223,1,-2,-2,-1,-4,-5,-2,-4
1511884680543223,-4,-3,-11,-3,8,4,0,-1
1511884680558263,3,3,4,-5,-3,-1,5,3
1511884680558263,-3,-5,-1,3,5,0,-6,-4
1511884680559262,1,0,-5,-3,-6,2,1,-6
1511884680559262,-2,-1,4,5,0,-2,5,5
1511884680573299,5,0,5,8,7,2,-5,0
1511884680573299,-2,-5,-6,-4,-2,11,5,-2
1511884680581428,-2,2,-8,-7,-7,-9,-11,-4
1511884680581428,-2,-2,-7,-13,-6,4,1,-3
1511884680595500,3,7,9,11,4,3,3,2
1511884680595500,-2,-5,7,10,2,-3,1,0
1511884680603524,1,0,0,-4,-1,-7,-14,-4
1511884680603524,-2,-5,-3,-8,-3,20,17,4
1511884680619720,1,-2,-5,-2,-1,-7,8,1
1511884680619720,-1,3,3,3,0,0,3,9
1511884680619720,0,2,5,6,6,-4,-18,-6
1511884680619720,0,0,-6,-7,-13,-9,-11,4
1511884680633035,0,0,3,2,1,3,-8,-1
1511884680633035,-2,-3,-4,-8,-5,3,6,0
1511884680640874,-3,-4,0,-2,-3,-7,10,4
1511884680640874,1,2,-2,3,1,-4,-6,-1
1511884680655913,1,-4,-1,1,5,3,1,2
1511884680655913,2,0,0,-2,-6,-9,-7,-5
1511884680664040,-2,-1,-1,-1,1,6,5,0
1511884680664040,0,2,5,-2,-3,-6,-9,-2
1511884680678976,-3,1,-1,4,-1,-2,5,4
1511884680678976,6,1,-2,-11,-5,-4,-5,-6
1511884680678976,-6,-3,-6,-6,-1,8,13,7
1511884680678976,-3,-2,6,9,3,-8,-11,-1
1511884680693337,5,2,-2,-6,-2,5,21,12
1511884680693337,0,3,3,2,2,-4,4,3
1511884680701267,0,2,2,8,5,9,5,-4
1511884680701267,2,-3,0,-2,-4,-7,-7,0
1511884680715489,1,-4,-1,3,5,11,9,-4
1511884680715489,-8,-3,-8,-6,-5,-5,-16,-3
1511884680723430,3,-2,-4,-10,-6,4,6,-2
1511884680723430,1,-1,2,0,3,-5,1,3
1511884680738542,0,0,2,2,-1,6,3,-2
1511884680738542,0,1,2,11,4,-1,2,3
1511884680739363,-5,-3,-5,-7,-4,-3,-8,-8
1511884680739363,-1,1,1,3,-3,-1,4,-2
1511884680753447,-1,-1,-3,-7,-5,-4,-4,5
1511884680753447,-1,-1,-4,0,-2,-6,-15,-8
1511884680761421,3,-2,4,7,3,0,15,6
1511884680761421,0,3,1,2,4,4,1,-1
1511884680775530,-3,-1,-6,-6,-5,-9,-8,-7
1511884680775530,-2,-2,-2,1,1,1,0,1
1511884680783709,-1,-2,-3,-1,2,1,4,-2
1511884680783709,-2,-1,-1,-1,0,3,8,-4
1511884680798849,2,-2,0,6,5,-6,-7,-4
1511884680798849,-2,-2,4,-3,-7,-7,-4,-3
1511884680799882,0,1,1,1,0,4,13,7
1511884680799882,-1,-3,-5,-5,-2,-10,-14,1
1511884680813087,0,-1,0,-5,-1,-4,-4,-7
1511884680813087,5,1,2,6,1,1,6,5
1511884680821086,-8,0,-3,-4,-6,-5,-18,-6
1511884680821086,-1,0,-7,-5,0,-2,6,-1
1511884680836031,-4,-6,-1,-2,-1,1,-2,0
1511884680836031,-1,-1,4,4,2,-2,-3,-5
1511884680843983,5,0,6,11,4,15,13,9
1511884680843983,1,2,0,-1,-1,-2,-8,-3
1511884680858175,-4,0,0,-1,-6,-1,-5,-3
1511884680858175,-1,-1,-7,-8,-1,4,16,2
1511884680859175,-1,-1,-3,-2,2,-10,-15,-4
1511884680859175,-1,1,0,-1,-5,-1,6,-2
1511884680873215,2,1,-1,1,0,9,5,2
1511884680873215,-2,-2,4,4,1,-4,-4,-2
1511884680881236,0,-1,-5,0,4,-6,0,-2
1511884680881236,2,2,-1,-3,-3,-1,1,7
1511884680895289,-6,-3,-1,5,4,-5,-5,-6
1511884680895289,1,-1,-2,-7,-7,5,5,-2
1511884680903446,0,-2,1,0,1,-11,-10,0
1511884680903446,-2,-4,-4,-6,-7,5,5,1
1511884680918542,-1,1,-5,-5,0,1,-1,-8
1511884680918542,-1,2,-1,0,2,-4,-9,-2
1511884680919444,0,-2,2,3,0,0,9,-1
1511884680919444,-2,-1,3,1,0,2,-13,-4
1511884680932609,2,-2,-4,-5,-1,-2,3,4
1511884680932609,-2,-1,-5,-3,-1,1,-4,-3
1511884680941520,-2,1,7,14,6,7,-1,-6
1511884680941520,-2,-1,-5,-13,-5,-2,-3,-3
1511884680955732,1,-2,-5,-6,-2,-6,6,8
1511884680955732,0,-1,4,0,-8,1,2,0
1511884680963579,-2,0,-2,1,6,3,2,-2
1511884680963579,-2,-4,4,6,-1,0,-3,0
1511884680978619,3,3,-5,1,2,0,4,1
1511884680978619,-3,0,-3,-7,-7,-1,-4,-1
1511884680979620,1,0,-2,-2,-5,0,-8,-1
1511884680979620,-3,-2,-6,-9,-1,1,4,-1
1511884680992687,0,1,2,-3,0,-7,-12,1
1511884680992687,1,-1,7,11,3,3,2,1
1511884681001681,-1,0,-3,-3,-1,2,5,-1
1511884681001681,2,-1,-1,3,2,-9,-12,3
1511884681015752,-1,-2,-4,-5,-3,6,5,1
1511884681015752,-1,-2,0,-1,2,-4,-5,-2
1511884681023741,0,-4,0,-2,-5,3,1,-1
1511884681023741,0,0,5,5,5,4,8,-1
1511884681038997,0,-4,0,3,-1,-4,1,-2
1511884681038997,-1,-2,-5,0,5,0,-4,3
1511884681039880,1,1,3,-4,-7,-3,-4,4
1511884681039880,-4,-6,-6,-9,-5,-2,0,-5
1511884681053121,-1,-1,-1,3,1,-5,-3,0
1511884681053121,-1,0,4,-2,-1,-1,1,-2
1511884681061059,1,0,-2,-2,-1,-7,-9,-1
1511884681061059,-3,-5,2,9,4,2,-10,-1
1511884681076057,0,2,1,1,-2,12,20,3
1511884681076057,-3,-5,-11,-16,-3,-3,1,1
1511884681083391,-2,0,2,-3,-2,-5,-6,-2
1511884681083391,0,0,-1,3,-1,1,2,-6
1511884681098303,-3,-2,7,4,3,7,-1,-3
1511884681098303,0,-1,-6,-4,0,7,3,-2
1511884681099301,3,-3,-6,-4,-2,-6,-3,2
1511884681099301,-2,1,-3,-9,-4,-1,-6,0
1511884681113564,-1,-1,-2,0,4,6,9,-4
1511884681113564,3,5,6,4,-4,-6,-4,6
1511884681121678,1,2,0,-4,-3,4,5,0
1511884681121678,0,1,2,5,2,-7,-6,-2
1511884681135722,-1,1,1,2,-1,-2,2,-2
1511884681135722,-1,0,1,1,0,3,4,2
1511884681143655,-3,0,1,5,1,-1,0,-3
1511884681143655,-1,-2,-4,-7,-7,2,9,1
1511884681157807,-3,-2,-1,-7,-5,-14,-12,-2
1511884681157807,4,-4,-11,-8,-2,10,10,-2
1511884681166829,-9,1,-1,-1,0,-9,-12,-5
1511884681166829,6,3,4,9,8,2,12,3
1511884681172845,0,-2,4,2,2,0,-5,0
1511884681172845,-4,-3,9,13,3,-5,-6,-5
1511884681180957,-1,-1,-15,-13,-4,-1,4,0
1511884681180957,-6,-7,-9,-11,-1,-3,-9,-8
1511884681195983,0,1,2,-2,-2,8,20,2
1511884681195983,-3,-1,-2,-1,0,-7,-2,3
1511884681204026,1,-2,0,2,-1,-4,-15,-9
1511884681204026,3,4,8,11,4,8,11,5
1511884681218121,-1,-3,4,14,9,3,-10,-3
1511884681218121,-2,-3,-1,-6,-8,-6,-9,-7
1511884681225989,0,-2,-9,-15,-8,5,15,4
1511884681225989,1,0,-5,-6,-5,-8,-4,0
1511884681233007,1,-3,0,-1,-2,-2,-9,0
1511884681233007,-2,2,0,7,7,6,5,1
1511884681241028,0,-2,-1,1,3,0,-3,-2
1511884681241028,-4,1,4,4,-2,2,5,-3
1511884681255171,2,1,1,3,-3,-6,-4,1
1511884681255171,-1,2,-3,1,8,0,-4,0
1511884681264142,2,2,2,1,-3,2,9,5
1511884681264142,-2,-2,0,-4,-5,-5,-10,1
1511884681278146,-5,-7,-7,-9,-3,-14,-10,-6
1511884681278146,1,-6,-6,-7,-4,7,-1,0
1511884681286266,1,-2,1,5,2,5,4,1
1511884681286266,5,3,7,11,6,5,11,6
1511884681302388,-5,-1,-4,-5,-4,-1,-3,-4
1511884681302388,0,0,-6,-8,-3,0,5,0
1511884681303221,-2,-1,-4,-6,-4,-5,1,1
1511884681303221,1,2,6,7,3,0,1,0
1511884681315343,3,1,2,3,-1,7,11,4
1511884681315343,-2,0,4,8,4,-6,-13,-7
1511884681323355,-2,0,-2,-5,-5,0,12,5
1511884681323355,-3,-3,-13,-15,-4,-2,-1,-9
1511884681338476,-3,4,0,-5,-2,-1,-2,-1
1511884681338476,3,2,3,12,6,2,5,1
1511884681353426,0,-3,8,11,5,2,-6,-1
1511884681353426,-2,-1,3,0,-5,-9,-9,-5
1511884681361446,0,-1,-1,-4,-2,-2,-4,1
1511884681361446,-2,-4,-1,-6,-3,-4,-3,-2
1511884681362417,-2,1,0,1,-6,-5,-6,-4
1511884681362417,1,-3,-6,2,4,8,10,6
1511884681375451,-1,-3,-10,-15,-6,-2,-5,-3
1511884681375451,-4,-2,0,-3,-2,-4,0,0
1511884681383475,2,-3,7,8,5,-3,-7,-2
1511884681383475,5,1,3,7,2,3,-2,4
1511884681397533,-1,1,6,6,1,-1,-11,-7
1511884681397533,0,-5,-4,-1,-1,-3,2,0
1511884681406561,0,-3,-5,-9,-4,0,-2,7
1511884681406561,-3,-4,-10,-11,-4,-2,1,-2
1511884681421575,-3,-2,-6,-9,0,0,-3,-3
1511884681421575,1,3,6,0,-2,3,4,1
1511884681422578,1,3,7,10,6,3,6,-3
1511884681422578,-4,-3,1,4,-3,3,-6,-6
1511884681435612,-2,-5,-13,-8,-7,-10,-10,5
1511884681435612,0,0,-5,-12,-3,4,9,-1
1511884681443633,1,-1,-2,-4,1,-6,-5,-5
1511884681443633,2,0,4,8,5,4,1,0
1511884681457798,10,3,5,12,2,8,14,-3
1511884681457798,-16,-5,-1,-4,-7,-3,-6,-11
1511884681465994,4,-1,-3,-3,3,2,0,16
1511884681465994,-1,2,1,1,-1,-4,6,1
1511884681480905,0,-2,1,-3,-6,-2,-7,-6
1511884681480905,2,3,-3,2,1,-1,-1,1
1511884681481908,-3,-3,7,3,0,-2,-2,-8
1511884681481908,-1,0,-1,0,3,1,-7,0
1511884681494969,-2,-3,-7,-4,-2,3,-2,2
1511884681494969,0,1,-9,-13,-9,-3,9,4
1511884681503966,-1,0,1,1,1,-7,-13,-2
1511884681503966,3,4,6,8,2,3,5,2
1511884681518003,-3,-1,4,0,-5,-8,-2,-5
1511884681518003,5,0,5,11,10,3,1,2
1511884681526024,-4,-1,-7,-6,-8,-1,5,0
1511884681526024,-3,-1,-4,-16,-4,-2,-2,-6
1511884681541068,-4,0,1,1,0,1,2,0
1511884681541068,3,-2,-1,-3,-4,-4,-2,6
1511884681542067,-1,-1,-6,-5,1,0,1,0
1511884681542067,0,-2,-1,6,0,3,-3,3
1511884681555513,-3,4,3,2,4,0,3,-1
1511884681555513,3,0,2,4,-3,2,1,-1
1511884681563522,-1,4,5,9,2,0,-11,-4
1511884681563522,-4,-1,-1,0,-4,0,23,2
1511884681578457,4,1,0,2,1,0,-1,0
1511884681578457,1,-1,-6,-7,-2,-5,-8,-1
1511884681586478,-3,-2,-5,-4,1,5,6,-4
1511884681586478,-4,-2,-3,-2,-4,0,2,-4
1511884681601518,0,-2,-2,2,2,-3,-13,0
1511884681601518,0,1,8,5,4,-1,1,3
1511884681601518,-1,-1,2,0,-5,-6,4,-2
1511884681601518,-1,-2,2,4,5,-4,-4,1
1511884681615883,-2,-4,-8,-6,-3,5,8,2
1511884681615883,-2,-1,-5,-11,-4,-7,-4,-2
1511884681623713,1,-1,0,0,-3,5,2,1
1511884681623713,-2,-6,0,-5,-5,-5,-12,1
1511884681637940,1,1,3,0,-1,0,4,0
1511884681637940,-3,-1,5,9,7,3,-3,-5
1511884681645898,1,1,-1,3,5,2,13,1
1511884681645898,2,2,3,-3,-7,-8,-16,-1
1511884681660826,1,-3,0,3,3,4,16,4
1511884681660826,-1,-2,-9,-12,-9,-1,-4,-3
1511884681661826,-2,-2,-2,-8,-4,4,2,-1
1511884681661826,0,-2,-11,-2,2,-3,-3,-4
1511884681675867,0,2,4,-6,-2,0,-3,3
1511884681675867,0,1,11,15,6,-2,-1,-4
1511884681683912,-3,-2,-8,-2,-1,-5,-5,-3
1511884681683912,2,-3,-2,-5,-1,6,2,1
1511884681697968,0,1,5,4,1,1,0,-4
1511884681697968,0,5,4,3,5,3,1,4
1511884681705989,-1,1,2,-2,-5,0,-4,-2
1511884681705989,-2,-2,-3,-4,-7,-2,3,-1
1511884681721108,-2,-3,-6,-5,2,0,0,-3
1511884681721108,-2,1,2,3,0,3,1,-3
1511884681722035,1,-2,5,6,6,-6,-4,8
1511884681722035,0,5,4,4,6,2,-5,-7
1511884681735287,-1,1,4,5,-2,3,7,-10
1511884681735287,-2,-6,-15,-11,-12,-7,-4,3
1511884681744186,0,-2,-2,-8,-3,-1,-5,-3
1511884681744186,1,3,6,10,12,5,0,-4
1511884681758327,3,1,4,7,4,6,-2,0
1511884681758327,1,0,2,2,-3,-7,-4,-1
1511884681766487,0,-4,-4,-3,6,2,-2,-1
1511884681766487,-2,-5,-1,-2,-17,-9,5,2
1511884681781501,-3,-2,-4,-6,4,-1,-8,1
1511884681781501,-1,-3,-3,-3,-2,5,5,3
1511884681782415,-1,-2,4,6,2,-3,-2,-2
1511884681782415,0,2,-8,0,4,3,-1,2
1511884681795575,1,-4,-1,-4,-4,-8,-1,4
1511884681795575,0,0,0,-2,-4,-2,0,1
1511884681804473,-1,3,0,1,7,6,-5,-7
1511884681804473,0,-2,4,2,-1,-3,-2,-5
1511884681818511,2,-1,-5,-4,-5,-1,0,-3
1511884681818511,0,0,-7,-6,4,2,-3,-3
1511884681826535,-1,-1,1,0,-10,-4,0,-1
1511884681826535,-1,0,-1,-3,-2,1,-2,-3
1511884681840589,0,1,1,2,6,-2,1,-2
1511884681840589,1,-2,5,2,2,-11,-8,6
1511884681849593,-1,-1,-3,0,-3,3,-4,-1
1511884681849593,0,0,-6,-8,2,-3,6,10
1511884681855609,-2,2,0,2,-4,-3,-2,2
1511884681855609,0,1,2,-1,0,7,2,-3
1511884681865040,-1,1,-5,3,1,-3,-2,-6
1511884681865040,-2,-2,-5,-9,-7,-11,-4,1
1511884681877987,0,-2,-3,0,0,1,3,-1
1511884681877987,-2,-2,2,2,-4,-2,2,-2
1511884681886995,1,2,1,0,-1,1,0,8
1511884681886995,-2,0,1,1,4,4,-1,-9
1511884681900054,-4,2,-2,-1,-2,-3,-1,2
1511884681900054,-2,-4,-7,-7,-2,4,1,1
1511884681909187,1,-3,-1,-7,-2,5,13,4
1511884681909187,-1,0,6,4,0,-7,-9,-2
1511884681915273,-1,0,0,3,3,9,8,3
1511884681915273,-2,-2,-4,1,-1,-2,-3,-7
1511884681924230,-2,-3,-4,-6,-7,-3,-1,0
1511884681924230,1,1,-2,-6,-1,-1,-3,0
1511884681938312,-1,-6,-3,-1,-1,-5,-2,9
1511884681938312,0,2,3,4,0,1,-2,-2
1511884681947313,0,-1,0,2,3,-5,4,3
1511884681947313,1,1,1,8,0,-2,4,4
1511884681960371,-2,1,0,-7,-10,-1,2,-3
1511884681960371,-1,0,-1,1,12,8,2,-1
1511884681969350,1,0,6,1,-3,-3,-3,2
1511884681969350,-1,-1,-1,3,0,2,-1,1
1511884681975365,0,2,-1,-3,3,3,-4,0
1511884681975365,-1,-1,-2,-6,-13,-3,1,1
1511884681984419,0,1,3,3,6,-3,-1,-4
1511884681984419,-1,-3,0,2,6,6,-13,-7
1511884681998545,1,-1,-4,-5,-7,-8,-3,2
1511884681998545,0,0,4,1,2,1,-1,0
1511884682006478,-3,-4,-10,-8,-4,-7,-4,5
1511884682006478,-1,0,2,0,-6,-3,-1,-6
1511884682020616,-4,-1,1,5,-2,-10,-7,-2
1511884682020616,0,-1,0,1,13,24,17,-3
1511884682029538,-6,0,-2,-5,-5,-5,-10,-14
1511884682029538,-2,1,2,3,6,0,13,13
1511884682035557,1,1,3,3,3,9,17,-10
1511884682035557,4,0,0,-1,0,-7,-8,7
1511884682044579,0,-2,0,-1,-3,-5,11,3
1511884682044579,1,-2,-3,-3,1,5,-12,-10
1511884682057633,-3,-3,1,-2,-8,5,-11,-8
1511884682057633,-1,0,3,9,13,-4,-1,-7
1511884682066637,0,0,-3,2,1,4,-7,-9
1511884682066637,-4,-4,-3,-13,-8,1,-4,-1
1511884682080792,1,-1,0,2,1,-3,3,2
1511884682080792,-1,-3,-4,-2,-8,-8,-5,-3
1511884682089699,0,-1,-1,-4,-12,-4,-2,3
1511884682089699,1,1,-2,-1,2,-6,11,7
1511884682095717,0,-3,-1,2,7,1,-2,4
1511884682095717,-3,-2,0,1,0,1,-11,3
1511884682104739,1,0,-6,-3,1,11,2,-3
1511884682104739,10,0,2,0,-7,-6,4,8
1511884682117947,-13,0,2,1,2,1,-3,-29
1511884682117947,3,-3,-7,-8,-12,-8,-4,22
1511884682126797,1,4,4,1,3,5,16,-10
1511884682126797,0,-3,0,3,0,-4,-15,4
1511884682140844,-2,-2,-5,-10,-5,11,9,1
1511884682140844,-2,-4,0,1,-6,-20,-25,-17
1511884682149950,0,-2,-2,1,-1,5,-2,0
1511884682149950,-2,0,-1,-6,-3,1,-6,5
1511884682155912,2,-2,2,6,0,-5,-3,6
1511884682155912,-5,-5,-6,-8,-2,-2,-3,-7
1511884682164982,-2,1,2,-1,-2,-7,-9,-2
1511884682164982,1,-2,-4,-3,-3,6,10,-2
1511884682178063,-1,2,2,3,0,-11,-4,-12
1511884682178063,-14,-4,-1,-1,-2,6,-5,4
1511884682187138,5,1,-3,0,3,1,12,1
1511884682187138,-1,-3,-3,-2,-4,-11,-5,-6
1511884682200238,1,-3,-3,-2,-9,-19,-18,16
1511884682200238,3,3,-1,-1,4,17,21,-8
1511884682209230,4,-3,0,3,0,2,0,0
1511884682209230,-19,-1,-3,-1,6,8,16,-25
1511884682215249,-5,-3,-6,-4,0,-5,-3,-9
1511884682215249,0,3,4,3,1,3,7,10
1511884682224279,-2,2,1,-3,-2,5,4,-12
1511884682224279,3,-3,0,0,1,0,6,8
1511884682238336,-12,-1,2,-1,1,-1,-16,-3
1511884682238336,4,5,4,4,0,7,22,-11
1511884682247505,-1,-1,0,1,2,-2,-8,2
1511884682247505,-1,1,-1,-2,-2,-10,-6,0
1511884682260601,13,0,1,1,3,-3,-6,10
1511884682260601,-4,-1,-2,3,0,6,-3,-9
1511884682269507,3,-1,-2,1,-1,-4,-9,9
1511884682269507,8,2,1,1,1,13,21,-6
1511884682284714,-5,-2,0,1,-6,4,7,10
1511884682284714,4,0,-2,-3,4,-9,3,8
1511884682285619,4,-3,-3,-3,-3,-3,-18,8
1511884682285619,-10,-3,1,3,1,5,10,-20
1511884682297676,12,0,0,0,1,3,-6,9
1511884682297676,12,-1,2,0,-4,0,10,12
1511884682306613,0,-3,-7,-9,-4,6,-1,-2
1511884682306613,0,3,1,1,2,-1,-7,14
1511884682320823,-4,0,3,1,2,-3,-8,-1
1511884682320823,10,4,5,6,1,0,4,3
1511884682329667,-26,-4,6,5,5,-7,4,-2
1511884682329667,39,7,-1,-1,-1,5,5,-1
1511884682343801,-14,4,-5,-7,-3,8,23,-10
1511884682343801,-5,-12,-1,-2,-5,-9,-18,2
1511884682350723,-1,0,2,5,3,-1,5,-14
1511884682350723,-6,6,1,5,6,-1,2,-2
1511884682357900,11,11,-1,-4,-3,1,3,7
1511884682357900,-13,-25,-14,-1,3,-3,-9,1
1511884682367042,3,0,-5,-11,-4,-2,-4,8
1511884682367042,-16,-7,-4,-7,-3,-3,-13,-17
1511884682380212,4,-11,-5,-11,-10,-9,-23,3
1511884682380212,-3,11,16,16,7,11,26,-5
1511884682389137,6,-2,9,14,-3,-10,-5,8
1511884682389137,-3,7,3,11,12,-7,-15,-3
1511884682404178,5,-23,-13,-10,-10,3,4,16
1511884682404178,4,12,-9,-28,-7,4,-9,-4
1511884682410163,-2,-2,0,10,5,0,4,0
1511884682410163,-4,-5,-8,-6,-7,-2,-5,9
1511884682418186,2,7,2,0,6,-1,10,-11
1511884682418186,0,6,2,15,-1,-2,4,-5
1511884682427207,0,-7,-8,-25,-15,-8,0,0
1511884682427207,-4,-3,-6,-10,-3,1,4,-5
1511884682440376,-1,2,5,-1,5,6,8,8
1511884682440376,1,6,-1,12,16,4,-5,0
1511884682449261,1,11,20,25,6,4,2,-14
1511884682449261,-11,-10,5,15,2,0,-4,12
1511884682463302,3,4,-5,-2,1,-14,-14,-12
1511884682463302,-7,-11,-13,-28,-15,-3,12,6
1511884682472323,-4,-2,1,1,6,4,-6,-2
1511884682472323,3,-4,-1,-6,-15,1,9,6
1511884682478448,-3,0,-5,-3,2,0,13,-3
1511884682478448,-1,4,-4,-6,-25,-14,-23,-7
1511884682486655,5,6,2,-6,7,8,-6,-1
1511884682486655,-4,-20,7,3,1,-6,-10,-2
1511884682500712,-3,4,12,21,14,5,1,-4
1511884682500712,-7,-8,-19,-27,-5,-5,-1,2
1511884682509848,-4,-4,-14,-6,-3,-3,1,5
1511884682509848,6,9,14,11,-7,4,-4,2
1511884682522884,-1,-2,-2,-7,4,5,5,0
1511884682522884,-3,-1,1,9,0,-6,-9,-10
1511884682531906,0,-3,-16,-17,-13,-1,6,5
1511884682531906,-5,-4,-9,-19,-21,-11,-12,2
1511884682538096,0,1,7,18,27,14,17,0
1511884682538096,1,3,15,7,1,3,-3,-5
1511884682546946,2,5,2,6,3,-3,-3,-9
1511884682546946,-8,5,-2,-2,-1,11,-17,1
1511884682559979,11,-3,-9,-10,-10,8,25,16
1511884682559979,3,2,6,3,6,6,-11,-24
1511884682569003,-8,-6,-6,-8,-6,-12,-8,5
1511884682569003,3,1,5,3,8,15,28,-3
1511884682583040,-2,2,4,2,3,2,-18,-10
1511884682583040,-3,-1,0,9,-6,-7,-1,-5
1511884682592064,4,2,-2,-20,-8,21,28,-1
1511884682592064,13,-1,-4,1,4,-27,-35,15
1511884682598109,-9,1,-3,-1,-11,0,-1,9
1511884682598109,5,-11,0,5,4,-5,-5,14
1511884682607105,-14,-6,-5,-7,-26,-11,0,-6
1511884682607105,-1,5,-1,3,26,4,1,1
1511884682620141,-3,-3,0,6,9,1,0,-6
1511884682620141,-3,8,3,1,3,6,11,-4
1511884682629165,18,-2,3,6,0,-2,-3,22
1511884682629165,-4,5,-1,-3,-4,4,11,-15
1511884682643202,20,-4,-2,-1,-11,-8,-8,12
1511884682643202,-21,-13,-2,-2,2,-1,1,-30
1511884682650221,4,6,4,10,11,7,0,-6
1511884682650221,-13,-6,-5,-9,-6,0,4,9
1511884682658241,12,-3,-4,0,1,-3,-4,-10
1511884682658241,23,3,-1,-2,-6,-4,2,22
1511884682667266,-6,-2,2,2,9,1,0,-7
1511884682667266,3,-3,-3,-2,-3,-6,2,-8
1511884682696342,-15,-1,-1,-2,-8,-2,-25,-10
1511884682696342,0,1,5,-1,-6,-5,-12,6
1511884682703393,-3,-5,-6,-1,-2,-10,2,0
1511884682703393,4,4,0,-1,-2,-1,-3,-1
1511884682704365,-8,-2,-1,2,-4,-3,8,-1
1511884682704365,2,4,3,7,14,3,14,8
1511884682712543,3,-3,-4,-2,8,8,-3,1
1511884682712543,-3,-2,0,0,-4,-3,-5,-7
1511884682717702,-3,1,0,-3,-9,-1,-7,-7
1511884682717702,3,-1,-2,0,5,-3,-3,10
1511884682726951,-3,1,0,3,0,-5,0,-10
1511884682726951,-2,-6,-6,-4,1,4,5,3
1511884682740988,-3,1,0,-9,-10,-5,2,-5
1511884682740988,12,6,1,7,8,2,-3,11
1511884682750132,-11,8,11,10,3,2,1,-28
1511884682750132,-6,-7,-12,-8,-6,-9,-3,8
1511884682763358,-12,1,-1,0,4,6,-5,-17
1511884682763358,-2,-1,-4,-3,-5,5,14,2
1511884682772181,3,0,0,-2,0,-8,-6,-1
1511884682772181,6,0,0,-2,-4,0,-3,10
1511884682778194,-5,-3,0,1,0,-2,10,-7
1511884682778194,-1,4,1,-2,-3,-6,-8,-2
1511884682787219,-2,-11,-6,-1,-1,-4,-3,21
1511884682787219,2,4,3,3,3,5,2,-7
1511884682800254,7,-3,-3,-2,3,-2,-3,14
1511884682800254,-3,0,-1,-5,-5,4,-3,-7
1511884682809277,1,-1,1,0,0,9,-3,4
1511884682809277,1,-4,0,-4,-3,-3,-5,-2
1511884682823314,-4,0,1,2,2,-3,-4,-4
1511884682823314,-2,0,-2,-6,-16,-3,6,-4
1511884682832337,-5,0,0,3,13,-2,0,-3
1511884682832337,1,1,2,-1,-1,6,15,-3
1511884682838365,-4,-2,4,7,4,-2,-12,-6
1511884682838365,-3,-3,0,-5,-4,-3,-5,-5
1511884682847377,-3,-4,-4,-3,-8,4,7,6
1511884682847377,-1,7,4,2,-5,-16,-17,-11
1511884682860412,14,2,5,3,8,8,6,26
1511884682860412,-7,-2,-5,-1,3,3,-8,-10
1511884682869437,2,-1,-1,-6,-7,-5,10,6
1511884682869437,-4,-4,-1,6,9,1,-3,-17
1511884682883518,5,-2,1,-2,-7,-3,-5,9
1511884682883518,-9,-3,-6,-1,0,2,3,-10
1511884682891698,7,-1,-4,-6,7,7,17,7
1511884682891698,2,1,0,-1,-8,-4,4,-3
1511884682897811,-7,1,-4,-3,-2,-2,7,-10
1511884682897811,2,2,2,3,-2,-2,-18,6
1511884682906734,-1,-2,-2,-2,-2,-6,-13,-11
1511884682906734,1,-2,-2,-1,6,8,17,8
1511884682952829,-3,0,-5,-3,-1,-5,-10,-4
1511884682952829,-5,-3,-2,-1,-2,-7,-1,1
1511884682954831,-2,2,0,-1,-10,-10,-10,1
1511884682954831,2,3,9,7,7,15,8,2
1511884682965863,-2,-1,-10,-9,-2,-2,5,1
1511884682965863,7,0,3,1,0,3,16,1
1511884682973884,-4,-2,-1,5,0,-13,-28,3
1511884682973884,2,0,-6,-14,-4,13,19,11
1511884682989105,-4,-5,0,-2,5,8,15,-12
1511884682989105,2,4,4,0,-3,-5,-2,9
1511884682990927,-2,-11,-4,4,6,2,5,-2
1511884682990927,1,1,-1,1,-3,-5,-6,-8
1511884683004094,-1,-2,-3,-5,-10,-10,-7,5
1511884683004094,-1,-4,-10,-7,6,3,14,3
1511884683004094,-3,-1,2,5,-15,-6,-14,-10
1511884683004094,3,-1,0,-5,3,-5,-2,9
1511884683019148,-3,-1,1,0,-9,-7,-14,-12
1511884683019148,1,-1,-1,8,17,6,15,9
1511884683019148,2,6,5,-1,-11,4,-13,-9
1511884683019148,-3,-7,-15,-8,-7,-8,3,-3
1511884683033183,-2,1,-1,0,0,-1,-10,-6
1511884683033183,3,1,10,5,-2,-1,12,5
1511884683042204,-1,-2,-7,-4,1,-4,-7,-6
1511884683042204,-4,0,-5,-11,-15,-9,-16,-6
1511884683056359,-4,-4,-4,-8,6,4,1,1
1511884683056359,-4,1,3,1,8,21,-8,-7
1511884683058364,3,2,9,11,-9,0,12,-5
1511884683058364,-1,0,8,17,21,1,-6,0
1511884683071398,-3,0,-13,-14,-20,-8,-3,-5
1511884683071398,-6,-3,-8,-16,-5,-5,2,-5
1511884683077414,1,-1,-1,8,14,3,5,3
1511884683077414,-2,4,-1,-7,-19,-8,-8,-5
1511884683094575,3,5,18,35,22,10,29,11
1511884683094575,1,-5,-11,-8,-9,-22,-39,-7
1511884683096501,-3,-1,-4,-11,0,12,6,-2
1511884683096501,1,-6,-3,-10,-11,1,-1,4
1511884683107513,-3,3,2,0,-3,-2,-14,-9
1511884683107513,0,1,0,3,-3,-8,8,-2
1511884683116637,1,1,-3,-7,-6,-7,5,2
1511884683116637,-4,1,-1,15,17,5,-13,-5
1511884683122539,2,3,3,-20,-23,-1,5,-1
1511884683122539,1,-4,1,17,21,4,3,-3
1511884683132582,-6,-1,-13,-18,-15,-12,-19,-9
1511884683132582,-5,-1,1,-1,-3,-6,-5,-7
1511884683137759,-3,0,0,9,22,9,2,2
1511884683137759,-2,1,1,-7,-24,-8,-6,-1
1511884683147601,1,-1,4,0,14,2,4,3
1511884683147601,-1,0,-1,4,-6,2,7,-2
1511884683160753,-1,-8,-11,-17,-11,5,5,5
1511884683160753,1,1,2,-2,-2,-2,-3,-3
1511884683169660,-2,3,2,5,0,3,0,-4
1511884683169660,0,1,9,8,-2,6,3,-3
1511884683182719,2,3,-3,-3,5,-4,-1,-2
1511884683182719,2,-2,-3,4,6,8,0,3
1511884683191719,0,-4,0,-6,0,1,6,1
1511884683191719,-5,-4,-5,-2,0,-12,-15,-10
1511884683206759,6,-2,-5,-1,-5,-7,1,4
1511884683206759,-7,-1,0,-6,-11,-3,-3,-6
1511884683208768,-3,1,2,1,4,2,-2,0
1511884683208768,-3,0,3,6,1,-4,-2,-3
1511884683220829,0,-1,-6,-10,-2,7,4,-5
1511884683220829,-2,2,-2,-1,-3,-2,-8,3
1511884683229828,6,2,-1,3,2,2,9,16
1511884683229828,3,-3,-7,-9,-3,3,4,-4
1511884683243876,-4,2,5,7,-5,-11,-16,-5
1511884683243876,-1,0,-4,-10,0,-3,-6,-4
1511884683250878,-1,2,2,7,-3,-6,2,-3
1511884683250878,1,-1,-2,-13,-9,2,-2,2
1511884683266920,2,-1,3,17,19,8,5,2
1511884683266920,-1,1,1,-10,-9,-9,-6,-6
1511884683267923,0,-2,-5,-3,-2,2,1,1
1511884683267923,-2,-3,1,1,0,-5,5,0
1511884683280983,-4,-2,-1,2,-4,-5,-6,-6
1511884683280983,-2,-1,-3,-3,-1,2,8,0
1511884683288985,0,-2,-1,4,5,2,8,3
1511884683288985,1,1,-4,-2,0,6,5,4
1511884683303014,-7,-9,-6,-10,-4,-2,-6,-5
1511884683303014,5,5,2,2,1,0,4,11
1511884683312038,-4,-1,-1,-3,-3,0,-5,-6
1511884683312038,0,3,8,8,5,-1,-2,-6
1511884683327078,3,-1,3,15,12,-4,-6,2
1511884683327078,3,-3,-7,-19,-20,3,14,8
1511884683328082,-5,-3,-1,6,12,3,-19,-7
1511884683328082,-1,-2,-4,-8,-2,6,5,7
1511884683340304,1,3,1,1,-2,0,-3,-6
1511884683340304,-4,0,4,6,-2,-8,-14,-12
1511884683349217,-4,-6,-6,0,0,0,4,-4
1511884683349217,2,-6,-4,-8,-8,0,-3,13
1511884683363534,-4,0,0,0,2,-4,1,-2
1511884683363534,-5,-9,0,4,7,7,12,2
1511884683371516,7,7,1,-4,-5,-1,4,14
1511884683371516,2,4,-2,-3,2,-9,-5,-5
1511884683386547,-9,-10,-4,-9,-8,3,7,-3
1511884683386547,6,1,-3,-1,0,-8,-8,0
1511884683388443,0,5,7,8,8,11,11,-4
1511884683388443,-5,-11,-7,1,1,-5,0,-1
1511884683400500,1,4,0,-6,-5,-6,-4,4
1511884683400500,-3,1,-1,0,3,4,3,-7
1511884683409499,-1,-5,-2,-5,-10,7,8,5
1511884683409499,5,3,5,15,16,2,-7,0
1511884683422535,0,2,-1,-3,-6,-11,-9,-3
1511884683422535,-2,1,-2,-15,-7,2,7,0
1511884683431662,1,-2,3,9,-4,1,-4,-3
1511884683431662,-5,-5,-7,-9,-2,1,-4,-1
1511884683445596,-4,-1,-6,-6,5,8,7,-2
1511884683445596,1,2,0,6,-2,-3,-3,2
1511884683454619,2,2,4,4,5,-5,-8,-3
1511884683454619,4,-2,1,3,-5,2,8,1
1511884683460638,-6,-3,-1,0,-2,-4,-12,1
1511884683460638,2,2,-2,-5,0,2,3,-1
1511884683469785,-3,-2,-5,-12,-5,-5,-1,-3
1511884683469785,1,1,3,2,3,-2,-3,-5
1511884683482822,0,4,8,5,-1,3,6,4
1511884683482822,-1,-9,-1,10,5,-1,-6,-3
1511884683491847,-1,2,-4,-4,-4,-8,-2,2
1511884683491847,-11,0,-2,-10,-4,4,0,-14
1511884683507001,14,1,-1,-6,-6,-9,-6,19
1511884683507001,-3,2,6,10,7,2,-6,-7
1511884683508890,2,-3,-6,-3,-3,-5,-6,-4
1511884683508890,-6,-2,-7,-9,-2,-3,-4,-3
1511884683520965,0,-3,5,10,5,2,10,-3
1511884683520965,3,0,-2,1,-7,-7,-11,-2
1511884683529945,2,-2,-4,-3,3,0,9,4
1511884683529945,1,2,3,6,3,0,0,6
1511884683542979,-2,-4,-8,-19,-10,5,-2,-5
1511884683542979,3,-1,-1,3,1,-5,-4,5
1511884683552003,0,3,6,1,-4,4,1,-7
1511884683552003,0,3,10,15,6,2,2,2
1511884683567044,-2,-2,-10,-1,5,3,1,-4
1511884683567044,-6,-6,-6,-14,-6,-2,1,-2
1511884683568046,3,0,5,3,3,-1,-3,-2
1511884683568046,0,-4,-6,-1,-2,-4,-2,10
1511884683580078,-4,0,4,4,-1,-2,-3,-6
1511884683580078,-2,-3,0,1,4,-1,-4,-7
1511884683589101,2,4,-4,-13,-3,5,8,1
1511884683589101,-3,-9,5,5,0,-9,-7,-2
1511884683604141,0,2,5,15,0,-1,1,0
1511884683604141,-6,-2,-9,-14,-5,-2,-11,1
1511884683610160,5,-1,-2,-10,-4,1,4,0
1511884683610160,-5,2,-3,1,5,-5,-6,-8
1511884683627207,2,-1,4,2,-2,12,6,5
1511884683627207,1,0,5,7,2,3,-3,-1
1511884683628205,-4,-3,-9,-3,6,-5,-9,0
1511884683628205,3,2,-2,-4,-5,-2,1,-1
1511884683640369,0,-2,-4,-7,-1,-7,-9,-6
1511884683640369,-1,1,1,-2,-4,3,11,2
1511884683649389,-4,-2,2,7,5,0,6,-1
1511884683649389,3,3,3,-2,-7,-1,-3,-1
1511884683663429,-2,0,0,3,2,-1,0,-3
1511884683663429,1,-2,-4,-11,-6,-4,-1,-2
1511884683670447,-2,-3,-1,4,7,5,5,4
1511884683670447,-2,0,-1,-2,2,4,-1,-6
1511884683686490,0,0,4,6,2,-3,-4,4
1511884683686490,-2,2,1,5,3,1,-2,-9
1511884683688492,-2,-1,0,3,1,-2,-7,-4
1511884683688492,2,2,-1,-2,-4,2,2,-1
1511884683700538,-1,-2,-5,-3,1,3,1,-6
1511884683700538,1,-1,-1,2,4,-1,7,2
1511884683709550,-2,-3,5,0,-8,-5,-10,-5
1511884683709550,2,-1,-3,4,6,-1,4,3
1511884683723586,1,1,-5,-11,-8,-2,-3,-3
1511884683723586,-1,-3,-1,3,-5,-7,-1,1
1511884683730608,-1,-2,-4,0,2,4,-3,-3
1511884683730608,1,3,2,-1,-4,-1,9,3
1511884683746650,-3,-1,-3,-5,8,1,3,0
1511884683746650,2,-2,-1,2,-4,-2,-14,-1
1511884683748652,-2,-2,-9,-9,-5,-4,2,-1
1511884683748652,1,-2,-6,-11,-12,-1,-2,-4
1511884683760684,0,1,6,10,7,0,1,-1
1511884683760684,-3,2,5,8,2,4,1,0
1511884683769708,-2,2,2,1,-1,-1,-4,0
1511884683769708,-1,-2,7,7,1,2,-9,0
1511884683783746,1,-2,-5,-7,-12,-2,3,6
1511884683783746,-1,-4,-4,-3,2,1,4,0
1511884683790764,-1,-1,1,3,1,-3,1,1
1511884683790764,-1,1,0,0,-1,-5,-3,-2
1511884683806807,1,0,0,-8,-5,-1,-1,-1
1511884683806807,-1,-2,-5,-2,0,0,0,-2
1511884683808812,0,-2,2,4,3,1,12,2
1511884683808812,-1,1,1,1,1,-1,6,6
1511884683820844,-2,-5,-4,-5,-10,-10,-16,9
1511884683820844,0,1,0,1,0,-4,-9,-1
1511884683829913,1,-1,0,-5,-3,3,5,2
1511884683829913,1,-1,-2,2,5,3,-3,-4
1511884683843991,0,1,5,4,-2,-1,6,-1
1511884683843991,0,0,8,8,-2,-1,5,1
1511884683850112,0,2,1,-2,2,-3,-11,-3
1511884683850112,0,-2,-6,-10,0,3,6,0
1511884683867163,0,0,-4,-6,-4,-1,2,0
1511884683867163,-1,0,2,3,1,3,1,-1
1511884683868132,1,1,1,3,-1,-4,-2,0
1511884683868132,-1,-1,-1,1,3,1,0,-3
1511884683880284,0,0,-1,3,2,3,5,-4
1511884683880284,-1,-3,-4,-5,-3,-2,2,1
1511884683889183,-3,-4,-3,-2,-5,-3,-10,-2
1511884683889183,-2,3,5,2,4,0,-2,-3
1511884683903370,0,0,2,2,0,0,1,1
1511884683903370,-2,-1,-3,-4,1,0,0,-1
1511884683910351,-2,-3,-5,-5,-6,-1,-7,-4
1511884683910351,-1,-1,-2,-3,1,-4,-9,-2
1511884683926434,0,1,5,9,4,1,1,-3
1511884683926434,3,3,3,4,7,6,19,4
1511884683928399,-2,1,2,-3,-9,-7,-7,-5
1511884683928399,-2,-1,1,2,-2,2,3,3
1511884683940435,0,-2,-8,-9,-5,-2,-4,-1
1511884683940435,-2,-4,-6,-2,3,5,-8,-5
1511884683949455,-1,-1,-1,-8,-1,0,2,0
1511884683949455,0,0,1,4,-3,-2,0,-4
1511884683962530,2,5,4,7,4,2,5,0
1511884683962530,1,0,0,3,3,-1,-1,-2
1511884683972514,1,-2,0,4,3,-1,1,0
1511884683972514,0,-4,-1,-6,-4,-2,-1,3
1511884683986552,-3,-2,-5,1,7,3,8,-4
1511884683986552,0,-2,-2,-4,-7,-8,-8,-5
1511884683992567,2,2,-3,1,3,12,10,-2
1511884683992567,-1,-5,-4,0,0,0,7,8
1511884684000588,-2,-3,0,-2,-5,-10,-11,-2
1511884684000588,-2,1,7,10,3,-1,-11,2
1511884684009613,1,0,-5,-7,-5,-6,8,0
1511884684009613,0,-1,-4,-8,-4,0,-3,-3
1511884684022673,-3,0,5,8,0,2,-4,-4
1511884684022673,-1,0,-8,-13,5,3,-5,0
1511884684031671,-1,-3,6,4,0,-2,-2,1
1511884684031671,0,1,-2,-3,-2,2,4,0
1511884684045811,1,1,1,3,0,3,2,-1
1511884684045811,2,-1,-1,3,-3,-2,3,2
1511884684052726,-2,-3,-3,-2,-2,0,-4,-1
1511884684052726,-2,0,0,1,0,0,-4,-3
1511884684060750,-3,-3,-1,-3,-5,-1,-2,0
1511884684060750,0,1,0,-2,-2,0,3,-1
1511884684069771,0,-4,-6,-4,-2,-7,-3,3
1511884684069771,0,0,1,0,-1,6,-2,-7
1511884684082809,4,2,1,-3,1,1,2,7
1511884684082809,0,-1,0,-1,-4,-1,7,-3
1511884684091830,-2,0,-1,2,1,-1,-4,-4
1511884684091830,-3,-1,-5,-6,-4,-4,-5,-5
1511884684105870,-1,-1,1,4,3,1,3,-3
1511884684105870,3,1,5,4,2,-5,-5,2
1511884684112889,-2,-2,5,11,3,-3,-3,0
1511884684112889,0,-3,-6,-9,-6,2,1,-1
1511884684128931,-2,-4,-3,-8,2,-1,-6,-6
1511884684128931,-2,0,-2,6,-1,0,7,-1
1511884684130934,0,-1,-2,-13,-4,-1,-15,-4
1511884684130934,-2,-1,1,8,6,0,-1,-1
1511884684142969,1,-2,-6,-10,-10,-9,-8,2
1511884684142969,0,0,1,-2,-4,-3,6,-1
1511884684152023,0,1,-1,3,5,-2,5,2
1511884684152023,0,0,-1,-3,-3,-2,3,0
1511884684166160,-2,0,2,3,4,-1,-2,-1
1511884684166160,-1,0,1,-2,-3,-3,1,1
1511884684173046,-1,1,1,3,1,2,-5,-3
1511884684173046,-2,1,-2,-6,-5,-2,3,2
1511884684189089,1,-3,-6,-2,1,-2,0,-1
1511884684189089,-2,-2,0,-3,-1,-1,-1,-2
1511884684191094,-1,1,4,1,-1,-1,-1,-5
1511884684191094,1,-1,3,7,5,1,-1,4
1511884684203126,-1,-3,-7,-5,-3,1,3,-2
1511884684203126,-2,-1,-6,-2,-1,2,-4,-1
1511884684212150,-2,0,-4,-5,-4,3,4,4
1511884684212150,0,-1,1,-1,0,-13,-8,-5
1511884684226190,1,-1,4,8,3,5,8,2
1511884684226190,1,-2,-3,1,3,0,-11,3
1511884684233205,-1,-1,-1,0,-3,0,1,-5
1511884684233205,-3,-1,-1,-1,-6,-1,-5,1
1511884684249276,1,0,2,3,3,-5,1,-2
1511884684249276,0,0,-2,-5,1,0,-3,0
1511884684251254,3,2,5,6,2,0,7,4
1511884684251254,-1,-1,-6,-7,-2,3,-1,0
1511884684263409,-1,1,-7,-7,-6,-2,3,1
1511884684263409,-2,-1,2,2,1,-1,-3,-6
1511884684272312,2,-1,3,5,4,1,-1,2
1511884684272312,2,3,6,4,4,1,6,-2
1511884684286540,-3,-2,-2,-5,-3,0,-5,2
1511884684286540,-3,-2,-9,-8,-6,-1,5,-1
1511884684293383,0,-1,-3,-3,-6,-1,-2,-6
1511884684293383,0,1,5,7,4,2,-2,0
1511884684309408,-1,-1,0,2,1,3,0,-4
1511884684309408,-2,0,2,0,0,1,2,2
1511884684310415,-5,-1,-2,0,-2,0,-6,-4
1511884684310415,-2,-4,-8,-9,-5,-9,-3,-1
1511884684323446,1,-3,-2,-3,-1,-7,-23,-4
1511884684323446,0,-1,5,2,-3,2,7,0
1511884684332470,-1,-1,2,-1,2,-1,-8,1
1511884684332470,1,0,0,2,2,-3,-1,1
1511884684346617,-1,-2,-6,-8,-2,1,0,-4
1511884684346617,-1,0,-1,-2,-4,-2,-1,0
1511884684352629,3,-1,0,1,0,-2,6,3
1511884684352629,1,-1,5,10,8,2,-3,0
1511884684369733,1,4,2,-1,-5,5,29,3
1511884684369733,-1,-4,-10,-7,5,-5,-12,-2
1511884684370608,-2,-4,-11,-14,-11,-1,-1,-1
1511884684370608,-4,-1,-1,-4,-1,1,0,-2
1511884684383614,-1,2,7,14,3,0,0,-1
1511884684383614,1,3,5,1,-6,-3,-2,-1
1511884684391631,1,0,-1,3,6,-2,8,2
1511884684391631,2,-5,-7,-6,-10,1,1,4
1511884684405665,-1,0,-1,4,12,4,-5,-3
1511884684405665,0,1,1,1,-7,-7,-5,1
1511884684412686,-1,2,7,1,3,3,5,-1
1511884684412686,0,0,-7,-3,-4,2,3,1
1511884684429773,-2,-4,-3,-8,-8,-1,-3,-1
1511884684429773,1,0,-1,0,-1,1,4,3
1511884684430731,0,0,1,1,0,1,2,-3
1511884684430731,2,1,7,5,4,0,1,-5
1511884684442766,-1,-1,-5,-11,-5,-2,-6,2
1511884684442766,0,-2,2,1,3,3,1,-5
1511884684451787,-2,-4,-4,-1,-5,-3,-4,2
1511884684451787,-1,0,-3,-6,3,1,2,-6
1511884684465826,-1,-2,0,3,0,-5,-2,1
1511884684465826,0,1,-1,-4,0,7,4,-1
1511884684472870,1,1,3,1,-2,-4,-5,4
1511884684472870,-1,-1,1,3,4,-5,-1,1
1511884684488085,-1,-1,3,4,-2,-1,-8,1
1511884684488085,-1,-2,0,1,0,8,30,4
1511884684496907,-3,-3,-8,-9,0,-2,-11,-3
1511884684496907,-1,-2,-4,-1,-4,-1,2,0
1511884684503052,-1,1,0,-2,-5,4,-6,-5
1511884684503052,-1,-1,-1,-3,-4,-5,-10,-3
1511884684511947,-3,-3,-1,4,-1,-6,-7,-4
1511884684511947,1,2,0,0,0,1,4,4
1511884684525984,-1,-1,-4,-3,0,-1,3,-5
1511884684525984,0,-4,-1,1,1,1,-3,-1
1511884684533115,0,-1,-3,-3,-2,2,0,1
1511884684533115,-1,0,0,-6,-11,-7,-9,-1
1511884684549049,3,2,6,10,5,2,3,14
1511884684549049,-5,-1,1,4,-3,-4,-4,-1
1511884684551053,-1,0,-6,-9,-2,1,0,-5
1511884684551053,-3,-1,-4,-3,0,4,1,-2
1511884684563200,1,0,4,5,2,-5,-6,-2
1511884684563200,3,1,-4,-3,-3,-2,-2,3
1511884684572107,0,0,1,0,-4,-4,2,7
1511884684572107,-1,-1,0,-3,0,5,-1,0
1511884684586438,0,0,-1,-1,-2,-2,-5,-4
1511884684586438,1,-1,4,4,3,-1,9,0
1511884684593275,-2,0,1,3,-1,3,2,-2
1511884684593275,0,0,-1,-2,-4,-10,-17,-3
1511884684609352,-2,0,0,2,5,2,6,2
1511884684609352,-2,-2,-1,1,0,2,-4,0
1511884684611335,1,2,3,5,3,6,6,-2
1511884684611335,-1,-2,-3,-2,-4,-4,4,-4
1511884684623423,-2,-1,-6,-14,-1,-1,-2,-3
1511884684623423,-2,-3,-2,-3,3,0,-7,-1
1511884684632390,-1,-1,-4,-1,-4,-3,1,2
1511884684632390,0,0,7,6,4,0,-4,1
1511884684646461,-3,-3,-3,2,-6,-4,0,-5
1511884684646461,-1,3,-6,-16,-7,0,-1,1
1511884684653457,1,1,6,10,8,-1,1,2
1511884684653457,-2,-1,0,4,6,0,-4,-4
1511884684669502,2,-1,-4,-4,-7,-1,5,5
1511884684669502,0,1,1,5,0,0,-3,-1
1511884684670490,0,0,0,-3,-5,-6,-9,-4
1511884684670490,2,0,3,5,1,3,10,0
1511884684682533,-1,0,3,0,-1,1,-1,-3
1511884684682533,-1,-2,-4,1,2,-1,-4,-3
1511884684691536,-1,-3,-6,-15,-7,-1,0,0
1511884684691536,1,0,-4,2,2,0,-11,-5
1511884684705744,1,-3,-2,-1,0,0,14,-1
1511884684705744,1,0,4,3,2,1,1,-3
1511884684712593,-2,0,2,1,-1,3,-4,0
1511884684712593,-1,-1,-3,-5,-7,3,12,3
1511884684729755,-4,-2,0,-4,-2,-5,-15,1
1511884684729755,0,0,0,4,1,-4,5,2
1511884684730637,-4,-4,-3,-3,4,-1,-2,-3
1511884684730637,-2,-3,1,-1,1,-1,1,-1
1511884684742871,-2,-2,-5,-4,-4,-1,-1,0
1511884684742871,1,2,7,1,-1,0,-5,-2
1511884684751854,-1,-1,-2,3,4,1,4,2
1511884684751854,2,-3,0,-4,-5,0,0,2
1511884684765932,2,1,3,7,8,3,0,-2
1511884684765932,-2,-3,-7,-6,-4,-2,-6,-3
1511884684772921,1,2,-3,-5,-6,-2,-3,0
1511884684772921,-2,-1,2,7,8,2,0,-5
1511884684788952,3,-1,-2,-1,-2,1,6,16
1511884684788952,-2,0,-9,-9,-3,3,0,-3
1511884684790957,-2,1,4,4,-3,-10,-11,-3
1511884684790957,-1,-1,-1,2,1,6,7,-1
1511884684803093,2,2,3,0,-3,-3,-9,-1
1511884684803093,-2,-1,0,-2,4,-1,4,3
1511884684812013,3,-1,-4,-4,-1,3,3,-1
1511884684812013,1,-3,-4,-7,-7,-1,2,4
1511884684826053,-2,1,6,3,6,1,-7,-5
1511884684826053,2,0,1,4,1,1,2,3
1511884684833069,1,1,2,2,-2,-1,-6,-2
1511884684833069,-4,-2,-6,-5,1,-4,1,-5
1511884684849209,0,-1,-2,-6,-6,-1,-2,-3
1511884684849209,0,-2,-2,-1,-2,-4,-8,-6
1511884684851117,2,3,8,13,4,3,-2,8
1511884684851117,0,-1,6,10,3,0,-2,5
1511884684863258,-2,-6,-12,-19,-9,-2,3,-3
1511884684863258,-4,-5,-15,-24,-9,-2,-5,-7
1511884684872173,-1,-2,-4,-3,-2,-4,2,-2
1511884684872173,3,3,9,7,3,0,2,5
1511884684886210,-1,3,13,16,4,0,0,-6
1511884684886210,3,-1,9,14,1,0,1,2
1511884684893232,-2,-2,0,-4,3,1,0,-6
1511884684893232,0,-1,-6,-5,-2,-6,2,6
1511884684908274,-4,1,-6,-11,-11,4,-1,-2
1511884684908274,-1,-1,-1,0,8,3,1,0
1511884684915410,-2,-1,0,1,-3,-2,8,0
1511884684915410,-1,-1,0,-2,-1,-1,-5,-4
1511884684923343,0,0,-2,7,2,0,0,0
1511884684923343,-1,-2,3,2,5,3,1,10
1511884684932333,-2,3,-2,-3,-1,7,4,-3
1511884684932333,0,-2,-4,-11,-5,-14,-10,-6
1511884684946415,2,-1,-6,-6,-4,-3,0,-1
1511884684946415,0,-1,7,9,3,1,-2,-2
1511884684953390,1,1,5,7,2,-2,0,0
1511884684953390,-2,-2,-10,-15,-11,6,3,-1
1511884684968518,1,-1,0,6,3,-5,-5,-2
1511884684968518,1,-1,-3,-13,-2,-5,-1,0
1511884684975477,-1,-1,-2,-6,-3,6,-5,-2
1511884684975477,2,0,8,10,1,1,1,1
1511884684983469,0,-1,1,2,-3,0,7,-1
1511884684983469,-1,-2,-2,-3,-1,-4,-2,-2
1511884684991496,-1,-4,-7,-4,-1,-1,1,-1
1511884684991496,-2,-2,-4,-7,-4,0,-5,0
1511884685006530,1,2,6,5,2,2,1,2
1511884685006530,0,2,6,11,-5,0,1,-4
1511884685012549,1,-4,-5,-9,-2,-7,-3,-3
1511884685012549,2,-1,-10,-9,4,3,-1,1
1511884685028633,-1,-3,2,5,4,-5,-2,0
1511884685028633,-2,-2,-2,-4,-3,9,-4,-5
1511884685035778,2,0,5,11,-2,-6,-3,3
1511884685035778,-1,1,-1,-6,-3,-1,-2,-2
1511884685042840,1,1,-2,0,6,2,5,1
1511884685042840,-1,1,-4,-4,-1,-5,-3,0
1511884685051858,1,-1,1,0,7,6,1,1
1511884685051858,-1,1,1,7,0,-1,-3,-2
1511884685065904,-3,-3,-1,-4,-5,-2,-4,-2
1511884685065904,1,0,-1,4,-5,-11,-2,2
1511884685072902,-1,-2,-1,2,12,16,1,-2
1511884685072902,-1,-1,1,-3,-6,-2,2,-1
1511884685088925,-1,1,-3,1,6,4,-2,0
1511884685088925,-1,1,2,3,-3,5,1,2
1511884685094978,0,-1,0,-3,-9,-8,2,-2
1511884685094978,-2,-1,-7,-7,0,1,-2,-1
1511884685112112,-1,-5,-8,-9,-2,3,1,2
1511884685112112,-2,-1,2,2,-1,-2,-3,-3
1511884685113075,1,0,4,1,-5,-4,2,-1
1511884685113075,2,4,10,17,13,-1,-4,1
1511884685126148,-3,-5,0,-1,-10,-9,-5,-1
1511884685126148,-2,-2,-10,-10,9,20,7,-2
1511884685133172,-2,-5,-15,-20,-4,-4,2,-1
1511884685133172,0,2,7,7,3,2,-4,0
1511884685148207,-2,2,1,-5,-9,-13,-3,-4
1511884685148207,0,1,7,16,6,-3,-3,0
1511884685155226,2,1,2,3,-4,8,16,6
1511884685155226,0,-1,-6,-9,1,-1,-9,-6
1511884685172254,-1,1,5,5,8,8,1,-3
1511884685172254,-1,-2,-2,-2,-14,-15,-2,-3
1511884685173237,-2,-1,-7,-6,-2,-8,-11,-2
1511884685173237,-2,-2,-1,-1,-4,1,3,2
1511884685186308,2,1,1,0,4,0,3,1
1511884685186308,-1,-2,-2,-7,-6,-10,-1,-3
1511884685193289,-2,0,0,-1,1,4,-1,1
1511884685193289,-2,-2,-1,2,-11,-17,0,-1
1511884685208328,-1,-1,-4,-6,0,6,-5,-5
1511884685208328,1,0,1,4,4,0,3,3
1511884685215346,-1,1,4,5,1,-4,-4,-2
1511884685215346,1,-2,-2,-6,-1,1,3,3
1511884685231389,1,-1,10,14,9,0,6,3
1511884685231389,-1,-2,-18,-15,-12,2,2,-1
1511884685233390,-3,-4,-4,-9,-3,-7,-5,0
1511884685233390,-3,-1,-5,-10,-7,3,1,-7
1511884685246429,2,0,2,-2,1,-3,2,2
1511884685246429,2,3,9,10,3,-3,0,4
1511884685252446,2,1,7,13,9,-2,6,9
1511884685252446,1,-3,2,9,2,-8,-12,-3
1511884685268662,-2,1,-7,-4,-2,12,2,-4
1511884685268662,-1,-3,-5,-9,-1,1,-1,-4
1511884685275506,-1,2,-2,-7,-8,1,-4,-11
1511884685275506,-3,1,2,3,0,-1,-5,5
1511884685291674,1,0,3,3,2,-1,-20,-11
1511884685291674,-2,1,0,0,7,18,9,0
1511884685293587,-1,-1,-3,-3,-5,-14,-14,-4
1511884685293587,1,2,4,5,4,1,4,-8
1511884685306652,-5,-3,-9,-9,-9,-6,4,5
1511884685306652,-1,0,1,-6,-5,-4,-14,-2
1511884685312640,1,-1,1,4,1,-11,-15,4
1511884685312640,0,2,0,1,4,21,29,-9
1511884685328683,3,-2,-3,-3,-4,-10,-3,13
1511884685328683,2,-1,3,2,3,-8,-7,-2
1511884685335703,-4,-3,2,4,-1,1,0,-17
1511884685335703,-1,-3,-3,-3,-1,-2,-2,10
1511884685351821,3,-1,-2,0,1,2,6,3
1511884685351821,2,-3,3,1,1,-1,3,3
1511884685353747,-2,1,1,0,5,9,5,-11
1511884685353747,2,3,1,3,-4,-11,-8,5
1511884685365878,-3,-2,-2,-6,9,17,24,0
1511884685365878,-1,2,-4,-5,-6,-11,-7,-4
1511884685374804,5,0,-3,-1,-6,4,2,-1
1511884685374804,-5,-3,-1,-1,1,3,-5,-9
1511884685388851,6,0,2,0,-6,-11,-4,3
1511884685388851,-5,0,-3,-1,1,7,9,-12
1511884685395884,7,-2,-3,0,6,3,2,22
1511884685395884,-1,-2,-2,-1,-5,-1,6,-5
1511884685411905,-10,0,-1,-1,-6,-8,-18,-14
1511884685411905,-3,-3,-2,1,7,17,3,-4
1511884685412907,2,1,0,3,1,-4,9,-6
1511884685412907,9,2,0,-4,4,6,2,8
1511884685424939,-6,-3,-4,-6,-3,1,-6,8
1511884685424939,3,-2,2,1,1,-14,-30,5
1511884685433960,1,1,1,-3,-2,10,18,7
1511884685433960,8,0,-1,0,2,-3,1,3
1511884685449003,-6,0,1,-1,-3,-6,0,-14
1511884685449003,1,1,1,3,0,7,13,0
1511884685455019,-6,-1,3,5,3,0,-5,-2
1511884685455019,6,-1,-4,-6,-5,-3,19,20
1511884685472061,3,0,2,3,0,-7,-18,11
1511884685472061,-1,-2,-3,-5,-7,-19,-13,-2
1511884685473068,0,0,-1,-3,3,16,19,11
1511884685473068,-5,-1,-1,2,-1,-6,-18,-9
1511884685485218,3,1,1,1,1,3,6,-3
1511884685485218,-7,-3,2,5,-2,0,-6,-8
1511884685494120,1,-2,-3,-4,-7,-9,0,2
1511884685494120,-11,-1,-1,-2,-1,4,-16,-24
1511884685508160,8,-2,-2,-1,0,-6,1,33
1511884685508160,-11,1,-1,1,-2,-5,1,-10
1511884685515423,-4,-5,0,0,-2,-8,3,-3
1511884685515423,2,-1,1,1,2,6,6,2
1511884685532366,-4,5,0,-2,-3,2,0,-18
1511884685532366,4,-12,-5,-1,1,1,2,20
1511884685533347,5,12,-1,-1,-2,-5,-14,1
1511884685533347,-16,-13,0,3,-1,-2,3,-2
1511884685545382,4,-2,-5,-6,-5,0,6,-6
1511884685545382,-6,4,-2,2,3,9,13,1
1511884685554403,-3,2,-2,-3,-1,0,-9,-17
1511884685554403,4,3,1,1,2,5,-6,13
1511884685568540,-5,-3,3,3,-5,4,6,-12
1511884685568540,3,2,-4,-3,2,-1,14,21
1511884685575463,4,0,0,0,2,-5,-18,-2
1511884685575463,2,3,-1,-1,-4,-5,-3,-4
1511884685591610,-1,3,8,2,-9,-5,-15,-9
1511884685591610,4,0,1,-3,5,2,1,-6
1511884685593507,-5,-7,-3,3,-6,-10,-10,5
1511884685593507,-1,3,-1,-8,-1,-2,8,-4
1511884685605539,-2,6,-2,2,6,4,5,-8
1511884685605539,-1,-31,-11,-10,-7,4,9,3
1511884685614563,-9,2,-9,-3,2,-7,-11,-2
1511884685614563,7,6,12,0,1,3,1,3
1511884685628601,-10,-5,4,10,0,-4,-1,-4
1511884685628601,0,8,6,5,11,11,10,-1
1511884685635619,-2,-4,-2,-3,-4,6,15,1
1511884685635619,-5,-5,-1,2,1,-4,-15,-9
1511884685651699,9,6,0,2,4,0,1,7
1511884685651699,0,8,4,-1,-3,0,-7,-2
1511884685653674,-1,-4,4,18,11,10,5,0
1511884685653674,-3,-3,-17,-18,-17,-8,-3,-8
1511884685665731,-2,-2,-7,-15,-6,7,7,3
1511884685665731,-1,4,-3,-7,-5,-14,1,-1
1511884685674723,1,1,-3,-5,-2,-2,-9,-5
1511884685674723,-1,-4,3,15,13,0,-1,4
1511884685689062,4,2,10,7,-1,2,-1,-1
1511884685689062,0,1,0,20,-4,-1,-3,-6
1511884685695896,7,4,-1,-16,4,1,14,12
1511884685695896,-13,-18,-22,-26,6,3,1,-3
1511884685711936,0,1,-2,8,4,-7,-4,1
1511884685711936,4,6,7,4,3,30,24,4
1511884685712966,8,2,6,14,2,-6,-1,-3
1511884685712966,4,9,3,-3,-8,-2,-8,1
1511884685724971,-4,-4,-7,2,9,7,8,-5
1511884685724971,-3,3,1,-1,-8,-11,-15,-1
1511884685734012,-5,-3,-4,-19,-7,11,6,-2
1511884685734012,6,4,5,5,19,-2,15,-9
1511884685749094,-3,-8,-3,1,-5,-8,-29,6
1511884685749094,1,2,4,7,-7,-2,-8,-5
1511884685755149,-7,-8,2,4,0,-1,0,-11
1511884685755149,2,7,6,5,-17,-7,-17,2
1511884685772266,-4,-6,-8,-8,6,-3,18,3
1511884685772266,4,0,-7,-22,-17,4,13,1
1511884685773230,5,4,4,5,8,-7,-11,7
1511884685773230,-2,-8,7,10,12,37,27,8
1511884685785260,0,2,-2,8,-1,-10,-18,-18
1511884685785260,1,-1,-10,-18,-7,-6,6,5
1511884685794288,2,3,7,11,-1,-5,-1,5
1511884685794288,2,-1,2,7,0,-3,8,-1
1511884685808322,1,3,2,-13,-12,5,-8,-13
1511884685808322,-8,-4,-4,3,18,-18,-30,0
1511884685815454,2,-8,-4,4,-20,12,-1,9
1511884685815454,-1,1,-6,-4,9,-21,-22,9
1511884685832401,0,-8,-3,-6,-8,1,1,3
1511884685832401,2,6,9,12,7,3,3,-3
1511884685833386,-4,-7,-7,-9,-8,-16,-26,-5
1511884685833386,-5,3,-2,-7,-11,7,4,-10
1511884685845421,7,2,5,3,5,-20,-2,23
1511884685845421,1,-1,1,1,4,17,-3,3
1511884685854442,-1,-2,-5,-5,4,3,12,-6
1511884685854442,-3,1,-2,2,2,0,8,-12
1511884685868590,-2,-1,5,5,7,1,5,3
1511884685868590,2,1,-6,-8,-11,-7,5,-1
1511884685875498,-4,-3,0,-1,2,10,8,-8
1511884685875498,-1,1,2,6,5,-1,-7,-2
1511884685906627,-3,-13,-6,-3,2,4,11,7
1511884685906627,8,-2,-1,-1,-4,-8,-10,5
1511884685914603,-16,-4,-2,-6,-2,-4,-5,-17
1511884685914603,2,-3,-4,0,-8,-4,-1,8
1511884685936757,11,7,5,1,2,7,1,3
1511884685936757,-1,-5,1,0,2,-2,-1,0
1511884685938691,0,0,0,3,4,-7,2,-9
1511884685938691,3,2,1,-1,-8,4,-7,-3
1511884685958816,-3,4,-1,0,-3,3,3,-9
1511884685958816,-2,0,-4,-4,-4,-11,-17,0
1511884685965838,-5,-9,-3,-6,-5,8,31,1
1511884685965838,-5,0,2,1,-3,-12,-11,2
1511884685989803,5,0,-6,-11,-9,4,4,14
1511884685989803,-1,0,5,12,16,11,5,-16
1511884685991807,2,2,0,-2,1,2,-9,2
1511884685991807,5,0,-2,-3,-8,-4,7,5
1511884685995821,-8,-1,-2,-1,2,4,6,-8
1511884685995821,0,3,6,6,1,-2,0,4
1511884685996820,7,6,3,-3,-3,0,-11,2
1511884685996820,-1,-3,-2,0,-3,-1,1,19
1511884686003959,7,1,-3,0,-2,-3,-12,-7
1511884686003959,-6,-2,1,2,0,-2,10,20
1511884686004876,-14,-6,-5,0,1,1,-1,-17
1511884686004876,3,1,-1,-4,-7,-7,-4,-2
1511884686010967,-3,-4,-5,-4,7,0,-13,-5
1511884686010967,-2,-5,3,5,-3,1,2,-6
1511884686017969,-2,3,-6,-11,-11,-8,-6,1
1511884686017969,-6,-7,-5,-2,1,0,9,0
1511884686033921,2,4,2,0,1,-11,-20,13
1511884686033921,0,-6,-4,-2,-2,-4,-2,-6
1511884686035927,2,3,7,9,3,-5,-9,7
1511884686035927,-3,3,-3,-1,1,9,4,-11
1511884686048959,0,2,-1,-5,-9,-1,10,4
1511884686048959,-3,-3,-5,-4,1,-9,-8,-9
1511884686055007,14,4,2,0,-2,6,7,7
1511884686055007,-12,-11,-4,-2,-1,2,-7,-19
1511884686071199,-2,-2,5,1,2,0,1,1
1511884686071199,-4,1,-3,-3,-1,-1,2,-5
1511884686078190,0,-1,0,4,4,-3,-1,-7
1511884686078190,6,1,4,-1,1,1,-2,13
1511884686116291,-4,1,-1,8,7,-3,-13,-19
1511884686116291,-3,0,-3,-7,-7,2,6,-10
1511884686124309,6,-4,-5,-4,-4,-5,-15,14
1511884686124309,4,9,10,10,7,18,28,1
1511884686139349,-10,-5,-6,1,-4,-5,-3,-15
1511884686139349,5,-1,-9,-21,-11,-9,-14,-1
1511884686140352,-5,-1,3,8,13,5,12,10
1511884686140352,3,4,5,6,-4,-6,-5,-8
1511884686153498,2,-6,-3,-4,-4,-1,6,1
1511884686153498,1,6,8,11,3,12,10,-9
1511884686160522,-7,0,-4,-3,-8,-6,-1,-1
1511884686160522,-4,-2,-3,-2,2,-4,-14,-6
1511884686176560,0,4,10,7,2,-1,2,-3
1511884686176560,-9,-8,-9,-4,-8,-9,-15,-2
1511884686178453,0,-1,-5,-3,-2,12,17,-3
1511884686178453,1,-1,-7,-9,0,-9,1,8
1511884686191491,-3,1,2,4,2,9,8,0
1511884686191491,-3,-1,2,15,3,2,-6,-6
1511884686193493,0,2,2,-2,2,0,-10,-10
1511884686193493,-4,-10,-13,-9,-7,-5,-3,-1
1511884686205527,-1,-4,-13,-18,-9,-3,-2,-1
1511884686205527,-4,-3,1,-4,-2,-3,17,1
1511884686214550,3,4,12,16,4,-5,-10,-4
1511884686214550,-1,1,5,11,-2,2,-1,-1
1511884686229596,3,-3,-8,-16,-8,-3,3,-7
1511884686229596,-10,-4,-6,4,9,9,0,2
1511884686230592,-1,-2,13,17,-5,-2,8,-4
1511884686230592,-7,-2,-15,-19,-4,-7,-5,-4
1511884686243650,0,5,-5,-6,11,18,24,7
1511884686243650,5,2,11,2,-5,-7,-6,5
1511884686244748,-2,4,0,4,-3,-5,2,0
1511884686244748,4,1,-1,-3,0,-8,-9,-2
1511884686259760,1,5,1,-6,-3,1,-2,3
1511884686259760,6,1,-1,-8,5,0,-9,-3
1511884686266688,-4,-1,7,26,2,1,3,2
1511884686266688,5,2,7,0,1,-1,7,5
1511884686273710,1,0,-3,-1,-5,-8,6,10
1511884686273710,1,-5,-3,-4,7,1,-11,4
1511884686275712,6,3,-3,-5,6,0,-4,2
1511884686275712,3,4,2,3,-7,-2,-2,3
1511884686287774,-11,-8,6,20,17,6,-12,-8
1511884686287774,4,3,3,10,17,-5,13,7
1511884686296768,-3,-5,-22,-43,-9,5,4,3
1511884686296768,0,5,7,19,4,3,0,1
1511884686310848,2,6,9,-5,-22,-1,-2,1
1511884686310848,1,-4,-12,-8,8,-3,15,6
1511884686317827,-5,-4,-7,-10,6,-6,-26,-2
1511884686317827,2,-1,4,-6,1,10,4,-3
1511884686333866,2,-4,1,12,-1,6,3,6
1511884686333866,-1,9,9,20,1,-2,-6,-7
1511884686335871,-1,-1,-1,-14,-8,-3,7,3
1511884686335871,-1,-3,-6,-5,7,0,8,5
1511884686348023,3,-7,-8,3,3,-5,-4,3
1511884686348023,-4,3,-5,-11,-15,-4,-7,-2
1511884686356929,3,3,-1,-7,-8,-4,-5,-6
1511884686356929,-12,-5,1,13,4,-1,-7,-7
1511884686370970,0,2,-4,-7,-5,-6,-2,-4
1511884686370970,4,3,2,-10,0,7,0,2
1511884686377984,-1,1,1,7,-1,1,2,-9
1511884686377984,0,-1,4,9,2,-2,-2,18
1511884686410069,-5,-1,-8,-10,-8,-7,1,-6
1511884686410069,-4,-2,-1,-7,-16,-3,-17,-2
1511884686412075,6,-3,1,1,9,4,3,-3
1511884686412075,-4,-4,-4,-5,-7,-4,2,-5
1511884686430309,-1,1,13,11,11,1,-1,6
1511884686430309,5,3,0,0,-7,-6,-2,-2
1511884686439168,-3,-4,-4,-4,-6,6,-1,13
1511884686439168,11,6,3,-1,-2,-24,-32,-4
1511884686462209,-10,-4,-5,-4,0,-9,2,10
1511884686462209,-4,-10,-4,-1,-2,5,14,1
1511884686463211,4,10,6,5,1,-6,-23,-11
1511884686463211,-6,-7,2,-1,-3,15,6,-11
1511884686484266,7,8,-3,-8,-7,-8,5,6
1511884686484266,2,-2,2,6,0,-8,-17,-2
1511884686486272,-5,1,-5,-15,-14,-5,5,-2
1511884686486272,-2,-10,-8,-6,1,-7,-6,4
1511884686505511,3,0,3,5,6,-1,5,-5
1511884686505511,-4,2,2,8,4,8,9,-2
1511884686515349,0,0,5,10,6,0,5,5
1511884686515349,2,4,1,-3,-6,-7,-8,-10
1511884686536408,5,-2,-6,-10,2,10,4,16
1511884686536408,-4,3,0,-6,-1,-6,-5,-1
1511884686538410,-3,1,3,7,-2,0,-2,-4
1511884686538410,-1,-11,-7,0,-1,7,11,-2
1511884686557465,-2,-5,2,5,2,1,-3,4
1511884686557465,-17,-2,3,1,2,3,4,-7
1511884686566485,5,4,5,7,6,7,4,5
1511884686566485,-4,4,-11,-16,-3,-1,3,-6
1511884686589547,-1,-3,1,1,-5,1,-10,1
1511884686589547,6,3,1,0,4,9,8,-6
1511884686592558,0,-4,-10,-10,-7,-4,8,15
1511884686592558,-1,3,14,9,3,-3,-5,-8
1511884686610605,-11,-2,0,6,3,4,2,-16
1511884686610605,11,0,1,0,-6,-8,-3,13
1511884686619627,-6,-7,-4,-3,3,13,7,-5
1511884686619627,5,4,4,5,10,6,6,4
1511884686649724,-4,0,3,8,4,-4,-12,-12
1511884686649724,-4,-5,-3,-10,-11,6,6,-3
1511884686650709,5,-3,-2,2,5,4,8,13
1511884686650709,-1,-1,-3,-12,-11,-3,6,3
1511884686663863,2,0,0,3,6,-5,-6,-5
1511884686663863,-6,-4,-5,10,15,8,12,-4
1511884686670875,2,-6,-3,-4,-5,-20,-15,15
1511884686670875,0,3,8,2,-3,9,13,0
1511884686685031,-5,-3,3,5,-5,-3,-5,-4
1511884686685031,6,-3,-10,-10,-7,-3,-5,-1
1511884686696056,-4,2,-12,-19,-9,-6,-4,-13
1511884686696056,-5,-11,3,8,8,2,-4,10
1511884686716332,20,6,2,-6,-1,6,10,13
1511884686716332,-13,1,10,7,-1,-3,4,-6
1511884686718227,-1,2,11,24,10,3,-7,-8
1511884686718227,-1,-1,-21,-18,-15,-5,-5,2
1511884686738279,-3,-4,-9,-14,2,0,1,-3
1511884686738279,3,6,2,-3,-6,1,-6,-2
1511884686747308,-1,-1,5,10,4,-8,-10,-4
1511884686747308,2,5,10,8,6,2,17,-2
1511884686770502,-4,-2,-3,2,-6,-3,-14,-5
1511884686770502,1,0,-5,-7,-3,12,5,-1
1511884686772371,-10,-4,-2,-7,-4,-4,-11,-17
1511884686772371,7,3,3,7,1,-1,7,20
1511884686791423,-4,-2,-2,6,7,9,3,-13
1511884686791423,3,-4,-11,-13,-9,-11,-4,3
1511884686797439,-2,-1,-8,-9,-1,1,5,-5
1511884686797439,0,2,3,3,0,5,-2,-3
1511884686821606,-2,2,8,3,-4,-7,-1,-4
1511884686821606,2,1,-1,4,5,-5,-4,3
1511884686823507,-5,-8,-12,-19,-14,0,8,-5
1511884686823507,1,3,-4,-8,7,-2,-7,2
1511884686844651,-3,-1,3,10,-1,-3,-6,-6
1511884686844651,4,5,13,9,-4,-2,-5,-2
1511884686845564,8,-5,-6,2,3,2,4,4
1511884686845564,-16,-3,-6,-7,-8,-1,-15,-9
1511884686866764,8,5,-5,-10,3,5,4,18
1511884686866764,-4,-5,2,3,-1,1,-2,-3
1511884686868741,-2,-3,8,9,2,2,7,0
1511884686868741,2,1,0,2,2,4,4,-5
1511884686887936,-5,-3,-8,-7,-2,-5,-7,0
1511884686887936,0,-4,-5,-10,-12,-5,-2,-3
1511884686896988,-3,2,3,1,5,5,4,3
1511884686896988,-1,0,-4,-1,1,-4,-4,-9
1511884686919244,0,1,3,5,-2,-3,7,1
1511884686919244,3,3,9,13,6,-2,0,-1
1511884686921075,-2,1,-1,4,1,2,-1,-7
1511884686921075,-3,-7,-19,-22,-8,-8,-7,-4
1511884686942153,3,3,-5,-6,-1,1,2,-3
1511884686942153,1,2,6,-7,-3,-8,-15,3
1511884686943127,0,-2,8,19,11,4,11,-4
1511884686943127,1,-1,1,-2,-7,3,3,2
1511884686963164,-6,0,-8,-15,-7,-2,1,-6
1511884686963164,4,0,0,4,1,-3,-5,-3
1511884686970183,-8,3,6,5,2,5,-2,2
1511884686970183,4,-1,2,0,-2,2,-2,-2
1511884686985334,2,-2,-4,3,-2,-9,2,13
1511884686985334,-2,-4,0,6,7,6,5,-5
1511884686996372,0,-2,-9,-15,-15,-3,-5,-1
1511884686996372,2,0,1,4,2,-2,-3,6
1511884687016304,-5,0,4,-3,-5,-3,-4,-11
1511884687016304,0,1,0,4,1,11,5,1
1511884687018310,3,1,1,2,4,-11,-16,-5
1511884687018310,-4,-2,5,3,-4,-3,6,-1
1511884687039545,0,-5,0,-1,-7,1,-3,-3
1511884687039545,-3,-2,-14,-9,1,-4,3,-1
1511884687040369,-1,-1,-1,-8,-6,4,-2,-5
1511884687040369,2,5,10,16,9,0,1,-1
1511884687061424,-2,-3,5,5,3,1,3,-4
1511884687061424,3,-5,-16,-20,-11,-5,0,0
1511884687067440,0,3,-2,-13,-9,-8,-5,8
1511884687067440,-2,-3,-4,3,10,-1,-2,-2
1511884687092509,4,4,8,13,4,3,5,10
1511884687092509,-1,0,5,3,1,1,0,-3
1511884687094516,1,-3,-2,-1,2,6,10,0
1511884687094516,4,-4,-4,-3,-9,-16,-14,6
1511884687114761,-11,-3,-1,1,3,3,-4,-12
1511884687114761,-2,0,-2,1,-2,-8,5,1
1511884687115593,3,-2,0,1,8,4,2,4
1511884687115593,1,3,1,1,-1,4,2,0
1511884687121608,-3,-7,-9,-10,-4,0,0,-7
1511884687121608,-1,1,-4,-7,-5,-7,-14,9
1511884687121608,-3,1,3,6,4,8,2,1
1511884687121608,-2,-3,-1,3,5,6,5,-9
1511884687128788,1,2,6,8,2,-3,-7,5
1511884687128788,-2,-4,-4,-4,3,2,2,1
1511884687129716,-2,-1,-6,-6,-8,-4,-3,-18
1511884687129716,-7,-7,-13,-18,-7,-1,-7,6
1511884687136643,0,2,5,7,1,-1,3,-6
1511884687136643,3,2,12,10,9,3,1,5
1511884687138653,0,0,0,3,2,1,2,2
1511884687138653,-2,-1,1,10,0,2,5,-3
1511884687143645,-4,-4,-14,-20,-10,-4,-6,-5
1511884687143645,0,0,3,0,-5,2,-2,-3
1511884687144645,3,2,2,1,10,-3,7,5
1511884687144645,1,3,5,-2,-1,4,2,4
1511884687151664,3,4,4,7,3,6,12,0
1511884687151664,-2,-3,-7,-3,-3,-2,-4,-4
1511884687153671,0,-2,-3,-3,-12,-4,-11,-3
1511884687153671,-3,0,-4,-8,-4,9,24,-1
1511884687158710,-2,-6,5,5,4,-4,-13,-4
1511884687158710,-2,-2,-4,2,1,-1,7,2
1511884687159686,-4,0,-2,-4,-1,-8,-3,1
1511884687159686,-2,-3,-4,3,4,-2,-6,-5
1511884687165706,0,0,-2,-9,-6,7,-2,0
1511884687165706,1,4,11,9,2,3,2,-3
1511884687166705,4,1,-5,-2,-5,-3,-8,3
1511884687166705,-1,-1,0,-6,-1,-8,-4,-4
1511884687174731,-5,1,-2,-3,-2,0,1,-10
1511884687174731,1,0,3,4,2,-2,-8,-1
1511884687175733,-5,-2,-4,-2,-1,2,8,0
1511884687175733,3,4,2,10,2,-2,-5,2
1511884687180786,-1,-2,-3,-3,-4,-6,3,-2
1511884687180786,-1,1,-6,-5,1,1,0,-2
1511884687181748,1,3,2,2,-5,-8,-2,8
1511884687181748,-5,-1,3,11,6,1,1,-8
1511884687188805,3,-2,4,-5,-9,9,-1,1
1511884687188805,-6,-3,-5,-8,0,-9,-4,-5
1511884687189770,0,-3,-10,-11,0,1,-2,2
1511884687189770,1,0,0,1,0,-5,-4,0
1511884687196829,1,1,3,4,2,-1,-2,2
1511884687196829,-2,3,4,14,6,8,3,-2
1511884687198823,-4,-2,5,0,1,2,0,-6
1511884687198823,4,-2,-4,-5,-5,-1,-2,1
1511884687203841,-3,4,-6,-5,3,4,-5,1
1511884687203841,-3,-5,-5,-7,-4,-6,-13,-8
1511884687204808,6,2,7,9,4,-2,1,2
1511884687204808,-4,-1,2,-2,-5,0,-2,-3
1511884687210824,2,-3,-3,-4,-3,-4,-2,0
1511884687210824,0,-1,-5,-2,-1,-5,2,0
1511884687217841,1,0,-1,2,1,7,2,-3
1511884687217841,1,-2,-3,-5,-2,-7,-9,1
1511884687233032,1,2,3,5,3,0,4,-1
1511884687233032,1,-3,5,10,4,3,8,-4
1511884687240050,1,-1,-6,-11,-7,1,-7,5
1511884687240050,-3,-4,-3,-11,-7,-16,-14,-6
1511884687264114,0,0,-3,4,1,0,-1,5
1511884687264114,1,3,6,6,2,-1,4,7
1511884687266121,-2,-1,-2,0,-6,-3,-1,1
1511884687266121,0,3,8,-1,-2,-1,0,0
1511884687271137,-2,-5,-4,6,6,-2,7,-1
1511884687271137,-2,-1,-7,-14,-2,-1,-15,0
1511884687278378,-3,-2,-3,0,-1,1,5,0
1511884687278378,0,0,-1,6,1,0,7,3
1511884687293448,2,3,3,-6,-6,-4,-3,0
1511884687293448,2,0,1,7,1,6,6,4
1511884687300466,-3,-3,-3,-1,0,-7,-13,-4
1511884687300466,-2,-3,2,5,-1,2,-2,-5
1511884687316512,8,1,-10,-8,-2,-4,6,7
1511884687316512,-6,-4,-3,-4,0,0,-5,-4
1511884687318514,1,1,6,4,4,3,4,2
1511884687318514,2,1,1,3,0,3,2,-2
1511884687331559,-3,0,3,1,3,4,5,0
1511884687331559,5,1,-2,-1,0,-14,-14,8
1511884687337568,-1,-3,0,-2,-5,-3,4,0
1511884687337568,-3,-1,-6,-10,-4,-7,-7,-1
1511884687353832,0,-1,-3,-3,1,8,2,-3
1511884687353832,-1,0,-2,-7,-6,3,3,-5
1511884687360917,0,2,6,10,5,-2,0,-1
1511884687360917,2,-1,3,10,11,4,-1,1
1511884687376932,-3,0,0,1,-7,-1,0,-2
1511884687376932,-3,-4,-10,-13,0,3,7,0
1511884687378876,-1,-1,-1,-5,-6,-2,-4,-2
1511884687378876,-2,2,-2,-7,-10,0,0,-1
1511884687390880,-1,1,10,15,11,-4,-1,-1
1511884687390880,1,0,4,3,5,3,6,0
1511884687397899,1,-3,-10,-9,0,0,-2,0
1511884687397899,0,-4,-7,-12,-5,-1,2,-1
1511884687414049,-1,0,1,2,-3,-3,-1,10
1511884687414049,1,2,6,4,-7,-1,0,-4
1511884687420993,0,1,7,10,9,2,3,-2
1511884687420993,0,-3,-3,1,0,0,1,0
1511884687437174,-2,-4,-10,-15,-8,0,-2,1
1511884687437174,0,1,-2,-2,2,-1,3,-2
1511884687438130,5,0,1,8,2,4,12,5
1511884687438130,-4,1,-1,-2,-3,-6,-4,-7
1511884687450067,1,-2,1,0,3,7,-4,-4
1511884687450067,-2,-1,8,14,0,1,5,-2
1511884687459102,10,-1,-5,-10,-2,-1,-8,12
1511884687459102,0,-2,-7,-10,-3,3,6,7
1511884687473100,-2,1,-5,-9,-4,-2,-4,-3
1511884687473100,3,1,3,5,0,1,-2,3
1511884687480118,-8,-1,6,11,2,-3,-3,-9
1511884687480118,0,0,0,-1,3,4,1,2
