timestamp,emg1,emg2,emg3,emg4,emg5,emg6,emg7,emg8
1511883703664962,5,2,-4,2,1,-4,-7,-3
1511883703664962,1,-2,-4,-6,2,-4,-6,-1
1511883703681007,0,-10,-1,-2,5,-3,1,6
1511883703681007,-2,4,1,4,10,2,6,3
1511883703682009,-4,-4,1,-1,-3,0,6,-1
1511883703682009,3,3,-9,2,-6,0,0,-1
1511883703682009,4,8,1,6,-2,4,-4,-2
1511883703682009,5,2,-1,-1,-2,3,-5,0
1511883703689028,3,7,1,-2,0,3,-8,-2
1511883703689028,-2,-2,1,-3,-5,0,-5,-3
1511883703693038,-2,-1,-3,-8,-5,-4,-2,-3
1511883703693038,-3,-13,-6,-4,-2,-5,-1,-1
1511883703703065,-3,12,2,-2,-2,-5,2,2
1511883703703065,-4,6,3,-2,-2,-5,7,1
1511883703718105,-6,-5,1,1,-2,-2,2,-4
1511883703718105,1,1,8,2,-1,0,-6,-4
1511883703723118,1,2,-3,-1,2,3,-2,0
1511883703723118,-4,-9,-7,-3,1,5,0,-1
1511883703734148,1,0,-6,1,4,1,0,-1
1511883703734148,2,3,-2,-1,1,-1,-1,2
1511883703748185,3,-7,1,-2,-2,-4,2,0
1511883703748185,4,0,8,1,1,-2,3,-1
1511883703753198,4,6,-1,0,-3,-3,4,0
1511883703753198,3,-2,-8,-2,-6,1,3,-6
1511883703800326,2,0,6,-1,5,-1,-6,1
1511883703800326,4,1,3,-3,-1,-1,-8,-4
1511883703800326,5,6,4,6,2,3,-5,-7
1511883703800326,-5,-3,-4,3,-1,-1,-4,-5
1511883703801328,0,-1,-3,0,-8,-5,0,1
1511883703801328,0,-5,-2,4,-1,-4,3,5
1511883703802331,-9,-12,1,-2,0,-5,0,0
1511883703802331,-3,-6,-11,-4,1,3,1,-2
1511883703812360,-7,7,-3,4,0,7,0,1
1511883703812360,-2,-3,-2,-4,-2,4,-2,0
1511883703820380,-2,-5,5,-4,-6,8,-1,2
1511883703820380,-2,-8,-4,-2,0,2,-1,-2
1511883703829403,1,-7,-7,-4,-2,1,5,-2
1511883703829403,-4,-3,-5,1,0,2,5,-4
1511883703842437,-11,-6,-9,-4,2,-5,1,2
1511883703842437,-2,19,16,-4,-1,-4,-3,5
1511883703851462,-4,-8,-2,-1,-2,-11,-8,1
1511883703851462,-1,1,5,2,-4,-9,-6,-1
1511883703857981,4,-1,-7,0,-3,-6,-7,4
1511883703857981,2,-10,1,6,-2,-4,-7,0
1511883703872519,4,-1,4,-1,6,1,0,-7
1511883703872519,-3,-6,-12,-6,7,2,1,-6
1511883703880542,0,6,-2,-4,-1,1,-2,-4
1511883703880542,0,-5,-1,-2,0,3,5,-5
1511883703896586,-2,-1,3,4,-1,5,8,4
1511883703896586,2,-3,4,7,-2,-2,11,5
1511883703902601,-12,-12,-2,-3,-3,1,7,-6
1511883703902601,7,-1,2,2,-4,0,1,-2
1511883703911625,-12,-6,1,-5,-2,0,-7,2
1511883703911625,-4,-3,1,-5,2,4,-7,4
1511883703917641,0,4,0,1,6,2,-3,4
1511883703917641,-2,0,-6,-10,-7,-8,-3,1
1511883703932683,-4,0,3,-2,-7,-4,0,-8
1511883703932683,2,4,-11,-3,-7,-3,-4,-9
1511883703940704,-8,-9,-9,2,-8,-6,-4,-4
1511883703940704,-2,2,8,6,0,3,1,3
1511883703949728,8,15,-7,-4,5,1,-5,4
1511883703949728,0,-4,3,-2,-11,0,1,6
1511883703963269,7,18,12,3,9,10,4,8
1511883703963269,0,1,3,1,0,-1,2,-2
1511883703972292,1,-11,-8,-3,0,-2,3,-3
1511883703972292,10,1,7,2,3,-8,-3,-18
1511883703977473,-2,-5,-5,-3,-7,-11,-7,0
1511883703977473,10,-1,2,-1,3,-3,-6,-1
1511883703992513,-24,-15,-10,-4,2,2,-1,-8
1511883703992513,-6,7,6,-1,2,4,5,-7
1511883704000592,19,12,-1,0,-3,1,7,6
1511883704000592,-11,-3,-8,0,0,-2,-1,6
1511883704009595,14,3,3,3,-5,-1,-4,0
1511883704009595,14,3,0,1,1,4,-2,5
1511883704022652,-18,-10,-4,1,0,8,-1,0
1511883704022652,-2,10,-5,-3,1,6,-6,-5
1511883704031617,0,2,-2,0,-4,0,-5,-10
1511883704031617,-8,-12,-4,-1,-5,-3,-1,16
1511883704037634,3,-1,6,-2,-6,-5,1,-11
1511883704037634,-5,6,8,2,1,2,9,2
1511883704052674,13,1,6,0,0,0,9,23
1511883704052674,4,20,0,-3,5,-5,-1,-7
1511883704060921,-9,-5,-9,-2,6,0,0,-6
1511883704060921,6,7,0,0,1,1,0,-3
1511883704069361,-12,-2,0,-1,-3,-1,2,-6
1511883704069361,4,-4,-1,-1,0,2,0,-1
1511883704083462,4,2,5,1,3,-2,0,3
1511883704083462,-12,-10,1,0,-5,-3,-3,-9
1511883704091551,15,-2,-9,-1,-5,-3,-7,8
1511883704091551,-14,-10,1,0,-4,0,-7,7
1511883704097564,-3,6,-2,-1,-3,-5,-3,-10
1511883704097564,-2,-6,-1,-4,6,-8,2,-3
1511883704112539,-3,-2,-4,3,10,-4,4,-2
1511883704112539,4,-2,-6,-2,3,1,-1,-7
1511883704120677,7,-5,-1,-3,1,7,-1,0
1511883704120677,14,5,-4,1,-3,5,5,7
1511883704129585,-7,-11,0,-3,-4,0,6,-1
1511883704129585,-10,-5,1,4,10,3,-1,-3
1511883704142736,15,10,5,-4,-5,-1,-6,-4
1511883704142736,-12,-11,2,1,-6,2,-10,7
1511883704151642,2,-1,3,-2,-7,0,-11,-14
1511883704151642,-38,-9,1,-2,-6,-2,3,33
1511883704158338,-6,-5,-6,0,-4,-2,10,22
1511883704158338,-10,-7,-7,-1,-2,-7,4,-7
1511883704173423,-2,9,0,-1,-1,-3,0,-11
1511883704173423,-9,15,4,-2,-3,-1,-5,-20
1511883704180509,7,9,-8,2,3,0,-2,0
1511883704180509,-2,-3,-3,-4,0,2,2,8
1511883704189464,28,0,8,3,2,-4,0,1
1511883704189464,10,-5,-3,-1,1,-3,0,-6
1511883704202500,2,-5,5,3,-1,-3,3,-6
1511883704202500,1,-6,3,2,-4,0,-1,-9
1511883704211524,-6,-1,-4,1,4,-2,-1,-7
1511883704211524,37,6,-4,-2,-3,1,1,22
1511883704217553,-40,-12,0,1,-1,0,-4,-17
1511883704217553,-26,1,1,-5,-2,2,-5,-1
1511883704234585,-12,-1,-11,-7,-3,10,1,0
1511883704234585,10,4,-1,1,1,2,3,17
1511883704240600,-11,4,7,-3,2,-4,0,-1
1511883704240600,5,-4,1,0,4,-8,2,-2
1511883704249626,3,10,5,-1,0,-8,-2,2
1511883704249626,-3,-12,-6,0,1,-5,-4,-16
1511883704263168,14,1,-2,1,-1,-2,-5,-14
1511883704263168,13,5,-4,3,-1,-1,9,29
1511883704272186,-13,-6,1,0,-6,1,4,3
1511883704272186,-2,1,1,1,-4,6,3,-8
1511883704277750,-6,-3,-1,-4,-4,-2,-6,-12
1511883704277750,8,-3,-2,-1,-1,5,-3,6
1511883704292789,-2,-14,-6,-4,-4,0,2,6
1511883704292789,19,15,0,-2,-1,-1,-1,-4
1511883704299808,-8,-27,-8,-4,2,-1,1,2
1511883704299808,35,11,5,0,1,-6,-2,4
1511883704308832,-30,-8,1,6,8,-1,4,-1
1511883704308832,1,0,-4,-1,-2,-1,-1,-4
1511883704322869,-3,-1,-5,-1,1,1,-4,-15
1511883704322869,2,13,-3,0,-7,2,0,9
1511883704331894,3,10,7,1,-1,4,-5,-1
1511883704331894,-16,-6,5,1,-1,1,-4,-7
1511883704337936,14,10,9,2,1,2,-1,-1
1511883704337936,-14,-17,4,-4,0,-1,-5,-17
1511883704352949,-8,-1,3,-1,6,1,2,-4
1511883704352949,30,5,1,-2,7,-6,3,0
1511883704360471,-24,-11,-8,-5,-3,-4,1,11
1511883704360471,6,5,-3,3,0,-3,-2,-6
1511883704369496,4,3,-5,-1,-7,0,-6,5
1511883704369496,8,-2,-4,-1,-2,1,-1,5
1511883704382597,17,5,-3,0,2,-2,-1,10
1511883704382597,-9,-5,-11,-3,-1,0,-2,-6
1511883704391621,5,8,1,2,-1,2,2,-4
1511883704391621,-19,-1,5,1,-6,-1,1,-6
1511883704405686,17,11,9,5,-8,4,2,8
1511883704405686,-40,-10,-4,0,-4,-2,-1,-13
1511883704412677,9,-2,0,1,5,-1,-3,2
1511883704412677,-1,1,-3,0,3,-1,-1,-3
1511883704420723,7,5,-4,-6,-1,-5,-1,4
1511883704420723,22,9,5,0,1,-2,0,-3
1511883704429723,-2,-5,-4,-9,-7,0,2,18
1511883704429723,-20,-5,6,0,-2,2,0,3
1511883704442757,2,-9,-1,0,3,-2,-5,2
1511883704442757,1,8,-6,-10,1,-5,-5,-1
1511883704451781,8,17,0,1,7,-1,-4,-8
1511883704451781,-4,-9,0,-4,0,-1,-1,-6
1511883704466321,2,-2,1,4,-3,-2,4,0
1511883704466321,6,-2,0,4,-7,-2,-4,-10
1511883704472838,-11,-11,-7,2,-5,-6,-5,-19
1511883704472838,1,-7,-6,2,-5,-1,-3,5
1511883704480862,12,17,6,7,10,-1,2,-1
1511883704480862,-5,-17,-2,-11,0,-2,3,4
1511883704488882,-2,0,0,-4,3,0,2,0
1511883704488882,-8,-4,-4,-4,3,0,-1,2
1511883704502920,0,-2,2,-7,-5,1,-1,5
1511883704502920,-5,5,4,0,0,5,1,2
1511883704511944,8,0,-3,-3,-6,3,3,3
1511883704511944,-3,-1,0,1,-4,0,-3,-12
1511883704525981,-8,-6,-8,-2,-4,3,-3,1
1511883704525981,4,4,4,4,5,-3,-6,-5
1511883704533000,5,2,5,4,5,-9,-4,2
1511883704533000,-1,-4,-4,2,4,-6,0,0
1511883704540018,7,4,-7,-1,2,1,3,-5
1511883704540018,4,7,11,6,1,5,2,-4
1511883704549042,-5,-28,-18,-9,-1,2,2,-1
1511883704549042,6,21,11,3,-1,2,0,-2
1511883704563081,-6,-30,-10,-1,2,1,-2,4
1511883704563081,4,9,-1,-2,-10,2,2,2
1511883704572105,-4,-5,-7,3,1,2,2,1
1511883704572105,-5,2,4,-3,-8,0,2,0
1511883704586146,-4,-3,7,1,-4,2,-1,2
1511883704586146,-2,-1,4,5,0,-2,-6,-6
1511883704593163,4,5,12,0,-4,-5,-6,-7
1511883704593163,-4,-11,-19,-5,-1,-5,-3,-1
1511883704600205,2,20,4,-7,-1,1,-1,3
1511883704600205,-6,-36,-9,3,7,3,6,6
1511883704609206,15,54,18,6,3,-1,2,6
1511883704609206,-15,-7,0,-6,7,2,1,-10
1511883704623243,-2,3,2,-6,-2,-11,-5,-7
1511883704623243,0,-3,-20,-1,1,-5,-5,-4
1511883704632267,6,-14,5,-2,-3,-2,-4,4
1511883704632267,1,5,11,1,-6,-2,-3,3
1511883704646304,-2,-6,-21,-6,-9,2,3,0
1511883704646304,-6,-2,2,0,-3,7,-2,0
1511883704652320,-6,-9,-3,-1,-4,4,1,-2
1511883704652320,9,21,4,0,1,-2,-2,1
1511883704660845,5,8,15,0,5,-2,0,-1
1511883704660845,-2,-13,-14,-3,-1,-9,0,3
1511883704675384,-3,2,8,-2,-4,-1,0,-1
1511883704675384,2,0,26,0,-2,3,2,2
1511883704682430,-5,2,23,1,2,4,6,-3
1511883704682430,-4,-2,13,-1,4,5,4,-9
1511883704691427,4,-2,-8,-6,-4,-3,-2,-8
1511883704691427,-4,-10,-30,-3,-7,0,-2,-4
1511883704706467,-2,-3,-15,4,-2,0,-2,2
1511883704706467,-1,8,-23,1,-2,1,0,6
1511883704712483,1,-4,-14,4,-1,4,-3,4
1511883704712483,0,-2,-12,1,-1,1,-4,-3
1511883704720504,6,0,-3,-3,3,0,-2,-1
1511883704720504,7,19,1,1,7,-6,1,-1
1511883704735544,-6,-3,5,-12,-1,-4,-1,-3
1511883704735544,-4,-16,-15,-1,9,-3,-2,-3
1511883704742563,-1,10,4,0,3,-5,-3,-1
1511883704742563,-1,0,-4,-2,-2,0,-3,-2
1511883704751587,-3,-3,-2,0,0,1,1,2
1511883704751587,-8,-11,-2,-4,-4,-4,0,3
1511883704766126,4,2,2,5,5,0,2,-1
1511883704766126,1,-3,13,4,5,3,3,-3
1511883704773145,-1,-6,-12,-3,-1,0,-1,4
1511883704773145,-2,-1,11,-2,-5,3,-2,4
1511883704788689,-7,9,3,3,-5,5,-4,3
1511883704788689,6,1,-5,-5,-4,6,3,0
1511883704795708,0,1,1,1,0,-1,-1,1
1511883704795708,-2,-30,-8,-9,-3,-1,-2,-2
1511883704802752,7,26,14,19,18,2,1,-2
1511883704802752,4,-1,-6,-9,-6,-2,0,3
1511883704811768,-11,3,9,8,1,3,0,-4
1511883704811768,8,9,-5,0,-9,-11,-4,2
1511883704856869,-3,2,4,0,-2,-2,2,-6
1511883704856869,2,0,7,0,-7,-7,-1,-3
1511883704859878,1,-4,-10,2,5,-6,2,-3
1511883704859878,1,8,7,6,7,0,-1,0
1511883704871910,-4,-17,-20,-19,-14,-2,-2,5
1511883704871910,-5,8,13,3,0,-3,-4,1
1511883704873415,4,-3,5,-11,-10,-1,-7,-5
1511883704873415,-3,-1,-4,6,0,3,-1,0
1511883704884947,3,-4,-2,-5,-4,-4,-2,-1
1511883704884947,-7,-21,-3,0,5,2,-1,3
1511883704893971,-3,14,6,0,-3,3,5,4
1511883704893971,13,22,12,2,7,2,1,0
1511883704909011,-24,-2,-7,-3,1,-5,-4,-4
1511883704909011,1,-2,-2,-4,-1,-4,-6,-3
1511883704910014,-4,-12,0,1,4,2,-6,2
1511883704910014,15,8,3,3,-1,1,-4,-15
1511883704923048,-34,-24,-7,1,-5,-2,1,9
1511883704923048,0,2,0,2,-4,-2,6,-1
1511883704924051,16,-3,-1,-3,-1,-2,6,13
1511883704924051,-13,-1,-7,-5,1,0,2,-18
1511883704939093,0,-11,-1,-1,3,-3,-9,-33
1511883704939093,1,2,0,3,3,7,8,32
1511883704941099,2,2,3,5,2,3,-3,2
1511883704941099,9,-2,-8,0,-2,5,-2,-10
1511883704945109,6,1,3,1,-1,5,5,12
1511883704945109,-14,0,1,-1,2,-3,-6,-18
1511883704954131,-5,-3,1,-2,-1,-4,2,0
1511883704954131,48,6,-5,-3,-2,-4,-1,10
1511883704968675,-18,-9,-10,1,-2,1,-6,-39
1511883704968675,2,9,-1,-1,1,6,-1,15
1511883704975556,1,2,0,-3,0,0,-7,1
1511883704975556,-7,4,-3,-1,7,1,-7,-8
1511883704991627,-14,-4,-8,-4,-4,-7,8,36
1511883704991627,10,-4,1,1,-6,-9,-5,-9
1511883704993636,-13,-6,2,2,-7,-7,-4,-17
1511883704993636,-7,-5,3,0,-9,-3,4,17
1511883705006641,22,7,2,-4,-3,6,2,7
1511883705006641,-20,-3,0,-7,-3,4,-1,-17
1511883705012690,26,7,-3,0,-1,1,1,4
1511883705012690,-65,-13,1,-2,-5,-6,-5,-7
1511883705028736,20,0,0,4,1,-2,-2,0
1511883705028736,-6,-1,-4,-1,3,-4,0,6
1511883705035715,23,3,-1,0,7,2,-2,6
1511883705035715,14,-3,2,-1,3,-2,-1,-5
1511883705051760,7,2,2,0,-5,-1,0,-1
1511883705051760,-1,1,-3,3,-2,-3,2,-1
1511883705053765,-7,3,1,2,0,-1,7,-1
1511883705053765,0,0,-2,1,1,2,6,5
1511883705065802,17,15,-2,-1,0,-3,-2,9
1511883705065802,4,-2,0,-1,0,1,-8,-10
1511883705073823,5,0,2,1,1,1,-2,11
1511883705073823,-6,-6,5,-3,1,3,3,1
1511883705089004,-6,-6,-1,-7,2,5,3,-15
1511883705089004,-6,-2,-2,-3,-8,-2,0,-25
1511883705095135,-8,-7,-2,0,-4,1,13,27
1511883705095135,-53,-14,-1,3,-8,-2,-2,-3
1511883705112175,-9,-7,-2,7,-3,-1,2,-10
1511883705112175,8,2,-4,2,-1,-2,-1,-5
1511883705113067,-14,-4,-9,-1,-1,-2,-5,-10
1511883705113067,22,2,-3,-3,3,1,-3,13
1511883705125185,-6,-8,-1,-4,4,5,-4,1
1511883705125185,7,-3,-5,-7,1,2,-8,-5
1511883705134123,-12,3,-4,-3,1,0,-4,-14
1511883705134123,17,11,3,-4,1,-3,-1,3
1511883705149163,6,-2,9,1,2,-6,-5,3
1511883705149163,5,1,4,2,3,-9,-2,8
1511883705155182,15,-1,2,-3,-3,-10,2,6
1511883705155182,-12,-10,-14,-2,0,-3,-1,-3
1511883705171922,8,15,7,2,-2,-1,4,7
1511883705171922,-8,0,-3,-3,-4,3,6,-5
1511883705173879,5,-3,-1,4,-2,4,0,-2
1511883705173879,5,-4,1,3,2,2,1,3
1511883705184933,11,8,0,1,-2,-3,-1,0
1511883705184933,10,-4,2,5,2,4,4,6
1511883705193957,-12,-8,4,4,2,-3,-3,-17
1511883705193957,3,-2,-3,-6,-3,3,-1,-4
1511883705207994,-8,0,4,-4,-3,4,0,-4
1511883705207994,-4,1,6,-4,-6,-6,-3,1
1511883705215012,-10,-6,-9,-1,2,-3,-1,-8
1511883705215012,-9,5,3,-2,-6,-3,-1,-1
1511883705232058,18,12,10,2,-4,-1,1,9
1511883705232058,1,6,-19,-1,4,2,-2,12
1511883705233060,0,5,8,1,2,4,-8,-2
1511883705233060,3,3,4,7,4,-2,-4,2
1511883705245093,-9,-13,0,0,-2,-3,-7,-3
1511883705245093,-1,-4,-5,-5,-2,-6,-2,4
1511883705254128,-8,-5,-2,-3,-5,-8,-3,-8
1511883705254128,5,6,-4,-2,1,3,9,-5
1511883705268658,-7,-7,0,-1,3,0,8,-6
1511883705268658,-3,-20,-9,-3,4,1,6,0
1511883705275230,-12,2,27,3,2,3,3,-6
1511883705275230,8,10,-28,-5,-11,-1,-1,-1
1511883705291246,-2,-13,-16,0,4,4,3,7
1511883705291246,0,-5,18,17,13,10,0,7
1511883705293274,-3,-5,14,0,5,1,-2,4
1511883705293274,-6,-8,7,1,0,5,2,1
1511883705305306,2,23,-1,7,4,-3,-8,-4
1511883705305306,-9,-22,-35,-24,-20,-8,-9,-12
1511883705314306,1,17,9,12,14,12,4,2
1511883705314306,-3,3,17,16,10,-2,-7,-7
1511883705328371,1,-5,-21,-17,-4,1,2,-3
1511883705328371,-1,6,27,14,-3,-3,4,-6
1511883705335389,-6,-1,-25,-12,-16,-12,-3,-4
1511883705335389,-2,-7,8,-9,-13,-8,4,10
1511883705351405,-2,0,11,6,-5,-5,-2,-4
1511883705351405,6,15,5,-4,8,4,2,5
1511883705353411,-5,-6,-1,0,6,1,-1,1
1511883705353411,-5,-8,-47,-13,-1,0,2,3
1511883705365499,6,-1,16,7,-8,-5,-3,0
1511883705365499,3,11,5,5,8,5,4,-5
1511883705374020,20,-1,-9,-2,-2,-1,1,-2
1511883705374020,-37,-8,-2,4,2,-1,-4,-10
1511883705388081,-2,-7,-1,3,4,0,0,2
1511883705388081,0,-4,-3,-8,-3,0,-3,-1
1511883705395099,2,-1,-7,0,-3,1,2,5
1511883705395099,10,-1,0,-3,4,1,1,4
1511883705412148,-2,-3,1,-5,-4,3,1,5
1511883705412148,-11,3,4,0,-5,-8,-10,-5
1511883705413124,34,-8,-6,-9,-5,0,-3,10
1511883705413124,-14,1,7,-3,0,1,-3,2
1511883705425182,-61,-20,-10,-3,2,0,-9,-38
1511883705425182,11,-9,-10,-1,-1,-4,2,6
1511883705434182,-8,9,4,3,-3,-9,-3,-25
1511883705434182,26,2,7,4,-6,-4,6,13
1511883705448244,46,8,3,0,-1,1,5,12
1511883705448244,-29,-8,-6,-4,-5,5,0,-4
1511883705455265,-12,0,0,-1,1,4,1,-4
1511883705455265,5,-1,8,6,5,5,0,-5
1511883705471832,5,4,-2,-2,1,4,-5,-4
1511883705471832,2,9,0,0,-1,0,-7,-4
1511883705473313,1,3,-3,-6,-4,-3,-6,6
1511883705473313,0,3,6,2,1,-6,-4,-2
1511883705484938,-8,3,-11,1,-4,-3,4,6
1511883705484938,7,-2,-5,0,-6,-3,2,2
1511883705493960,-10,-5,-8,-1,-5,0,1,2
1511883705493960,8,4,2,-1,2,-2,1,-5
1511883705508983,0,-2,4,-8,-1,-4,-1,3
1511883705508983,3,-2,1,6,1,-1,0,3
1511883705515028,-1,9,7,-3,-5,-3,1,-4
1511883705515028,0,-3,7,6,-1,0,-2,-3
1511883705532069,5,-12,-6,5,-2,0,1,5
1511883705532069,4,-1,-4,-10,-7,-3,2,2
1511883705533040,-5,-9,-5,1,6,1,0,4
1511883705533040,0,-3,1,-5,5,0,-4,-4
1511883705545098,0,-2,-4,-4,7,3,-7,0
1511883705545098,5,8,-3,-1,-4,0,-7,0
1511883705554095,1,-4,-3,2,0,1,0,2
1511883705554095,2,9,6,-1,-2,-3,3,-2
1511883705568636,0,-6,3,0,3,-4,-1,-2
1511883705568636,-5,-11,-4,-8,3,1,0,-4
1511883705575155,1,3,3,-1,0,2,4,1
1511883705575155,-5,-2,-1,-1,3,3,-2,2
1511883705591225,-6,7,4,2,1,2,2,4
1511883705591225,-5,1,6,5,2,0,1,2
1511883705593220,-11,-6,-4,1,1,1,4,-3
1511883705593220,-2,-4,-4,3,-5,-1,3,-6
1511883705605236,5,-3,-2,1,-9,-5,-1,-4
1511883705605236,-1,-5,3,1,-3,-2,-1,-1
1511883705614260,1,-1,0,0,-3,-1,-2,0
1511883705614260,1,6,3,-2,-4,-1,0,4
1511883705628325,-1,0,-1,-4,-1,-3,-1,3
1511883705628325,-1,2,-13,-6,-1,-4,1,-1
1511883705635343,2,2,-6,-4,-7,-5,-4,-5
1511883705635343,1,-6,-5,0,0,-1,-1,-2
1511883705651357,-7,-7,-4,-5,3,-3,-2,3
1511883705651357,1,8,8,9,6,-1,1,3
1511883705657374,-6,-5,-2,3,4,3,0,-3
1511883705657374,0,-2,0,-6,-3,1,-2,-2
1511883705665400,1,-4,-5,3,2,0,-4,-1
1511883705665400,3,2,1,-2,-5,-2,-2,1
1511883705673949,1,0,-1,2,-2,-1,-1,4
1511883705673949,8,4,2,3,0,-1,2,0
1511883705688041,5,-2,-6,-2,-6,-2,1,-2
1511883705688041,1,2,-2,-3,-6,-4,-3,-5
1511883705695053,-2,9,-2,0,0,-3,0,-1
1511883705695053,0,-1,1,0,-4,-5,-3,1
1511883705711071,0,-11,-14,-4,2,-4,2,-1
1511883705711071,1,3,13,1,5,0,2,-3
1511883705718091,-3,-10,0,-2,-1,3,1,-4
1511883705718091,-2,4,5,-5,-2,2,2,-1
1511883705725109,-1,-3,3,0,-1,3,4,3
1511883705725109,1,-4,-3,-3,0,3,0,3
1511883705734134,-5,-2,-10,-5,0,3,-1,1
1511883705734134,-9,-6,-3,-5,-6,3,-4,-6
1511883705748171,0,4,0,9,3,6,4,1
1511883705748171,0,0,0,-2,-3,-1,-1,2
1511883705755216,5,2,-9,-5,0,-4,-4,-1
1511883705755216,3,3,6,1,8,1,-5,-1
1511883705771261,1,1,-9,-10,-3,-3,-1,-2
1511883705771261,-1,-3,11,8,1,-3,1,-1
1511883705777446,-3,2,10,8,2,-1,-4,-3
1511883705777446,-4,-10,-17,-5,1,-4,-3,1
1511883705794492,-1,0,-2,-7,-7,-6,-4,2
1511883705794492,3,3,8,6,5,1,-3,2
1511883705795494,0,-5,-3,-1,4,-1,-1,2
1511883705795494,1,-3,3,-7,-1,1,2,-3
1511883705808529,-1,6,9,-1,-6,0,3,-3
1511883705808529,3,-5,-11,-3,-10,-2,7,0
1511883705815547,6,1,11,1,-1,4,5,5
1511883705815547,-2,4,-10,1,0,-2,-7,0
1511883705830614,-6,-9,0,6,-2,4,1,2
1511883705830614,-7,7,2,10,10,6,-2,-5
1511883705837633,-7,-7,-3,-4,-6,-5,3,-5
1511883705837633,-2,0,-4,3,11,3,9,-1
1511883705854651,-4,-14,-1,-15,-10,0,-2,-2
1511883705854651,6,5,10,6,5,0,-2,4
1511883705855654,-2,-10,5,7,7,3,-3,-2
1511883705855654,8,-1,-9,7,-2,-7,-5,-1
1511883705868717,3,2,12,5,-5,-10,0,0
1511883705868717,-4,-9,-15,-10,-5,0,4,-3
1511883705875757,-3,7,-2,-4,8,4,0,-3
1511883705875757,0,12,2,-9,-10,0,1,0
1511883705890797,0,9,-1,-4,6,2,-2,-1
1511883705890797,8,2,-4,-5,-15,-16,1,5
1511883705897793,2,3,12,18,1,-4,4,4
1511883705897793,-3,-9,9,-2,-18,-7,1,4
1511883705913862,-7,-7,-11,5,10,7,-8,-3
1511883705913862,0,6,1,-12,-17,-2,-10,-4
1511883705915855,5,-1,-5,-13,-12,0,-4,0
1511883705915855,-4,0,5,7,6,0,1,0
1511883705928891,3,6,2,8,7,-2,2,4
1511883705928891,-11,-17,-14,1,14,7,-3,-7
1511883705934924,0,0,-7,-6,-6,-1,-4,-3
1511883705934924,3,11,7,2,3,1,-4,0
1511883705950952,1,7,2,-2,6,7,0,-8
1511883705950952,0,5,-3,-2,-11,-10,-5,-6
1511883705957971,8,-5,7,11,13,3,7,4
1511883705957971,-1,-6,-1,0,4,0,2,-1
1511883705974537,-4,-11,-11,-6,6,2,-6,-3
1511883705974537,1,0,-2,0,-11,0,-4,-7
1511883705975599,-11,-6,-7,-7,-8,-4,-2,3
1511883705975599,1,0,-3,0,-6,-5,3,1
1511883705987656,0,3,4,6,15,-1,7,2
1511883705987656,0,-5,0,-4,1,-1,5,5
1511883705996663,0,19,-1,-7,-2,-2,-1,-2
1511883705996663,-4,-7,-2,-8,-4,7,-1,-3
1511883706010700,-6,-1,7,-4,-12,-5,-2,-1
1511883706010700,1,8,-2,0,7,1,8,2
1511883706017719,-1,1,14,3,-2,-8,-1,0
1511883706017719,0,-7,-17,-4,6,-3,-4,1
1511883706034765,3,-4,-2,-2,-17,-10,-11,0
1511883706034765,2,9,3,8,9,5,-3,6
1511883706035761,4,-9,-19,-15,-8,-3,-4,2
1511883706035761,9,4,18,9,2,5,8,13
1511883706047830,-31,-3,-5,0,-4,-5,1,-27
1511883706047830,1,-12,-17,-6,5,-4,10,9
1511883706056815,15,8,16,13,-1,0,1,-3
1511883706056815,-17,13,9,0,-5,-6,-6,-1
1511883706071389,15,10,4,-4,-7,1,-3,3
1511883706071389,-6,5,13,-1,0,4,-2,-5
1511883706078479,7,-12,-17,-11,-6,-4,-6,-8
1511883706078479,16,-8,2,5,1,-3,-2,2
1511883706094657,-4,-4,-14,3,5,5,-1,2
1511883706094657,16,3,2,1,5,3,-5,-9
1511883706095623,-52,-8,-3,2,3,-2,6,2
1511883706095623,-13,-6,-3,3,0,0,-1,-14
1511883706107499,-8,3,-4,-2,0,-1,-2,-12
1511883706107499,10,-15,-2,0,0,6,-7,8
1511883706116524,14,8,3,-4,1,6,-5,-12
1511883706116524,4,-2,-5,-9,-3,6,-4,5
1511883706130665,2,-4,5,1,3,3,3,9
1511883706130665,3,4,12,7,-2,3,-1,-1
1511883706137683,-2,1,-9,2,-3,-2,0,7
1511883706137683,-5,-3,0,-6,-4,-7,3,-1
1511883706154747,23,0,-11,-2,-7,-4,1,2
1511883706154747,-38,-17,-12,-7,-5,-3,-2,6
1511883706155648,3,18,17,1,2,-3,1,-1
1511883706155648,6,6,4,1,5,-3,1,-5
1511883706168268,9,0,7,1,2,-7,1,-9
1511883706168268,29,-8,-12,-7,-4,-6,2,8
1511883706177438,-4,-5,2,-2,-4,3,-1,-2
1511883706177438,-4,-5,-3,-1,-3,1,-2,-1
1511883706191498,10,8,1,-3,0,2,3,14
1511883706191498,-10,4,3,-3,1,-1,-4,-12
1511883706197514,12,-4,-8,-4,0,1,1,1
1511883706197514,-3,1,0,-5,-2,-3,0,0
1511883706214560,21,-4,-11,0,-2,0,-8,3
1511883706214560,9,11,9,5,-2,0,-4,-3
1511883706215544,-2,-14,6,5,1,3,1,-3
1511883706215544,-6,-8,-12,0,-3,-1,-3,-5
1511883706227567,-9,8,14,-3,-8,-3,2,-2
1511883706227567,-13,-2,-11,-1,-2,-1,3,-5
1511883706236591,-18,-19,-24,-5,0,-7,-2,4
1511883706236591,0,14,7,5,3,0,-3,-2
1511883706250628,-10,-2,16,0,2,-5,-5,2
1511883706250628,1,-12,-30,-10,1,1,-1,-5
1511883706257646,18,4,2,1,-1,5,5,7
1511883706257646,-13,-14,-10,-7,-5,1,-3,-10
1511883706274193,-1,-4,10,2,0,-1,-2,4
1511883706274193,-18,3,13,-1,0,-3,0,-27
1511883706275698,37,7,-4,-1,3,1,0,17
1511883706275698,-10,6,-3,-7,1,4,0,3
1511883706287757,-8,7,7,3,3,4,2,-5
1511883706287757,-9,1,5,2,6,2,-4,-2
1511883706296755,3,2,-5,2,6,1,-3,-3
1511883706296755,13,0,5,4,-2,-4,3,-11
1511883706310791,-8,-8,-17,-5,-6,-9,6,-6
1511883706310791,10,1,7,4,-8,-7,1,8
1511883706317844,-24,-4,-10,-11,-17,-11,-5,-11
1511883706317844,6,3,10,9,8,4,-2,10
1511883706333880,2,0,-8,-2,-3,2,3,4
1511883706333880,2,-8,1,2,4,5,8,7
1511883706335858,-2,-5,1,0,-4,1,0,1
1511883706335858,-3,-20,-16,-2,-5,2,-1,-2
1511883706347917,19,13,3,0,3,2,-4,1
1511883706347917,-11,15,24,4,8,-3,-3,6
1511883706356914,-11,-11,-13,-3,6,1,-5,-5
1511883706356914,-4,6,2,-11,0,5,2,10
1511883706371000,-12,-4,1,-4,7,6,-1,-10
1511883706371000,23,3,0,0,-8,-6,-5,29
1511883706377546,0,1,6,4,0,2,3,-3
1511883706377546,-11,-3,-6,1,-5,-10,-6,-28
1511883706394590,5,1,5,2,-3,-2,-1,1
1511883706394590,-3,-4,-11,-5,1,1,2,-14
1511883706395572,0,6,2,0,0,-1,3,-10
1511883706395572,36,8,1,0,3,3,6,10
1511883706407598,-44,-13,1,3,1,-3,-1,-18
1511883706407598,0,-14,-18,-2,-3,-1,-4,-11
1511883706416639,-9,16,15,1,-5,-5,-7,2
1511883706416639,12,-2,-4,-2,-6,-4,-3,0
1511883706430659,2,-5,-15,-9,-5,-10,-1,9
1511883706430659,2,2,3,5,5,-3,4,1
1511883706437678,10,5,-3,-5,-3,-6,2,2
1511883706437678,-10,0,-2,-2,6,-1,-6,7
1511883706453748,18,16,-2,-8,-2,8,-1,1
1511883706453748,-43,-13,-2,-3,-3,6,-4,0
1511883706455725,10,5,5,1,-6,5,-6,0
1511883706455725,-33,-9,6,2,-9,-3,-5,-8
1511883706468301,-10,-8,-5,4,-7,-2,-5,21
1511883706468301,8,1,4,-1,-3,1,-1,-1
1511883706476841,7,-4,-13,3,1,-1,-1,8
1511883706476841,-41,-10,-3,2,5,-3,-2,-31
1511883706490874,-5,-3,-5,-2,6,0,7,24
1511883706490874,-1,6,4,-5,0,0,4,1
1511883706497918,-10,3,3,1,1,0,-1,-3
1511883706497918,29,9,-3,-6,-3,-4,-1,5
1511883706513960,-5,-6,-1,-2,0,-1,-6,-12
1511883706513960,3,5,-2,-1,-3,-5,-8,-3
1511883706515939,-7,-3,7,-1,-5,-2,-2,4
1511883706515939,26,1,-3,2,0,2,4,6
1511883706528002,-24,-3,3,2,-5,-5,6,14
1511883706528002,6,10,-11,2,-1,2,7,10
1511883706536995,-10,-4,2,1,4,-1,2,-24
1511883706536995,6,8,5,1,4,-2,4,22
1511883706551060,11,-5,-7,-2,6,3,-3,-9
1511883706551060,0,2,10,5,2,-1,-4,-3
1511883706558078,3,2,-5,0,3,0,-5,-1
1511883706558078,0,14,1,2,-1,3,-3,-3
1511883706573648,12,10,9,-1,-3,1,-3,-10
1511883706573648,-17,-16,-9,-6,-3,-2,-3,-5
1511883706579904,-5,-5,1,-2,-3,0,0,-10
1511883706579904,4,-8,-2,-2,0,0,5,9
1511883706587921,0,1,-8,2,2,-2,-3,-5
1511883706587921,22,5,-2,-6,-3,-6,-1,-1
1511883706596922,-23,-15,-1,-13,-10,-9,-1,5
1511883706596922,-4,5,4,1,3,1,1,-4
1511883706610959,12,-5,0,2,1,1,2,-13
1511883706610959,-7,-6,0,3,1,-1,4,-7
1511883706617978,15,21,23,5,3,1,-1,-4
1511883706617978,25,-1,-16,-3,-7,-2,0,34
1511883706633018,-27,-5,9,-3,-4,-2,-2,-7
1511883706633018,10,0,-3,2,-6,0,-3,-6
1511883706640066,-9,-6,-5,0,-3,1,-1,2
1511883706640066,-1,-10,-3,-3,-6,-2,-7,-1
1511883706648088,16,21,11,7,2,3,-2,11
1511883706648088,1,-15,-14,-7,0,2,-3,9
1511883706657082,-2,3,-1,-2,6,-1,5,10
1511883706657082,12,-27,-11,0,4,-2,7,9
1511883706671173,3,-6,-3,1,0,-4,0,6
1511883706671173,-29,1,8,5,2,-1,-4,0
1511883706678168,1,10,2,1,-7,-1,-4,-5
1511883706678168,-9,-5,7,2,6,6,-2,-12
1511883706693208,20,26,1,-3,-3,3,3,-2
1511883706693208,6,-13,-17,1,-1,-3,-1,-10
1511883706700254,7,-6,5,-9,-7,0,4,-14
1511883706700254,-16,10,-20,-10,-2,-6,0,-4
1511883706708275,-27,-14,6,-2,-9,-6,-1,-6
1511883706708275,-1,0,-16,-8,-9,-3,0,1
1511883706717273,6,-7,6,0,1,2,-6,-1
1511883706717273,0,-23,-2,-8,-6,-3,-8,-16
1511883706731335,17,-12,-4,-9,7,3,-3,-7
1511883706731335,12,19,8,2,4,0,-3,6
1511883706738328,-21,17,9,0,6,-2,-4,-11
1511883706738328,-14,-18,-13,-2,-2,4,1,10
1511883706753397,-1,-5,-1,-4,-9,1,1,2
1511883706753397,5,1,5,0,-5,-3,9,2
1511883706760440,19,-20,-31,1,1,0,7,3
1511883706760440,-2,14,33,10,1,2,0,-9
1511883706776507,6,-10,-23,-1,-3,2,-4,-6
1511883706776507,10,0,-11,-2,2,6,-6,-2
1511883706778513,-3,-19,3,-14,-7,3,-2,0
1511883706778513,-5,14,11,-4,-1,0,-1,-10
1511883706822632,4,-26,-1,3,2,1,2,3
1511883706822632,-7,-1,6,3,-1,-5,0,-1
1511883706824612,-13,-16,-22,-2,-4,-5,4,6
1511883706824612,-5,1,-4,0,-6,0,2,-3
1511883706837646,15,4,-4,-2,0,-1,-2,-7
1511883706837646,-7,14,15,-4,2,-1,0,-2
1511883706842659,-33,-11,-11,-5,1,-5,-2,-10
1511883706842659,13,-1,-7,2,1,-6,1,-1
1511883706875271,1,18,1,6,3,-1,0,-1
1511883706875271,0,-5,7,1,-3,1,-6,-2
1511883706877562,16,10,5,2,5,7,-1,8
1511883706877562,2,3,1,7,6,7,2,-2
1511883706887611,-11,-8,-7,-2,-2,-2,2,7
1511883706887611,9,-1,-2,-1,-4,0,4,3
1511883706896614,5,9,6,8,-4,-2,-4,8
1511883706896614,-9,-2,-8,-2,-1,-4,-7,-3
1511883706911652,-5,-7,-1,3,4,0,-3,4
1511883706911652,2,7,8,-2,4,0,3,2
1511883706913658,-1,-2,-1,8,12,-1,-2,1
1511883706913658,-6,1,-1,-1,-5,-3,-2,-5
1511883706925690,0,7,3,-4,0,-5,1,3
1511883706925690,3,-9,-10,1,4,2,-1,0
1511883706926693,-2,10,-6,3,-5,-1,-2,5
1511883706926693,1,9,14,-4,1,-2,2,10
1511883706940856,-5,-11,1,0,-2,-3,-1,8
1511883706940856,-4,-3,4,-3,4,0,2,5
1511883706949753,5,7,14,-1,-2,3,1,7
1511883706949753,5,-7,-16,-1,-9,1,1,3
1511883706955874,-2,-4,-13,1,0,4,0,-6
1511883706955874,-5,8,10,0,-7,5,-4,-4
1511883706964419,-4,-12,-15,4,3,-1,-6,-5
1511883706964419,-2,-2,10,-1,-7,-5,2,-3
1511883706979569,-11,7,5,-1,-2,1,3,0
1511883706979569,0,-3,-4,-1,0,-5,0,-6
1511883706980535,5,-2,-7,-3,6,3,7,-6
1511883706980535,1,4,8,-5,-1,-1,0,-2
1511883706993596,-7,-6,-3,3,8,3,-3,-5
1511883706993596,3,9,7,-5,-3,3,0,2
1511883707000717,3,5,-7,-2,-2,1,3,2
1511883707000717,1,2,10,4,0,-2,-1,0
1511883707007652,0,-1,-5,1,-1,-2,3,-2
1511883707007652,2,2,-3,9,9,2,-1,-14
1511883707016633,4,-4,-1,-1,-3,0,3,6
1511883707016633,-11,-4,-7,-3,-1,2,0,1
1511883707031843,27,9,12,-3,-2,-4,-9,-10
1511883707031843,-27,1,11,1,5,0,-4,-6
1511883707033674,-7,-2,-10,1,7,9,1,8
1511883707033674,-30,-10,-8,1,2,4,-1,-11
1511883707045735,-4,4,1,-2,-8,-5,1,-1
1511883707045735,3,-7,-3,-4,-7,-7,2,9
1511883707046709,-25,-7,3,-5,-5,-9,-3,-3
1511883707046709,17,18,13,2,-1,-2,4,4
1511883707061606,7,-3,1,-4,4,6,-5,0
1511883707061606,6,-6,-8,-6,-2,3,-7,-3
1511883707068493,9,4,5,-3,-4,-5,-11,-17
1511883707068493,13,4,0,0,6,7,2,9
1511883707084688,-13,-1,3,1,-1,-1,9,5
1511883707084688,10,3,7,4,-4,3,5,10
1511883707085609,37,10,8,4,-3,-5,-2,-33
1511883707085609,-18,-8,-12,-4,0,-2,-2,1
1511883707097710,-21,4,5,-1,-1,2,-1,-5
1511883707097710,38,5,-16,-6,0,-1,-1,-3
1511883707106696,7,2,4,-2,2,1,1,7
1511883707106696,9,1,-3,-2,-3,2,-2,-6
1511883707120706,9,-3,-7,-5,-6,-6,-2,6
1511883707120706,-15,-3,-2,5,-4,-3,-2,2
1511883707127847,-3,-2,-6,-3,-2,3,-1,11
1511883707127847,3,1,-1,2,4,3,-1,-13
1511883707143788,-1,2,4,0,1,0,-1,14
1511883707143788,-1,-3,3,3,0,0,0,3
1511883707145769,-9,-2,5,0,-5,-1,-3,10
1511883707145769,19,3,5,0,1,-4,-4,-3
1511883707167115,-1,-5,-13,-2,2,-2,-3,-7
1511883707167115,-22,-3,3,0,4,-1,0,-22
1511883707168502,9,-3,12,-1,2,-4,7,15
1511883707168502,31,8,-9,0,-3,-2,4,0
1511883707180820,-3,2,8,4,2,1,5,0
1511883707180820,-30,-3,-2,-3,3,-2,1,9
1511883707189732,-8,-5,-5,-5,2,-2,-3,2
1511883707189732,27,2,6,4,1,-4,-4,19
1511883707196750,1,-3,-14,-8,-9,-1,-5,10
1511883707196750,5,-5,-4,-4,-7,-1,-2,0
1511883707198755,-9,-1,4,-2,-6,0,0,4
1511883707198755,-12,-1,2,2,-2,-2,0,2
1511883707209784,4,2,-2,2,2,-1,-2,0
1511883707209784,4,8,8,0,4,-1,0,1
1511883707218808,23,4,-8,0,2,-1,2,0
1511883707218808,-28,-2,0,-1,-3,-3,-3,-11
1511883707233848,3,-3,2,-1,-1,-2,-4,-3
1511883707233848,12,0,3,-2,-2,-2,0,3
1511883707239865,-7,-5,-2,-2,-2,-1,1,-5
1511883707239865,-21,-1,-6,-2,-1,-1,-1,2
1511883707256937,0,4,0,2,0,2,-4,-7
1511883707256937,-4,-5,-3,1,3,1,-3,2
1511883707257953,-7,3,5,5,2,-6,-4,-4
1511883707257953,-2,-8,-3,1,7,-2,0,0
1511883707302080,-2,-3,4,2,6,-5,3,-5
1511883707302080,9,-1,0,0,2,-1,3,-5
1511883707305111,5,-5,0,-3,-5,3,3,-7
1511883707305111,-4,-3,3,-4,-9,-2,1,-8
1511883707315141,15,2,6,-5,-4,3,2,3
1511883707315141,-6,-1,-8,-5,-8,-3,-3,-1
1511883707324139,1,-2,-8,-1,-6,-2,-6,2
1511883707324139,1,-2,-1,-5,0,-5,-3,3
1511883707339209,-5,0,5,1,3,0,2,-3
1511883707339209,1,-3,8,1,2,3,-1,-1
1511883707341211,-13,1,-7,-1,7,2,-1,-6
1511883707341211,4,1,-1,-2,0,-1,-2,1
1511883707354246,-1,3,3,4,-6,-5,1,0
1511883707354246,-2,2,1,-1,-2,-1,0,-2
1511883707356252,4,6,-1,4,0,2,0,1
1511883707356252,-2,0,-3,-2,-9,-4,0,-4
1511883707368283,4,-2,2,3,-2,0,4,-4
1511883707368283,6,-2,0,-2,2,0,5,0
1511883707376329,-2,2,10,2,6,-2,3,-1
1511883707376329,1,-1,7,1,3,2,-2,3
1511883707391370,-5,2,7,-5,-1,3,-7,0
1511883707391370,-2,-11,-12,-6,-3,-1,-6,1
1511883707393375,-2,0,6,-2,-12,-4,-2,3
1511883707393375,-1,-3,3,5,6,2,0,4
1511883707406440,1,0,-6,-6,-6,-8,3,4
1511883707406440,-2,3,10,7,-4,-7,-2,0
1511883707406440,-8,-8,-5,4,6,0,-4,-4
1511883707406440,1,3,-4,3,6,2,-2,-3
1511883707420473,6,8,9,0,5,-1,0,-4
1511883707420473,5,-3,-5,1,8,18,8,-4
1511883707429470,-1,-1,-5,-12,-4,-8,-6,-4
1511883707429470,-2,-2,-2,-6,-18,-19,-9,1
1511883707436513,-2,-1,0,0,6,2,-2,4
1511883707436513,-2,4,-6,-8,0,-5,-5,3
1511883707438521,-1,-4,3,11,2,-7,6,2
1511883707438521,3,-1,-13,-11,16,11,4,-1
1511883707450553,8,1,11,19,1,-2,-1,0
1511883707450553,1,1,-1,-10,-7,-14,-3,-4
1511883707459577,0,4,14,-12,-8,10,6,2
1511883707459577,-7,-25,-19,2,10,4,0,1
1511883707473639,3,26,0,-19,-27,-8,-8,-6
1511883707473639,-5,-17,-1,36,32,13,-2,-1
1511883707480661,-5,1,3,7,1,-10,-9,-5
1511883707480661,-6,-31,-3,3,-7,-3,7,3
1511883707496731,6,15,14,6,9,0,2,6
1511883707496731,4,-2,-18,11,5,0,4,7
1511883707498736,0,-3,-5,-31,-35,-11,1,2
1511883707498736,2,6,10,2,3,5,1,-1
1511883707510773,-7,-15,-11,0,6,5,-6,-7
1511883707510773,0,-3,-9,-15,-8,-2,-2,-10
1511883707518789,0,8,4,8,9,10,3,-7
1511883707518789,3,4,-2,-6,-14,-9,-1,-5
1511883707533835,-5,-7,-7,2,-1,-5,0,0
1511883707533835,-7,0,2,-11,-13,-8,-4,-2
1511883707540821,-2,-6,-5,7,2,-2,0,3
1511883707540821,0,10,1,-8,-2,2,3,3
1511883707555888,3,-4,-11,-1,10,6,5,2
1511883707555888,6,4,7,-7,-4,-1,-2,-5
1511883707564426,-19,-8,0,3,9,5,0,1
1511883707564426,5,5,0,6,1,2,-2,-3
1511883707570453,6,-7,-8,3,-1,0,0,-3
1511883707570453,-20,4,11,-3,-8,-4,1,-2
1511883707579481,-1,0,-5,0,-3,1,-6,5
1511883707579481,0,11,5,-6,-8,1,-11,4
1511883707593518,-10,-11,-5,-8,-5,1,-4,2
1511883707593518,14,4,0,0,1,4,2,3
1511883707600559,9,8,-1,4,8,6,8,-3
1511883707600559,-3,-4,-6,2,0,-5,5,-10
1511883707615577,11,-2,-1,2,3,-1,-2,-1
1511883707615577,3,1,10,0,-1,-1,-4,3
1511883707622634,2,-4,-22,0,-1,0,-2,-2
1511883707622634,-6,11,0,-2,0,2,1,-1
1511883707630643,-10,-4,-4,-4,0,1,2,-1
1511883707630643,-4,14,9,1,1,-2,4,3
1511883707639640,5,19,9,-5,0,-5,1,-1
1511883707639640,7,-4,11,4,0,-1,2,-2
1511883707653702,-2,-3,-8,-3,-3,-1,-2,-1
1511883707653702,-3,-22,-8,4,-2,-2,-7,1
1511883707660719,5,1,2,-8,-6,-5,-2,4
1511883707660719,-5,-3,2,-2,0,-1,0,3
1511883707676286,-4,4,-2,3,0,-2,6,-2
1511883707676286,5,4,-5,1,-8,0,4,1
1511883707683318,4,-4,-1,1,-2,1,-5,2
1511883707683318,2,-2,-2,2,-3,-3,-6,1
1511883707690348,-4,-5,0,1,0,0,-2,2
1511883707690348,-1,0,3,-3,-3,-4,1,-4
1511883707699347,-3,-6,2,1,4,2,3,-5
1511883707699347,-2,0,4,1,2,2,0,-8
1511883707713409,4,0,9,0,0,0,-1,-1
1511883707713409,-2,-1,-10,-4,-4,-2,-6,1
1511883707720427,0,1,4,4,4,9,-2,5
1511883707720427,-3,-4,-2,-3,-5,2,-6,6
1511883707736448,1,3,-8,-2,-8,2,-3,4
1511883707736448,4,7,0,0,-3,1,-3,-2
1511883707742464,0,-3,-6,-1,-13,-5,-2,-5
1511883707742464,-3,-2,-5,-8,-1,-1,7,-5
1511883707759508,0,1,3,-3,3,-3,4,-5
1511883707759508,-1,-1,3,-6,3,-6,8,1
1511883707761014,3,1,1,3,5,-5,7,0
1511883707761014,2,1,2,3,2,-4,7,0
1511883707774550,-1,-11,-6,-2,-3,-2,0,-2
1511883707774550,1,1,-2,3,3,-2,-5,0
1511883707780597,1,-5,-1,-4,-1,4,-7,-6
1511883707780597,4,1,1,-6,-4,1,-8,2
1511883707796609,3,-3,1,-3,4,0,-1,4
1511883707796609,1,-1,2,0,-1,-1,1,-1
1511883707802655,-3,-7,-2,-2,9,-1,-1,-3
1511883707802655,-6,-2,-2,-1,-3,-2,-6,-7
1511883707818668,-4,12,-1,0,-6,2,-7,-3
1511883707818668,-2,4,-1,-1,-3,-2,-5,2
1511883707819671,-2,2,-3,5,-2,-2,-3,0
1511883707819671,-5,-14,-11,6,9,2,-5,-4
1511883707840755,-1,4,6,0,-5,-2,-8,-5
1511883707840755,0,-12,-4,1,-8,-5,3,-3
1511883707841730,0,-13,1,2,2,-6,1,-1
1511883707841730,2,-4,-19,-2,-10,-8,6,6
1511883707856769,3,8,19,5,14,6,9,4
1511883707856769,-4,-9,3,-2,-4,0,2,-3
1511883707863288,0,6,0,-2,1,-3,-3,-5
1511883707863288,2,-2,-10,-1,9,5,-2,1
1511883707878357,-3,-14,-2,-6,-26,-20,-2,-1
1511883707878357,6,-5,-5,-5,0,-2,2,-5
1511883707879360,5,-3,-1,9,-1,-1,4,0
1511883707879360,3,12,21,7,5,6,4,-5
1511883707894400,-9,-2,-4,-4,9,9,-1,-5
1511883707894400,-2,3,-7,-1,8,5,-5,1
1511883707900442,-3,-2,-1,-12,-24,-22,-6,2
1511883707900442,6,3,4,1,-4,-10,-4,4
1511883707916485,-5,-1,-6,1,14,0,3,0
1511883707916485,-5,1,4,-2,12,4,1,-3
1511883707922501,-4,1,-8,-14,-17,-2,2,-1
1511883707922501,3,16,15,11,5,9,3,2
1511883707938517,1,-8,3,1,-5,-1,-2,-3
1511883707938517,5,3,-3,0,-16,-3,-4,-1
1511883707939520,-2,-1,3,8,29,10,-7,0
1511883707939520,-7,-11,-7,-9,3,-2,-3,0
1511883707954564,-4,7,-10,1,14,7,-4,4
1511883707954564,-8,-5,-4,-11,-19,-8,-5,5
1511883707960600,7,-14,1,-1,-37,-21,8,8
1511883707960600,0,19,4,-2,9,7,8,2
1511883707977287,7,-3,2,8,5,5,3,3
1511883707977287,1,0,-3,5,6,3,-1,-4
1511883707983312,-5,-8,-11,-4,7,8,-4,-7
1511883707983312,2,-1,0,0,0,-3,-6,-8
1511883707998334,-2,-6,-3,-8,1,-3,-6,-7
1511883707998334,2,10,5,8,12,2,-1,-4
1511883707999312,-2,14,8,-7,-9,-1,5,3
1511883707999312,-3,1,4,-6,-21,-6,4,7
1511883708021373,-6,-1,-8,-2,-13,-6,-1,-1
1511883708021373,2,-5,6,-1,-13,-2,-4,-1
1511883708022373,-1,7,-1,16,41,22,-1,-2
1511883708022373,-6,-14,-5,-4,2,-3,-4,-2
1511883708037452,13,10,3,-15,-41,-12,3,2
1511883708037452,2,0,-6,9,28,15,8,-1
1511883708043453,-4,-5,-3,-11,-10,-8,-4,-1
1511883708043453,-3,0,-3,3,-24,-6,4,10
1511883708058562,-1,3,3,3,17,8,4,9
1511883708058562,-5,-7,-16,-5,-4,-1,-6,2
1511883708059471,3,4,3,7,15,14,-6,-7
1511883708059471,1,0,7,-5,-2,-1,-11,-12
1511883708081216,-2,-9,-1,-3,-19,-16,-3,-3
1511883708081216,4,11,15,5,15,1,1,4
1511883708082219,-4,-11,-11,-1,-1,-1,-2,-2
1511883708082219,-1,-15,-5,-14,0,-12,-7,-7
1511883708097256,8,7,-3,4,4,-1,7,3
1511883708097256,-1,-1,-4,-3,9,-2,7,-3
1511883708103275,-1,5,14,6,0,8,8,1
1511883708103275,-5,6,-6,0,4,12,3,0
1511883708118311,-3,-8,1,7,20,11,-7,-4
1511883708118311,-2,0,-4,-18,-29,-13,-2,1
1511883708119314,11,-2,-3,0,-2,-5,0,-4
1511883708119314,1,5,-6,1,-20,-10,-1,1
1511883708141400,-1,0,11,12,8,5,0,-3
1511883708141400,-4,-6,-4,0,8,1,-9,-4
1511883708141400,1,11,9,-4,-8,-6,-4,3
1511883708141400,-1,-6,-11,-3,17,11,-1,-3
1511883708170456,-1,-4,-5,-17,-24,-15,-8,-1
1511883708170456,8,8,13,10,8,5,1,4
1511883708179628,-30,-9,-10,-1,13,3,-7,-4
1511883708179628,-3,-2,1,9,3,1,-3,-4
1511883708201686,-3,-7,-3,-10,-4,3,-5,-2
1511883708201686,-1,7,14,5,-19,6,3,2
1511883708203710,10,3,1,0,-9,-2,-10,-3
1511883708203710,4,4,2,0,8,-3,-6,-3
1511883708208732,-5,-7,-11,1,6,-5,1,7
1511883708208732,2,1,-8,2,-7,-9,3,1
1511883708209734,6,1,6,1,0,-6,9,-2
1511883708209734,-13,-9,2,0,-3,-3,8,-2
1511883708216727,9,1,-3,0,-3,1,3,-7
1511883708216727,-2,-1,-7,-9,-5,3,3,-3
1511883708222743,-4,-6,-5,-10,-8,0,7,6
1511883708222743,20,7,8,5,10,1,3,0
1511883708238785,-30,-4,4,-1,2,-2,-5,-5
1511883708238785,19,-1,-6,0,7,3,1,8
1511883708238785,11,-1,-6,-5,1,-1,-5,9
1511883708238785,-35,17,10,1,-3,-1,-4,-12
1511883708261402,1,-4,6,2,5,7,5,14
1511883708261402,-4,3,-7,-2,2,1,-1,-13
1511883708261876,2,-3,2,4,2,-4,-5,9
1511883708261876,-3,-2,-2,4,-2,-5,-6,7
1511883708276414,4,4,-10,3,-1,2,-1,-11
1511883708276414,-15,5,12,0,-6,-2,2,-4
1511883708282495,-3,-3,-11,-4,-3,1,10,-1
1511883708282495,21,7,11,2,0,6,2,-4
1511883708298537,2,-13,-10,-8,0,-2,-11,-16
1511883708298537,-7,-3,1,-2,0,-3,-2,14
1511883708299541,9,10,4,2,6,3,0,7
1511883708299541,3,-3,-13,-5,2,-5,0,-5
1511883708320570,-22,-2,-6,-3,1,3,-6,-18
1511883708320570,21,0,7,1,0,0,2,32
1511883708321572,-2,-14,-10,-5,-5,-2,-3,-2
1511883708321572,0,-3,9,8,-7,-8,-1,1
1511883708336611,17,10,10,4,-4,3,6,5
1511883708336611,-4,-12,-7,-4,-3,1,-1,-6
1511883708342651,-5,7,7,3,5,7,-1,-5
1511883708342651,-18,-17,-15,-7,-1,4,-8,0
1511883708358694,-6,1,6,1,5,-1,-4,4
1511883708358694,-6,0,-3,-1,2,-2,-2,-8
1511883708359707,-6,-4,-4,-3,2,-3,-3,-5
1511883708359707,1,1,-1,-7,-1,-3,5,-5
1511883708381235,15,2,2,-4,-3,-5,4,3
1511883708381235,6,0,-1,-9,-2,-6,-4,-7
1511883708381235,6,-1,0,-3,-3,-7,2,1
1511883708381235,26,8,-2,-3,-3,-2,4,12
1511883708397278,-2,-3,3,5,4,4,-1,-5
1511883708397278,26,7,1,0,-2,3,-2,-4
1511883708403293,-24,-11,-2,0,3,5,-11,-12
1511883708403293,1,-1,2,-1,7,4,-8,-1
1511883708418332,-17,-5,-8,-4,1,1,0,-4
1511883708418332,-10,7,5,5,-3,-4,3,-4
1511883708419335,76,14,-9,-5,-11,-2,7,27
1511883708419335,-64,-24,-16,-6,-5,-2,4,-15
1511883708441394,3,-2,-5,2,6,-2,3,-2
1511883708441394,-13,-1,11,3,-2,0,-1,-14
1511883708441394,0,5,2,-4,-7,-4,2,4
1511883708441394,25,10,7,7,-3,-2,1,5
1511883708456461,3,-1,-4,5,-4,1,4,7
1511883708456461,-39,-2,4,1,-2,-2,-7,-18
1511883708462982,-48,-15,-1,-5,0,-6,-7,-8
1511883708462982,1,-4,5,-5,3,-5,-8,11
1511883708478069,9,4,-4,-11,-4,-6,-9,-1
1511883708478069,-13,-2,-6,-3,-4,-2,0,16
1511883708485065,-14,-1,0,0,-5,-4,-10,-9
1511883708485065,4,5,5,2,-3,0,-8,-7
1511883708501107,9,6,3,5,0,4,-5,8
1511883708501107,8,-8,-14,-1,1,2,-5,6
1511883708502110,-34,-3,-1,3,1,4,7,-17
1511883708502110,20,0,3,1,-3,1,9,5
1511883708517150,-26,-9,8,0,-1,-4,6,-4
1511883708517150,2,-15,-24,0,2,-4,4,-11
1511883708523195,-45,11,21,6,11,-2,2,-10
1511883708523195,12,-11,-16,-7,9,1,2,-6
1511883708538232,-19,-1,18,7,8,3,1,-4
1511883708538232,-2,2,9,1,-3,-9,-7,-14
1511883708545251,22,-1,-8,1,0,5,8,3
1511883708545251,7,1,-6,0,-3,-1,6,15
1511883708561294,5,3,-12,-4,-2,0,4,5
1511883708561294,11,2,21,2,-3,-6,-2,-17
1511883708562299,4,-10,-25,-6,-5,2,-1,10
1511883708562299,-10,4,10,-1,-3,1,-4,-1
1511883708576363,24,-2,-14,-7,-6,-3,-7,-2
1511883708576363,25,2,2,-4,-2,7,2,22
1511883708582397,-16,-1,-1,-2,-6,1,-4,-18
1511883708582397,6,-6,-16,-4,-10,3,1,-2
1511883708597464,-15,2,10,5,-6,-2,-7,-8
1511883708597464,2,-6,-3,0,-2,1,0,-1
1511883708605484,29,11,13,5,-1,0,5,12
1511883708605484,-11,-8,-8,6,7,1,1,-7
1511883708620524,14,10,9,2,2,-3,2,6
1511883708620524,-9,-1,-10,-13,0,2,-5,3
1511883708621501,20,-2,-3,9,10,2,-10,-5
1511883708621501,0,3,8,-9,-9,-2,-3,-1
1511883708636541,2,-9,-2,-4,-2,-1,3,-1
1511883708636541,7,8,5,5,-6,-4,2,5
1511883708642556,0,-5,-5,-5,-7,-3,2,5
1511883708642556,-4,1,-11,-3,0,-4,1,-16
1511883708657623,3,3,18,3,-14,-8,4,5
1511883708657623,5,-11,-6,2,19,3,-3,0
1511883708665674,-27,21,-1,4,3,-5,-4,0
1511883708665674,9,-6,4,9,9,5,-7,-6
1511883708680641,-42,5,-19,-8,-6,2,-4,1
1511883708680641,4,10,15,7,-8,2,3,5
1511883708681620,-14,-7,10,-7,-7,-3,1,-10
1511883708681620,5,-3,15,-4,-7,-5,5,5
1511883708696661,3,-5,-14,8,17,4,5,-1
1511883708696661,-8,-7,-6,-12,-3,2,-3,-5
1511883708702703,-6,-7,-6,-3,6,5,-5,2
1511883708702703,8,7,0,-7,-8,-3,-6,4
1511883708717741,14,12,9,7,5,4,0,0
1511883708717741,-16,-11,-8,4,-3,-4,-2,-9
1511883708724734,20,7,3,9,4,1,3,-9
1511883708724734,-1,7,10,-3,-4,-3,3,4
1511883708740804,3,-11,-24,-3,1,-4,2,1
1511883708740804,6,4,0,-6,-2,-5,1,1
1511883708741780,11,6,12,1,-3,-5,0,4
1511883708741780,-6,-11,-17,2,3,-2,4,7
1511883708756820,4,-10,4,-3,-1,-1,-2,0
1511883708756820,3,-1,-4,2,-4,-1,-4,-7
1511883708762861,-44,-32,-11,-3,-5,-2,-7,3
1511883708762861,12,8,9,7,6,7,-2,11
1511883708800008,-12,-1,-1,-4,-2,4,-2,-10
1511883708800008,5,-8,-10,-2,5,-2,-4,-1
1511883708809013,3,-6,-5,-1,4,0,3,-7
1511883708809013,4,11,6,-4,-1,-3,1,-4
1511883708824049,1,-2,2,-7,-5,-5,5,6
1511883708824049,-12,0,1,-5,-7,2,3,4
1511883708826054,7,9,11,6,4,0,-1,1
1511883708826054,-6,-7,-7,-7,-2,-1,-1,-3
1511883708839112,7,-14,5,4,-5,-1,-2,-6
1511883708839112,0,14,8,6,8,5,3,3
1511883708841104,26,26,10,-1,-2,1,1,7
1511883708841104,-4,-4,-3,8,9,6,2,-1
1511883708853126,9,13,-6,-7,1,-5,-3,-2
1511883708853126,-1,-11,-9,-4,-2,-2,-4,-6
1511883708862206,10,-7,-13,-2,0,2,-1,-6
1511883708862206,-3,5,4,0,-2,-3,-2,3
1511883708891812,17,0,-1,-5,-3,2,-1,-13
1511883708891812,9,-7,-7,5,-1,4,3,21
1511883708897800,15,0,2,3,-1,1,-4,0
1511883708897800,-6,0,7,3,-1,-10,-3,14
1511883708904846,-11,5,12,-2,4,-2,-1,0
1511883708904846,5,-1,-6,-5,-3,-3,4,0
1511883708912841,0,-8,6,2,-2,-3,0,-4
1511883708912841,14,12,6,9,0,1,1,-3
1511883708928910,-1,1,-7,-1,-4,-1,-7,4
1511883708928910,-11,-1,6,-3,-1,1,-2,-9
1511883708930890,-19,-28,-19,-10,-3,5,1,-3
1511883708930890,-3,22,17,-2,0,4,4,-5
1511883708943050,18,25,5,3,9,-4,1,5
1511883708943050,-17,-19,-10,-2,3,-3,-1,0
1511883708951949,9,1,-1,-4,3,1,-2,11
1511883708951949,4,-10,-7,-4,-9,-7,-8,-1
1511883708958969,1,-6,8,5,-1,4,2,3
1511883708958969,6,0,8,-4,-2,0,3,3
1511883708965841,5,2,2,-6,-7,-3,6,0
1511883708965841,24,10,4,2,2,4,3,-4
1511883708973312,-5,-2,-2,2,-6,3,-3,-4
1511883708973312,3,2,-6,2,-2,4,-3,-3
1511883708982387,6,-2,-2,2,-3,0,-1,7
1511883708982387,-2,-9,-8,0,1,-2,-3,-5
1511883708996385,4,-6,-5,0,3,-7,2,1
1511883708996385,-9,6,2,-1,5,-10,-3,-9
1511883708998389,9,10,7,-3,3,-1,-3,-7
1511883708998389,-12,-14,-16,2,5,3,-3,-4
1511883709011467,-8,-4,0,-6,-5,7,-5,1
1511883709011467,2,-5,7,-7,-6,5,2,3
1511883709017567,1,13,14,7,2,-2,2,1
1511883709017567,-9,-5,1,3,1,-2,1,-2
1511883709025503,4,13,-6,1,-10,-9,3,4
1511883709025503,4,19,-14,-3,-4,-4,1,-3
1511883709033507,-8,-9,-4,-9,-15,-13,-1,1
1511883709033507,-14,-5,-3,7,8,7,6,0
1511883709048527,0,-8,2,-7,1,-6,-1,-2
1511883709048527,-1,3,9,-6,-5,-4,-5,-8
1511883709049524,1,-1,8,11,6,12,0,-1
1511883709049524,-7,-6,-10,5,4,4,0,4
1511883709072087,-4,-1,3,-22,-19,-3,5,5
1511883709072087,-10,-11,-19,16,40,13,-5,-2
1511883709072589,-10,-8,7,-14,-21,-15,-11,-9
1511883709072589,-1,-20,-14,11,23,1,3,2
1511883709085951,3,12,3,-1,5,-2,0,-4
1511883709085951,1,-2,9,4,-13,-4,3,-1
1511883709086764,5,1,-5,-7,12,8,0,3
1511883709086764,2,7,5,-15,-39,-16,-10,2
1511883709100803,6,-13,-10,13,16,14,-3,-4
1511883709100803,-1,5,5,-12,-10,-4,-7,-2
1511883709101803,4,14,6,-2,-16,-2,-3,1
1511883709101803,-5,-8,1,-7,-9,-3,0,-4
1511883709116843,-9,-15,4,1,2,0,3,-9
1511883709116843,0,2,-3,4,2,-2,2,-2
1511883709122970,-34,-9,-13,2,11,-1,0,-6
1511883709122970,-1,2,0,-7,-1,-2,5,4
1511883709138004,-4,4,-6,-1,2,-1,4,8
1511883709138004,-5,-8,-2,0,-5,-3,3,4
1511883709145012,3,3,4,7,-1,-5,-3,1
1511883709145012,15,0,-5,-8,-1,4,-1,6
1511883709161146,11,-5,-6,1,1,3,-6,20
1511883709161146,8,10,4,-3,0,-3,-4,-12
1511883709162254,0,2,11,3,12,2,0,-13
1511883709162254,12,9,1,-5,2,-4,1,9
1511883709176689,-5,-5,-1,2,-3,-2,-5,-5
1511883709176689,20,-3,-1,0,-2,8,8,11
1511883709183075,5,1,-5,-7,-2,-4,2,2
1511883709183075,-5,4,-4,-6,0,1,1,3
1511883709198030,0,-3,-4,2,-2,0,-1,-9
1511883709198030,20,7,4,0,-2,-5,-3,19
1511883709205049,-44,-7,-7,-2,2,8,-7,-24
1511883709205049,10,1,-2,-5,-5,-1,-5,-19
1511883709220090,-27,-13,-5,-2,-5,-5,-4,4
1511883709220090,7,-5,2,1,-4,-3,-7,-11
1511883709228111,36,6,-9,1,-3,-2,2,6
1511883709228111,-4,1,7,1,-1,0,-5,-4
1511883709237135,-13,-4,-8,-7,-4,-2,-3,3
1511883709237135,0,6,10,1,5,-2,-7,-34
1511883709243150,0,4,1,5,7,-1,11,45
1511883709243150,-6,-4,-2,4,3,-2,2,-9
1511883709258220,6,7,7,2,2,-4,4,-9
1511883709258220,-9,-4,-7,-5,-2,-1,1,8
1511883709265769,16,-6,-11,1,2,4,3,-5
1511883709265769,13,5,16,4,1,1,0,-4
1511883709281333,3,5,-3,-4,0,2,5,8
1511883709281333,-31,-5,-8,-6,-8,1,6,9
1511883709281333,24,2,-6,-5,-11,1,-5,1
1511883709281333,2,0,2,2,-3,7,1,11
1511883709296347,2,-4,-9,-4,-3,1,-3,3
1511883709296347,14,1,5,1,2,-4,-2,5
1511883709302386,-21,-1,2,-1,3,-7,-3,-15
1511883709302386,-12,-10,-5,-6,-6,-2,0,2
1511883709317429,-1,3,1,-1,-5,-2,0,1
1511883709317429,-15,-5,-2,0,0,-1,2,-8
1511883709325458,8,11,9,3,-3,-1,3,-1
1511883709325458,-6,-3,-5,3,2,-1,0,-4
1511883709340497,1,-1,-2,4,3,-7,-1,-3
1511883709340497,7,-1,6,2,5,-3,-1,-2
1511883709341466,-16,-14,-4,-5,7,-4,-1,-8
1511883709341466,22,23,-7,-3,2,-3,-2,10
1511883709356507,9,16,25,3,-6,-2,-6,-2
1511883709356507,-4,7,-2,-2,-7,-1,-3,1
1511883709363060,-13,-16,-6,-4,-4,1,-5,-5
1511883709363060,-22,-8,-2,-3,2,1,-3,-1
1511883709378162,-6,-9,1,-2,2,4,-5,-6
1511883709378162,-5,0,-6,3,6,5,-2,6
1511883709385181,16,14,-4,1,-1,0,1,3
1511883709385181,0,-5,-10,0,0,-6,1,-12
1511883709400224,9,1,16,8,0,-5,5,-8
1511883709400224,10,-8,-12,-8,-6,-4,3,-4
1511883709408245,-44,-11,-8,-9,-4,2,1,-8
1511883709408245,-7,-4,3,-2,-6,7,-2,2
1511883709417236,-4,1,-1,-3,-1,-2,-4,2
1511883709417236,12,7,4,4,1,-2,3,3
1511883709423279,7,-1,-4,-2,-3,-1,-1,5
1511883709423279,-7,0,13,3,5,5,-3,-11
1511883709438319,14,-4,-9,-6,2,3,1,-4
1511883709438319,6,0,7,2,2,0,4,22
1511883709445337,5,-5,-6,-3,-10,-10,-5,5
1511883709445337,6,-5,8,10,5,-4,-4,-5
1511883709460377,13,-10,-10,2,3,-1,-4,2
1511883709460377,-1,-9,-6,-1,-1,0,-6,-8
1511883709467907,13,4,3,0,0,-5,0,-7
1511883709467907,1,1,3,1,7,-4,2,-1
1511883709476449,-55,-4,-7,-4,2,-3,4,-13
1511883709476449,-18,-4,7,-2,-1,3,5,-3
1511883709482551,-4,-7,-11,1,9,3,0,3
1511883709482551,-3,10,0,-4,-15,-4,3,1
1511883709497587,3,6,0,9,0,2,3,1
1511883709497587,-16,-3,-7,1,0,1,-3,-2
1511883709505608,6,-2,11,6,2,2,-4,-6
1511883709505608,-5,-15,-31,-11,-7,-4,-5,-4
1511883709520625,-3,4,8,-6,-8,3,-4,-2
1511883709520625,-13,1,-6,-1,-11,5,3,0
1511883709527670,16,-1,-5,-1,2,3,0,3
1511883709527670,5,5,14,1,6,-5,-4,-13
1511883709566799,-18,-11,-13,-3,4,-2,-2,1
1511883709566799,2,1,0,1,-3,-2,-4,7
1511883709568281,24,3,9,4,-4,5,1,12
1511883709568281,24,1,-5,-12,-5,6,4,10
1511883709579834,14,10,22,2,4,-3,-2,-4
1511883709579834,-2,-20,-21,2,6,-3,-2,-9
1511883709588880,14,8,13,12,-8,-1,4,9
1511883709588880,18,-1,-3,2,-4,-2,4,11
1511883709603920,3,6,-5,-2,1,1,7,9
1511883709603920,-47,-22,-19,0,6,-6,-4,-23
1511883709605902,5,13,1,-10,7,0,-1,-2
1511883709605902,26,-11,19,13,-2,-6,-1,17
1511883709618937,-51,3,0,-7,-4,0,3,-9
1511883709618937,25,-10,-12,-14,-11,-12,0,7
1511883709620942,-15,-26,-15,-4,10,2,6,3
1511883709620942,-28,13,8,0,11,10,-4,-1
1511883709633005,5,-15,-10,-8,-4,0,-10,0
1511883709633005,4,22,18,19,8,0,-2,4
1511883709641022,-23,-7,-7,-11,-11,-7,-6,-20
1511883709641022,-44,-1,3,1,-6,-5,1,-2
1511883709642022,24,14,18,7,-5,-1,1,-8
1511883709642022,5,-22,-15,-5,-10,1,0,-14
1511883709648038,-25,8,11,-3,-1,3,0,-5
1511883709648038,-9,5,-8,7,9,5,2,-2
1511883709663606,-2,-4,0,6,-1,5,3,5
1511883709663606,-1,1,19,-3,-4,-2,2,13
1511883709664608,21,9,5,0,-2,-3,4,9
1511883709664608,-68,-29,-19,-17,-4,-5,-4,-15
1511883709678121,7,-4,-8,0,7,-4,-6,-6
1511883709678121,9,19,17,-1,8,7,-4,6
1511883709685139,17,-15,-18,-4,-9,-15,-11,12
1511883709685139,20,4,16,4,3,-2,-2,-18
1511883709723268,26,-2,-2,0,4,-1,2,12
1511883709723268,-15,7,-2,-11,-8,-6,-2,-6
1511883709731263,-1,10,10,2,-6,3,2,10
1511883709731263,-6,0,-6,-1,0,5,2,2
1511883709746303,6,-1,-6,-5,-7,-5,2,0
1511883709746303,2,1,9,9,-1,-2,3,-2
1511883709748307,-14,-1,5,-2,-2,0,-6,-10
1511883709748307,21,0,-11,1,11,-1,-3,1
1511883709761847,-10,-11,-10,-7,6,4,-2,-4
1511883709761847,4,9,-4,-1,5,4,1,3
1511883709763352,-6,1,3,6,-5,3,1,-4
1511883709763352,-2,-3,0,3,-10,-3,-1,-2
1511883709775382,1,-5,-2,-4,-8,3,5,1
1511883709775382,-14,-6,-6,-1,-1,4,3,-2
1511883709784407,20,5,-1,4,7,3,3,10
1511883709784407,-36,1,2,-8,-5,0,-7,-17
1511883709799474,1,-6,-15,-6,-4,0,-2,-9
1511883709799474,36,17,8,0,-4,-8,-2,7
1511883709800451,-2,2,-5,-2,2,-8,-2,6
1511883709800451,17,0,-3,5,2,-10,-1,7
1511883709814514,-2,-3,-3,2,-6,-3,-6,-1
1511883709814514,-4,4,8,5,-4,6,-1,-4
1511883709815494,-2,-13,-13,-7,-5,1,-3,-10
1511883709815494,11,11,7,-2,-7,-3,-2,-10
1511883709827549,-26,-2,-3,8,6,3,-4,-23
1511883709827549,35,5,2,-4,0,0,-2,4
1511883709835566,-28,3,3,6,9,-1,-1,-5
1511883709835566,11,-10,-6,-5,3,-2,2,10
1511883709851586,2,8,4,1,-5,-7,6,7
1511883709851586,-9,-5,-5,1,3,-3,6,1
1511883709852611,0,-1,4,1,0,1,3,-7
1511883709852611,-8,-6,-13,-7,-4,4,4,5
1511883709865679,2,-1,1,-8,-2,7,1,1
1511883709865679,-16,2,-3,-7,-2,3,-6,-13
1511883709873673,3,3,-4,-4,2,0,-6,-3
1511883709873673,1,1,-1,0,2,1,-8,4
1511883709888738,1,-5,-4,4,4,-3,-10,11
1511883709888738,-7,-8,-2,0,-8,-11,0,-2
1511883709888738,1,2,5,11,3,-5,5,-2
1511883709888738,5,-1,4,6,5,-4,2,2
1511883709911800,6,-11,2,5,5,-1,0,2
1511883709911800,-12,2,3,-8,-8,4,-2,4
1511883709912803,7,6,-4,-1,0,4,3,-1
1511883709912803,-3,-2,-3,-4,-2,1,2,3
1511883709924837,6,3,0,-3,-7,0,-1,4
1511883709924837,-11,-3,3,4,2,3,-10,-6
1511883709933862,-4,-10,1,1,0,1,-4,2
1511883709933862,2,-2,4,-1,-12,0,2,-2
1511883709948913,3,2,7,-1,7,-2,0,-8
1511883709948913,1,-3,12,2,7,1,0,-2
1511883709948913,-3,-7,3,-2,-10,-12,-7,-4
1511883709948913,-2,-14,0,-9,-15,-6,-1,1
1511883709963956,-9,-11,-4,-3,-2,2,4,1
1511883709963956,1,9,-5,-19,-13,-8,5,-3
1511883709964425,5,4,-7,5,12,-2,9,-6
1511883709964425,-2,2,-21,-7,-1,-2,2,-1
1511883709977458,4,5,3,-7,-14,-4,-1,9
1511883709977458,2,22,0,14,21,10,-4,4
1511883709985505,-5,-9,-12,-7,-17,-3,-8,-6
1511883709985505,3,1,-7,5,2,7,4,-6
1511883710000671,-7,-5,-11,-6,-1,4,5,-10
1511883710000671,-2,-16,-6,5,10,-2,0,-1
1511883710007697,1,-4,-15,-4,-2,-2,-3,9
1511883710007697,-3,-3,1,-2,2,0,-10,3
1511883710023608,2,8,1,3,-10,-8,-4,2
1511883710023608,6,-12,2,-11,0,4,1,1
1511883710024608,-5,9,3,-3,0,-4,-3,-6
1511883710024608,2,-21,3,-4,2,-3,-4,-1
1511883710037645,-4,23,5,6,18,6,-1,-1
1511883710037645,-3,-35,-1,6,-2,-3,1,-6
1511883710045667,1,2,3,-6,-1,7,4,-4
1511883710045667,1,-1,2,9,0,2,1,-1
1511883710060827,2,0,3,-1,-9,-5,-4,-1
1511883710060827,-1,14,-7,-11,-13,-9,-3,2
1511883710067963,-2,-1,1,4,13,3,-6,9
1511883710067963,-2,0,0,-3,-13,-7,-5,3
1511883710082902,-4,-25,-10,-4,-3,2,7,1
1511883710082902,4,33,9,10,16,6,7,0
1511883710083905,-2,-5,0,1,-3,-1,4,-7
1511883710083905,3,7,2,4,18,8,2,-3
1511883710097942,4,3,5,1,-5,-15,-5,-4
1511883710097942,0,8,-14,4,-4,-3,-5,6
1511883710104960,-20,-6,-8,-9,-12,-13,-7,-6
1511883710104960,12,7,-3,1,-15,-6,-4,-5
1511883710120000,7,4,5,6,15,8,-2,-1
1511883710120000,-11,-10,-1,-2,-8,-1,-6,1
1511883710128025,-33,0,12,11,9,4,-1,-14
1511883710128025,5,-4,-6,-9,-1,-1,-2,-3
1511883710144065,-51,-16,-4,-5,-3,1,3,2
1511883710144065,13,7,-1,-1,-10,1,7,-3
1511883710144065,15,-1,-4,0,-3,9,9,3
1511883710144065,-4,2,7,-10,0,7,0,3
1511883710159167,8,8,-6,2,12,0,-8,-4
1511883710159167,-10,-14,-2,6,6,-4,-4,-13
1511883710165628,-4,-25,-6,-6,-13,-11,-2,-6
1511883710165628,21,17,8,2,7,5,4,-1
1511883710180832,5,10,3,-2,-3,-1,-3,2
1511883710180832,-10,-13,-2,-2,1,4,-3,8
1511883710187849,21,-1,0,-6,-14,-7,-6,11
1511883710187849,-8,1,5,9,16,4,2,5
1511883710202886,9,-11,-13,-9,-4,-2,-1,0
1511883710202886,-9,-1,-4,-1,-3,-1,3,-14
1511883710203889,3,0,13,11,19,14,2,-2
1511883710203889,-13,13,-11,-11,-24,-13,-5,-16
1511883710217941,-1,11,14,12,3,7,9,9
1511883710217941,20,-7,-6,1,4,2,-5,10
1511883710224945,-4,-6,-17,-5,-3,0,-5,1
1511883710224945,3,-4,-8,6,8,-2,-3,-5
1511883710239985,35,10,5,5,-10,-10,0,-12
1511883710239985,-12,-3,1,1,-4,-7,8,-5
1511883710248006,1,13,14,0,9,1,5,-3
1511883710248006,-5,-19,-21,-5,4,-5,3,-1
1511883710263604,-9,6,4,-3,-3,-2,1,-9
1511883710263604,-12,-8,-9,1,11,10,4,13
1511883710264579,5,4,-2,-8,-6,1,-6,8
1511883710264579,-12,-2,9,1,-2,3,-8,1
1511883710279121,-1,-16,1,0,-1,5,-4,5
1511883710279121,4,-1,-2,-5,-11,-4,-4,3
1511883710285137,25,3,6,6,-1,1,4,-2
1511883710285137,-62,-4,0,4,-1,-2,1,7
1511883710300177,1,-9,-8,-4,4,6,-2,11
1511883710300177,-1,-2,-1,-7,-5,0,-5,-17
1511883710308198,9,5,14,3,3,-3,1,14
1511883710308198,-2,-6,4,-2,-2,-8,-5,-11
1511883710323238,25,6,-8,-3,0,-4,2,14
1511883710323238,-26,3,8,2,1,-5,-2,-16
1511883710324241,-3,6,-9,0,2,2,3,-2
1511883710324241,26,9,16,4,-2,0,3,1
1511883710339281,-2,-3,-5,0,-8,0,-4,-4
1511883710339281,22,13,-5,-4,-5,4,-11,-27
1511883710345324,-25,-13,-6,5,-1,2,1,21
1511883710345324,21,-11,-8,-5,-1,3,-5,7
1511883710360364,-46,8,12,4,3,-7,1,-15
1511883710360364,-12,-12,2,-2,-2,-7,1,12
1511883710367886,0,4,5,-2,2,-3,0,-24
1511883710367886,-3,-3,-10,-2,4,-4,2,-10
1511883710383029,22,-5,3,2,3,3,2,-2
1511883710383029,-46,-14,-2,5,-6,-5,4,-10
1511883710390046,4,8,-3,-2,-6,3,1,2
1511883710390046,18,1,-2,1,-5,0,-1,12
1511883710399047,8,1,-3,-4,-9,-2,-10,-9
1511883710399047,17,-7,-10,-1,-3,1,-1,4
1511883710405062,69,12,9,2,-2,-1,1,6
1511883710405062,-33,-1,0,-1,0,4,1,-9
1511883710420130,-2,-5,-18,-6,6,4,-2,1
1511883710420130,25,-6,1,-8,2,0,-4,5
1511883710428151,-28,-4,-3,-6,2,-1,-2,-8
1511883710428151,23,19,10,6,4,-2,7,3
1511883710443164,-17,-1,8,9,3,-8,-2,-9
1511883710443164,-2,6,10,4,6,2,11,32
1511883710450210,-3,-8,-11,-5,2,1,1,24
1511883710450210,21,14,20,-2,-4,0,-7,-12
1511883710459206,2,-6,-19,-7,-7,2,-5,-6
1511883710459206,-40,-7,-4,-1,-4,-5,-9,-36
1511883710465752,-17,-2,-13,-2,-7,-1,1,-22
1511883710465752,17,6,7,4,0,3,8,16
1511883710480344,5,0,2,1,2,-1,1,3
1511883710480344,26,9,4,0,6,-1,-1,16
1511883710487365,12,-2,-3,-2,5,0,1,0
1511883710487365,-21,-9,-13,-3,-1,-4,-2,-3
1511883710502402,-2,2,5,-3,-1,-9,0,3
1511883710502402,-17,0,6,3,-1,0,1,3
1511883710510422,2,3,-10,2,-6,-1,0,-5
1511883710510422,4,-3,-14,-5,-4,3,2,2
1511883710519423,-8,-4,-4,-3,1,0,-1,1
1511883710519423,24,0,-7,-2,-1,3,-6,-6
1511883710525466,-14,-14,-2,0,-2,1,-7,-19
1511883710525466,-11,0,-1,-6,-1,-7,-3,4
1511883710540506,-28,-3,11,2,2,-3,4,-8
1511883710540506,15,-21,-10,-4,2,2,4,6
1511883710547499,34,19,12,5,4,3,0,7
1511883710547499,-20,-2,10,2,-5,-5,-3,3
1511883710563048,10,-2,-1,-4,-1,-2,-1,-7
1511883710563048,6,7,-10,3,-3,2,5,10
1511883710570589,-18,-16,-2,-2,-8,0,-2,-5
1511883710570589,28,-1,-5,-2,-4,-2,-4,16
1511883710585484,3,6,27,5,0,-1,-8,14
1511883710585484,9,12,-2,-1,0,-2,-10,-10
1511883710586496,-5,1,-2,-3,-1,-1,-1,3
1511883710586496,-15,-5,-8,0,1,6,5,5
1511883710600524,43,-3,-12,2,1,4,7,10
1511883710600524,-40,11,16,4,4,1,2,-10
1511883710607542,-9,3,1,-1,0,0,0,-7
1511883710607542,4,-7,-6,-4,3,-1,-1,-10
1511883710622609,7,5,3,2,0,-1,0,-5
1511883710622609,2,-7,-5,-3,-3,-8,5,4
1511883710630631,1,-1,1,1,-2,-2,5,8
1511883710630631,-21,-10,-1,0,-3,-3,-1,-9
1511883710645644,-12,1,-4,-4,-7,-3,-3,-14
1511883710645644,-2,-1,-5,3,2,0,4,41
1511883710646646,6,-1,-2,1,2,0,-9,-1
1511883710646646,14,6,0,-2,1,2,-8,-2
1511883710660711,-7,-5,-8,-2,3,5,-3,2
1511883710660711,-21,-10,-8,-8,-6,-3,-5,-36
1511883710668208,24,13,16,2,3,-1,-1,12
1511883710668208,5,2,0,5,2,-4,-1,2
1511883710682796,-13,4,1,-7,-1,-5,-3,-6
1511883710682796,5,9,8,0,-2,-7,-4,2
1511883710689790,5,-1,-20,-6,-4,-4,3,8
1511883710689790,-6,-14,0,0,-1,1,2,-9
1511883710705833,2,-8,3,3,0,5,3,7
1511883710705833,14,13,3,5,3,5,3,-5
1511883710706835,-29,-17,-23,-11,-1,3,4,5
1511883710706835,-7,6,24,6,2,3,8,4
1511883710719899,5,-7,-12,-5,-5,2,2,0
1511883710719899,16,2,2,-2,0,2,2,4
1511883710727916,-12,0,9,3,-2,-8,-2,-11
1511883710727916,-50,-7,-4,-2,3,-3,1,-19
1511883710742931,19,1,2,4,-2,-2,5,6
1511883710742931,-11,-11,-5,1,-2,-7,-6,-8
1511883710749977,14,7,-5,-2,-5,-1,-1,11
1511883710749977,20,-2,-7,0,-4,0,-3,8
1511883710765996,9,10,-3,-2,5,2,1,-3
1511883710765996,3,18,13,-4,-9,-1,-2,2
1511883710766999,-4,-16,-6,10,12,8,3,-4
1511883710766999,10,14,8,-5,-3,1,-4,2
1511883710779793,-21,-9,-2,-1,-1,-4,-1,-2
1511883710779793,0,-9,-4,-9,-7,-6,1,-4
1511883710787814,-22,16,28,11,7,1,7,-8
1511883710787814,11,-15,-25,-4,-9,-2,0,4
1511883710802877,-2,5,8,6,-2,-5,-5,1
1511883710802877,20,-3,-16,-4,4,-5,-6,-4
1511883710809896,8,-4,19,0,5,-1,-1,-4
1511883710809896,5,1,-16,1,7,6,2,-1
1511883710825938,27,12,-1,-4,1,5,5,5
1511883710825938,0,-21,-28,-3,5,2,1,-2
1511883710826943,1,-17,-16,-8,-9,-5,-1,5
1511883710826943,-6,0,14,-6,-7,-4,-2,-8
1511883710839953,-67,-23,-5,-6,-5,-3,-4,-15
1511883710839953,8,6,-1,-6,-5,6,4,-2
1511883710847975,12,7,12,16,8,5,-1,-1
1511883710847975,-4,-6,0,-3,-7,-2,-7,-4
1511883710863015,-5,4,-5,-6,-7,-1,-3,4
1511883710863015,6,-10,15,10,2,6,-4,7
1511883710870537,-15,-9,-22,-5,-5,-4,-4,-8
1511883710870537,10,9,3,4,7,-7,6,12
1511883710885706,-6,-2,-1,-3,-2,-7,0,2
1511883710885706,-5,12,9,-1,9,0,3,7
1511883710893727,4,6,-2,-10,-8,-4,-7,-2
1511883710893727,2,-4,0,4,3,6,-5,-1
1511883710931856,14,19,15,10,3,4,0,4
1511883710931856,2,2,-5,3,-4,-6,0,4
1511883710932833,-12,-5,-5,-13,-10,-5,1,1
1511883710932833,0,0,-1,9,6,-2,2,-5
1511883710946898,-10,-4,-13,0,-1,-2,2,-1
1511883710946898,2,-4,1,-4,-3,1,4,-2
1511883710947876,-39,-4,2,-5,-2,0,5,-11
1511883710947876,36,0,-2,-3,-1,0,-2,-6
1511883710959936,-3,0,-1,0,3,0,-8,-21
1511883710959936,-21,-2,5,2,-5,-3,-8,-13
1511883710969440,-4,-1,-4,-2,-4,9,2,15
1511883710969440,0,2,0,0,-7,-4,0,-5
1511883710984663,8,-1,-2,4,2,3,5,-2
1511883710984663,-8,-14,-10,-4,3,-1,2,0
1511883710985667,2,15,7,5,0,-6,-4,-8
1511883710985667,-18,-2,0,-2,-4,-5,4,6
1511883710999734,-2,-8,3,-4,-6,-3,0,8
1511883710999734,1,14,-1,-4,-6,-4,-5,0
1511883711000706,1,0,0,8,4,0,-11,-2
1511883711000706,-10,-12,-17,-4,2,3,-6,-6
1511883711012735,13,5,5,-7,-8,0,0,10
1511883711012735,-30,-4,0,-1,-2,6,2,3
1511883711021757,24,0,-3,-2,-2,4,-4,2
1511883711021757,-53,-6,8,2,4,3,-5,-16
1511883711036801,-20,-11,-11,2,2,0,-1,-8
1511883711036801,-17,-3,1,2,-1,0,-5,-30
1511883711038807,21,-6,-6,-4,4,-10,9,23
1511883711038807,6,-1,-3,-5,3,2,2,-3
1511883711050987,10,-7,-10,-6,0,-1,-3,5
1511883711050987,12,9,2,-5,-4,-5,4,20
1511883711051839,-5,-9,-12,-5,-2,-4,-4,-17
1511883711051839,6,3,9,3,0,-3,3,4
1511883711074427,-6,4,-5,-2,1,-8,-2,1
1511883711074427,15,-5,11,7,-4,-8,-9,8
1511883711075430,-63,-9,-3,-1,-7,-7,-6,-7
1511883711075430,-6,-44,-13,-5,-6,-3,1,-3
1511883711096645,19,64,24,5,-5,8,-2,0
1511883711096645,26,13,5,0,-1,8,-1,16
1511883711097647,-7,20,-8,-9,-6,2,-4,-5
1511883711097647,24,3,-3,-2,5,8,-1,11
1511883711110810,5,-24,2,-2,4,3,3,7
1511883711110810,12,5,-12,0,2,-1,2,-3
1511883711119705,13,12,29,9,6,-3,-3,-6
1511883711119705,4,1,-22,-9,-6,-9,-1,0
1511883711133745,-6,5,9,-5,-5,-11,0,-2
1511883711133745,-7,6,13,10,11,5,5,1
1511883711135747,10,-19,-3,-5,-1,1,0,-3
1511883711135747,-17,-1,10,2,0,-1,-1,-1
1511883711156983,-7,7,-7,4,8,0,-2,-14
1511883711156983,15,-16,-9,-8,0,2,3,8
1511883711157920,15,12,-1,4,-1,9,6,4
1511883711157920,-32,-1,0,-2,-6,5,0,0
1511883711163322,-8,-46,-14,-5,-3,5,-6,0
1511883711163322,4,16,-2,-1,3,3,-5,-5
1511883711170344,1,-18,14,10,8,1,-2,3
1511883711170344,24,31,9,2,0,-5,-2,5
1511883711186484,-4,-17,-5,-1,4,-5,8,-2
1511883711186484,-16,-26,-20,-10,1,-4,5,-12
1511883711186484,-2,4,18,0,5,6,8,7
1511883711186484,5,7,-3,-1,2,4,0,-1
1511883711200522,-1,4,5,5,-4,1,-3,1
1511883711200522,-11,-6,8,3,0,-3,-6,-1
1511883711207567,4,4,-12,-6,-4,-2,-1,-5
1511883711207567,6,-2,-6,-4,2,-4,-1,4
1511883711222580,0,-11,7,11,4,0,1,7
1511883711222580,14,32,17,-2,-5,-3,2,8
1511883711230629,0,-18,-11,0,7,0,-4,-1
1511883711230629,5,6,-11,-6,-14,-2,-2,-3
1511883711245671,1,-4,4,-11,-2,1,1,-3
1511883711245671,-9,-10,15,25,18,11,1,-2
1511883711246645,9,2,-17,-1,-3,-2,-5,-7
1511883711246645,2,5,14,7,0,5,5,2
1511883711260682,5,5,-15,3,6,3,1,2
1511883711260682,29,11,10,-8,-6,-5,0,11
1511883711268225,-7,10,7,-4,-2,-5,-2,-6
1511883711268225,17,2,9,0,6,-5,2,4
1511883711304876,-2,19,-2,1,2,-6,2,-5
1511883711304876,-4,-14,-12,-8,-10,-3,5,-3
1511883711313903,6,2,-6,-1,-4,5,2,2
1511883711313903,-7,-7,-9,2,-5,-1,-4,3
1511883711328944,12,11,11,1,-2,-3,-9,1
1511883711328944,-6,2,-16,1,1,0,-9,-9
1511883711330953,-13,-8,-9,0,-1,-2,-3,-14
1511883711330953,-6,2,6,0,9,6,4,23
1511883711342982,3,-15,-14,-2,-4,1,-5,-1
1511883711342982,-8,4,-2,-1,-3,1,-4,3
1511883711349996,11,13,3,-3,0,-1,-1,-1
1511883711349996,23,7,-1,-5,0,2,3,-10
1511883711358021,-11,-8,-5,-4,3,1,8,-8
1511883711358021,1,-2,4,-2,0,-3,3,-5
1511883711367022,0,-6,6,1,0,0,4,5
1511883711367022,-8,-5,4,2,-1,-6,-4,-13
1511883711382045,10,0,-3,0,-3,-2,5,18
1511883711382045,24,2,-3,-3,-11,-5,-3,6
1511883711383017,19,1,-1,1,-4,-7,-7,7
1511883711383017,24,1,-3,1,-4,-3,-8,8
1511883711396052,4,1,-9,-6,-4,0,-3,-2
1511883711396052,-12,1,-1,-2,3,-6,-4,-7
1511883711403071,-2,-4,-8,-6,1,-2,4,-3
1511883711403071,3,1,4,-4,-3,4,5,0
1511883711404073,-5,2,11,1,-5,3,3,-7
1511883711404073,-30,-14,-21,-1,-5,4,3,-28
1511883711410090,-4,-2,10,4,-6,-1,0,2
1511883711410090,-20,0,-7,1,-3,-6,-5,-5
1511883711425130,-12,-12,-6,-6,-5,-2,-7,-3
1511883711425130,40,9,11,1,1,1,-1,13
1511883711433178,-28,-12,-2,-6,1,0,-3,-13
1511883711433178,-19,10,-5,2,-1,3,-12,-38
1511883711440170,11,-5,-2,3,8,8,8,36
1511883711440170,-18,5,5,1,2,-1,-2,-3
1511883711448192,-11,-2,-8,2,0,2,-3,6
1511883711448192,-3,-5,2,1,4,6,-2,-9
1511883711463231,4,2,-7,-4,-2,-8,-4,-8
1511883711463231,-14,-9,-2,-6,-5,-6,3,-1
1511883711470253,-2,-4,-2,-3,-2,-2,5,0
1511883711470253,8,-9,0,-2,2,-3,4,16
1511883711485067,-42,-8,-3,-3,-1,1,-1,-21
1511883711485067,-8,-7,-2,-2,-3,0,4,6
1511883711493062,3,-2,-8,-2,-2,-5,-5,-5
1511883711493062,17,12,9,0,-2,-4,-3,5
1511883711508102,36,10,8,4,1,1,-3,-7
1511883711508102,-82,-21,-7,-4,-1,-1,-6,-18
1511883711509105,3,-1,5,4,3,5,2,-1
1511883711509105,10,-9,-11,-3,-1,0,2,-4
1511883711523170,-1,26,10,-1,-4,2,1,2
1511883711523170,1,-2,-7,-2,-7,-6,-3,-4
1511883711530161,12,0,-21,0,-1,-6,-5,3
1511883711530161,-23,-1,7,3,5,-5,6,12
1511883711545201,23,-11,-5,-1,1,-7,1,-13
1511883711545201,28,-9,-5,2,-1,2,1,3
1511883711553246,4,-2,8,-3,-7,6,1,5
1511883711553246,9,16,-4,-3,-7,3,1,-5
1511883711568790,-20,-9,-10,-5,-5,4,-3,-1
1511883711568790,20,6,19,3,6,5,4,8
1511883711569267,-12,-6,-10,-1,9,-3,-3,-5
1511883711569267,-1,-10,-6,3,7,0,-5,4
1511883711583318,-48,-2,9,1,-3,-5,-11,-13
1511883711583318,-2,-4,-18,-8,-5,-4,-9,3
1511883711590349,6,4,12,-3,-5,-4,0,-1
1511883711590349,40,0,-2,-5,-6,3,2,5
1511883711605394,1,-7,-13,-3,-1,0,-2,7
1511883711605394,9,3,3,3,5,5,0,1
1511883711613415,-10,1,-10,0,1,0,-2,-3
1511883711613415,-10,2,9,7,4,0,-5,-4
1511883711628454,10,3,-1,7,1,-3,1,-5
1511883711628454,10,-2,-3,1,-1,2,4,2
1511883711629429,2,7,12,1,-2,1,1,4
1511883711629429,-11,-18,-12,-6,-4,-4,2,3
1511883711642463,7,-1,2,2,-3,-3,7,-2
1511883711642463,6,0,-7,-2,-2,-6,1,2
1511883711650512,-3,-1,2,-4,-5,-3,3,2
1511883711650512,-16,10,18,-2,-3,-3,-1,-1
1511883711665582,-3,4,-6,-3,4,1,-4,2
1511883711665582,2,6,3,3,7,4,-1,-4
1511883711673602,6,3,-1,0,1,3,-8,-2
1511883711673602,-13,-7,-7,0,2,3,0,-6
1511883711688649,2,-2,-9,2,3,-1,0,3
1511883711688649,-9,9,7,2,0,0,1,-3
1511883711689651,-3,-3,5,1,2,-3,0,-5
1511883711689651,-7,-6,-8,-4,-9,-4,1,1
1511883711702655,-1,-7,4,-1,2,0,-1,3
1511883711702655,1,-12,-1,-5,-1,2,0,2
1511883711710701,9,9,6,1,-1,2,-2,0
1511883711710701,11,-3,-5,-2,-3,3,-1,3
1511883711726718,7,-6,-4,-3,-6,2,-3,-4
1511883711726718,22,4,3,-1,3,-1,-2,10
1511883711733769,1,-2,-1,0,2,-4,1,1
1511883711733769,0,2,3,4,4,-3,2,0
1511883711748808,-5,-1,-4,-1,-3,-1,-1,3
1511883711748808,-3,4,-1,7,3,-4,-2,-3
1511883711748808,2,-4,-4,4,1,1,3,-3
1511883711748808,-8,4,2,7,1,-1,5,-3
1511883711762815,3,3,-3,-1,5,-4,-1,-7
1511883711762815,-6,5,5,0,-2,-5,0,-7
1511883711770391,-5,0,2,-10,-4,6,-1,4
1511883711770391,-12,-13,-23,-14,-17,-10,-7,-2
1511883711785074,0,22,40,12,7,11,4,10
1511883711785074,-2,2,-15,-1,5,-1,-2,-1
1511883711793109,-13,-32,-14,-5,-3,-5,-4,-7
1511883711793109,4,9,14,-1,-6,2,-2,-2
1511883711808147,6,11,-9,-2,-1,1,-5,4
1511883711808147,-6,3,18,-8,-9,2,-3,-2
1511883711809124,0,5,-7,2,-9,-6,1,5
1511883711809124,-4,-8,12,2,7,-3,4,3
1511883711823190,-9,-13,-14,-4,-5,-7,3,-2
1511883711823190,-1,4,-4,-7,-2,8,2,-2
1511883711830205,-5,-13,-18,-2,2,-1,2,-8
1511883711830205,5,13,4,-1,4,-4,1,-5
1511883711845247,7,15,8,-4,0,0,3,5
1511883711845247,-5,-12,-4,7,1,-2,-5,5
1511883711853241,2,0,14,-1,-5,1,-3,13
1511883711853241,-9,-3,-6,4,6,3,-3,4
1511883711868813,0,-8,8,6,5,1,-3,-6
1511883711868813,4,-5,-13,-8,-10,-8,-6,-13
1511883711869288,-25,10,5,-2,-1,-1,0,-12
1511883711869288,-5,-9,-6,-2,-1,-1,-1,-6
1511883711883075,-1,2,-8,-2,-1,-1,-2,-2
1511883711883075,0,2,4,2,-4,1,-1,-1
1511883711890092,9,5,-3,4,3,2,-2,-1
1511883711890092,5,3,2,4,3,-1,-1,-3
1511883711905104,-1,-14,4,-6,-8,-6,-3,1
1511883711905104,1,3,4,5,-2,-6,-1,6
1511883711913126,7,1,3,-5,-1,-1,0,4
1511883711913126,-7,0,1,-1,-1,6,-1,0
1511883711928189,-3,-12,-13,-2,3,2,-4,-5
1511883711928189,0,7,0,5,10,4,0,1
1511883711929176,10,6,-5,-1,5,0,-4,-3
1511883711929176,2,-14,-8,-3,1,-2,-2,-2
1511883711943206,-9,-8,-10,-7,-4,-5,-1,-3
1511883711943206,-3,0,2,0,-7,-5,4,5
1511883711950228,-4,0,1,-1,-7,-2,0,2
1511883711950228,-7,5,2,-5,-5,2,1,0
1511883711965774,-7,-1,2,-2,-6,2,7,2
1511883711965774,-6,-7,-2,-1,2,1,6,-5
1511883711973789,10,3,4,0,7,2,2,-1
1511883711973789,5,-5,-5,-3,1,-1,-2,-3
1511883711988865,2,-5,-7,-3,0,-5,-3,-1
1511883711988865,-1,-3,-5,3,-2,-4,0,-2
1511883711988865,0,13,-4,6,-9,-3,-1,-2
1511883711988865,-3,-1,5,1,-6,-1,-2,4
1511883712003909,-1,-1,4,0,-6,3,-4,1
1511883712003909,-4,2,6,0,-4,4,-3,-2
1511883712009925,0,0,0,-4,-2,-6,-2,-6
1511883712009925,1,3,0,-7,-3,-1,-3,-8
1511883712025091,3,-1,3,7,16,5,1,-2
1511883712025091,1,7,0,-1,4,-2,-3,4
1511883712034016,2,-3,-5,1,-1,0,5,9
1511883712034016,1,5,-3,4,-1,-4,2,7
1511883712048023,-3,-3,-1,-9,-8,-2,2,3
1511883712048023,-5,-6,1,-4,-8,-1,-2,-4
1511883712049026,-3,-2,-4,0,-1,1,-3,-8
1511883712049026,-5,-3,0,1,3,1,3,-6
1511883712063064,0,-4,-5,2,0,-2,2,-3
1511883712063064,-5,-3,-1,-2,0,4,-3,-1
1511883712070587,4,1,4,0,1,5,-5,2
1511883712070587,4,-6,-7,-5,1,3,-11,4
1511883712085168,3,-4,-3,-3,-3,1,-11,-3
1511883712085168,3,-2,-1,-5,-8,-4,-5,-4
1511883712093391,1,-1,2,-4,-11,-7,3,-2
1511883712093391,-5,6,1,2,-3,-5,3,-1
1511883712108428,-6,-14,-3,3,-8,-2,8,6
1511883712108428,0,13,-2,4,0,3,3,4
1511883712109233,0,-4,-4,9,21,6,1,3
1511883712109233,5,7,0,-1,-1,1,2,-2
1511883712123313,-7,-5,-5,0,0,0,2,-9
1511883712123313,-4,-9,-4,-3,1,-1,-1,-9
1511883712130327,0,-3,-1,1,2,-2,1,-6
1511883712130327,1,3,2,-15,3,-10,1,-3
1511883712145520,-1,7,5,0,2,-6,7,3
1511883712145520,0,-11,4,0,6,1,11,1
1511883712153354,-7,-11,3,-7,-11,-6,3,-5
1511883712153354,9,10,9,5,0,0,-7,4
1511883712168893,2,3,-1,-3,-8,1,-11,4
1511883712168893,-3,-5,0,-1,-2,2,-8,4
1511883712169394,-6,-7,-1,1,6,7,-5,2
1511883712169394,-6,-4,-2,-2,-9,-1,-1,-3
1511883712183119,3,0,4,-1,5,-1,-1,-3
1511883712183119,-1,-10,-1,-1,-5,-2,-1,-1
1511883712190251,10,21,-3,-7,2,-5,-3,1
1511883712190251,-2,13,-4,-5,-6,0,2,-1
1511883712205175,-5,-15,-11,7,3,1,1,2
1511883712205175,8,33,6,-10,-3,4,7,0
1511883712213197,-3,-4,-4,-5,-7,-1,1,-2
1511883712213197,-4,-14,0,10,12,6,0,-5
1511883712227234,-4,0,-2,-2,-4,-2,-7,-8
1511883712227234,0,-11,-4,8,6,-1,-3,-2
1511883712236257,-5,-6,-1,10,3,-3,-1,0
1511883712236257,5,4,4,9,0,-11,-1,2
1511883712243276,2,2,-1,0,2,-3,2,-5
1511883712243276,9,5,-5,-12,-4,-9,-2,0
1511883712250295,2,2,4,5,3,5,3,6
1511883712250295,1,-1,-4,-2,-7,8,-1,2
1511883712265337,-2,3,-1,-10,-5,6,-4,-1
1511883712265337,-9,-13,-5,-4,-1,-3,-7,1
1511883712281041,-1,2,2,-2,-9,3,-1,3
1511883712281041,-8,-3,-2,-8,-6,0,-3,-3
1511883712288060,-3,4,-1,-3,0,-5,-3,3
1511883712288060,-6,-7,7,9,8,-2,-1,-6
1511883712296108,0,-7,-12,-5,3,-5,0,-3
1511883712296108,1,-12,1,1,-6,1,5,-4
1511883712311146,8,10,1,-4,-10,-4,3,1
1511883712311146,0,0,-1,2,-5,0,1,6
1511883712312147,-5,5,2,4,3,1,0,2
1511883712312147,1,14,-13,-10,-13,-7,-1,0
1511883712325181,7,5,5,8,6,4,3,5
1511883712325181,3,-5,12,7,10,5,-4,0
1511883712333207,-2,2,10,-6,10,6,-1,-3
1511883712333207,-6,-11,-11,-12,5,0,1,-9
1511883712348221,6,4,-9,0,1,-4,1,-6
1511883712348221,4,3,-3,-6,1,-5,0,-3
1511883712356268,-4,-5,0,-2,1,-3,-9,-3
1511883712356268,-7,-5,4,9,-3,-6,-6,5
1511883712371307,-11,-8,-6,-7,5,1,2,7
1511883712371307,1,-5,-5,-3,4,-3,1,2
1511883712371785,2,-6,7,1,-2,-1,1,-1
1511883712371785,-2,-5,2,2,6,4,-1,-4
1511883712385067,-6,-6,7,-2,-12,2,-5,-10
1511883712385067,12,8,-8,-4,-5,5,2,-3
1511883712393115,-23,2,15,4,-3,0,-2,-1
1511883712393115,6,7,0,7,11,-1,0,5
1511883712408155,13,6,-8,-2,11,0,0,2
1511883712408155,-24,-16,-11,1,6,-2,3,-2
1511883712416150,86,14,-7,-5,-4,-2,1,6
1511883712416150,-37,-10,-1,6,4,4,3,12
1511883712431216,7,13,10,5,-2,-2,0,-11
1511883712431216,0,-4,-18,-8,-10,-7,1,1
1511883712432207,1,-10,-8,-1,-14,-15,-3,-10
1511883712432207,12,-12,-7,-3,-7,-7,-8,-5
1511883712445255,-6,-11,-6,-1,-3,-2,-6,0
1511883712445255,-7,15,26,10,-1,5,-6,-7
1511883712453267,-5,-14,-25,-9,-5,4,5,2
1511883712453267,9,21,15,1,-4,1,-4,-7
1511883712468324,6,-13,-4,0,-2,0,4,30
1511883712468324,-42,-1,-1,-1,3,-2,0,0
1511883712476377,40,1,-8,-4,8,3,-1,-4
1511883712476377,-15,7,10,0,3,4,5,-7
1511883712491122,23,5,2,-3,-4,1,-1,-7
1511883712491122,-21,-4,5,2,-10,1,-4,6
1511883712492124,-12,-2,1,-1,-7,-1,-4,2
1511883712492124,-10,-8,-10,-6,1,2,-1,-15
1511883712505159,-9,4,0,-3,3,-3,-1,-3
1511883712505159,15,4,-1,-2,-2,0,1,-1
1511883712513154,-58,-12,0,0,-1,1,-1,-10
1511883712513154,10,-3,-13,1,1,2,0,-13
1511883712528221,26,6,11,3,0,3,2,18
1511883712528221,-13,-21,-33,-13,-12,-7,-5,2
1511883712536241,24,26,27,0,-14,-4,2,-6
1511883712536241,-58,-18,15,3,-7,-4,-1,-25
1511883712551282,5,-2,-16,2,-4,-2,10,29
1511883712551282,17,4,4,2,-3,-2,-4,-8
1511883712552257,-3,-1,-5,5,-4,1,-1,-5
1511883712552257,43,0,-9,-1,0,6,-1,14
1511883712565349,-23,0,3,0,-1,4,-6,-18
1511883712565349,-4,11,16,4,5,3,-1,-9
1511883712572866,-19,-9,-25,-9,4,0,3,17
1511883712572866,29,11,25,1,-2,-2,2,10
1511883712587929,13,-5,-9,-6,3,-6,-2,-17
1511883712587929,-61,-9,2,2,3,1,1,27
1511883712595951,5,9,10,4,1,-2,-4,-12
1511883712595951,9,-18,-34,-6,-3,0,-1,6
1511883712610990,10,23,25,3,-1,1,-2,-10
1511883712610990,6,0,2,-4,-6,-3,4,0
1511883712611993,-3,-7,-1,-5,-8,-7,1,2
1511883712611993,-17,-6,3,3,-2,-2,0,7
1511883712625027,0,0,5,3,0,-2,0,-5
1511883712625027,10,-7,-4,0,7,-3,3,-8
1511883712633049,-13,-9,-8,-6,3,0,0,0
1511883712633049,20,4,4,2,13,11,2,0
1511883712648089,-16,-2,0,0,4,3,-5,-5
1511883712648089,70,9,2,-2,3,1,-11,-19
1511883712656110,2,-3,5,5,7,5,6,33
1511883712656110,-8,7,8,-1,-2,-6,2,22
1511883712671180,-16,-8,-16,-2,-3,0,2,-6
1511883712671180,16,-9,-10,3,-2,-3,1,-8
1511883712672156,4,22,12,3,3,0,1,-6
1511883712672156,-1,-4,-4,-2,-2,-3,2,9
1511883712685393,-4,-12,-6,-3,1,-1,-3,-1
1511883712685393,4,10,23,-2,-6,1,0,9
1511883712692412,1,1,-22,-3,0,-2,-5,-3
1511883712692412,-1,3,4,2,1,-3,2,-5
1511883712707476,-18,-3,0,-2,-3,-2,-5,-14
1511883712707476,-9,-19,-19,-1,1,3,2,-12
1511883712715497,48,12,9,-2,1,1,2,16
1511883712715497,12,4,5,0,1,-3,-2,9
1511883712730538,-37,-8,-2,-1,0,-5,-1,-4
1511883712730538,-31,2,-3,1,7,1,2,3
1511883712731517,11,-2,-4,3,6,-1,-9,-22
1511883712731517,12,7,-7,0,6,4,4,30
1511883712745553,5,-1,8,4,-4,-1,-2,5
1511883712745553,-1,8,-3,2,-3,0,0,16
1511883712752573,-19,-3,-3,0,-3,-2,-2,-17
1511883712752573,0,-2,1,0,-7,-7,-5,-24
1511883712768169,-1,0,1,-1,-3,0,-3,1
1511883712768169,-41,-21,-6,-6,-8,-2,-6,4
1511883712776191,-47,-10,-4,-4,1,2,-4,-14
1511883712776191,8,0,0,-2,1,0,-1,7
1511883712790641,50,16,4,-4,-1,-1,-1,2
1511883712790641,34,7,-1,-5,-1,-4,-3,-5
1511883712791612,-3,3,4,-3,0,0,-2,7
1511883712791612,-19,4,2,-3,-3,0,-2,-4
1511883712805677,7,-6,-13,2,2,-2,-2,-19
1511883712805677,18,4,2,5,2,-2,3,-9
1511883712812669,22,-2,7,0,2,-4,10,12
1511883712812669,24,4,5,-6,2,1,1,8
1511883712827736,-23,-7,3,-6,-3,0,-1,6
1511883712827736,-39,0,7,-2,-1,0,-2,4
1511883712835754,-6,-8,-12,6,-6,0,-5,-5
1511883712835754,-10,3,-9,5,-6,1,0,2
1511883712850794,14,-2,-8,1,-3,7,4,-12
1511883712850794,16,-1,-5,4,1,6,0,1
1511883712851781,-21,-10,-3,1,3,6,-5,-5
1511883712851781,15,-5,9,-9,-5,-1,-6,-17
1511883712865365,1,-1,-5,0,4,-3,5,23
1511883712865365,9,2,4,-6,-4,-8,0,6
1511883712872882,43,4,4,1,0,-4,-1,4
1511883712872882,-24,-7,-8,-6,5,2,-4,-5
1511883712887846,-4,-2,5,-4,-6,-5,-1,4
1511883712887846,7,3,3,-2,-3,-6,2,-6
1511883712895879,-18,0,5,5,5,2,4,-18
1511883712895879,1,9,5,2,5,6,11,36
1511883712910934,42,12,8,3,5,6,7,13
1511883712910934,10,-4,-19,-3,-1,-1,-1,-11
1511883712911911,-19,0,0,-7,-8,2,1,4
1511883712911911,4,-6,-12,5,-4,-6,-5,-2
1511883712924968,-7,1,6,1,-7,-7,-3,2
1511883712924968,15,19,-3,2,3,-3,4,13
1511883712932993,-8,-4,-8,5,0,-5,1,3
1511883712932993,-1,0,3,-5,-4,-4,-1,-12
1511883712948034,-33,-14,-3,3,7,-2,-5,0
1511883712948034,5,1,2,-1,2,0,-8,7
1511883712956031,-11,1,3,-3,7,-6,-5,3
1511883712956031,-17,-9,3,-1,8,-3,1,-16
1511883712971216,-10,-26,-10,-3,6,-3,5,-11
1511883712971216,9,18,17,-2,15,1,3,-10
1511883712972213,1,1,0,-5,19,5,1,-2
1511883712972213,-3,-3,8,1,8,4,0,-3
1511883712984789,-8,-3,-20,-8,8,-3,0,-4
1511883712984789,33,-2,-5,2,-1,2,1,11
1511883712992933,-40,-11,-17,-5,-11,2,-3,-7
1511883712992933,-1,-3,4,5,-1,5,-7,-19
1511883713029908,16,13,5,-1,-6,3,-5,3
1511883713029908,7,24,15,13,5,3,-5,-9
1511883713040937,9,-16,-15,-9,-11,-3,-2,17
1511883713040937,5,12,-12,1,-10,-1,-4,0
1511883713052969,-16,-1,-4,0,-12,-2,0,-3
1511883713052969,-21,-21,-14,-7,-9,-4,5,-4
1511883713053972,11,14,25,4,-2,-1,-1,2
1511883713053972,-10,-14,-12,2,0,0,-3,-5
1511883713068351,3,-6,4,2,1,3,-2,6
1511883713068351,1,0,-8,2,-8,0,-5,-6
1511883713075804,-8,-3,-7,3,-2,-3,-5,-15
1511883713075804,16,-11,-2,-4,-9,-3,3,8
1511883713082838,-1,29,22,4,2,-2,-3,-4
1511883713082838,-10,-20,-7,-4,-6,-2,7,-4
1511883713091801,-3,-1,11,11,3,-3,7,-2
1511883713091801,-1,4,0,-4,-9,-1,3,-2
1511883713114024,8,-8,-1,-5,-2,1,1,5
1511883713114024,-16,-14,-9,0,5,2,1,2
1511883713115847,23,18,7,-3,-4,-2,-3,9
1511883713115847,22,20,11,-2,0,0,-2,-2
1511883713120045,1,-1,-6,0,2,1,-8,-6
1511883713120045,-13,-1,5,-5,-2,-1,-8,-13
1511883713128994,-41,-17,-18,-9,-7,-7,3,-6
1511883713128994,4,-2,10,1,-3,-1,3,2
1511883713143948,-5,-3,-6,-2,-5,3,2,-7
1511883713143948,7,2,13,4,-5,3,1,1
1511883713145926,12,-2,-1,-6,-16,-2,1,3
1511883713145926,-10,-1,-5,0,-6,-3,0,-5
1511883713158988,12,-2,-4,-4,-4,0,-2,5
1511883713158988,-38,-7,0,3,-6,-2,-12,-9
1511883713160967,3,7,1,1,-6,3,-2,-4
1511883713160967,-6,-12,-17,4,5,0,0,-4
1511883713181224,0,10,9,-2,-8,-6,-4,0
1511883713181224,25,-12,-1,5,9,1,4,12
1511883713183228,9,22,9,-8,1,0,1,-4
1511883713183228,-7,-8,7,-2,2,0,0,-3
1511883713195283,-16,-11,-12,2,4,0,4,4
1511883713195283,3,4,11,1,-5,-7,0,-2
1511883713204284,0,-4,-7,1,2,-6,1,2
1511883713204284,-6,-12,-6,5,-5,-6,2,-1
1511883713233361,3,6,10,-1,4,1,0,-5
1511883713233361,-4,0,2,-8,-3,2,-2,5
1511883713241410,3,-2,7,8,9,14,3,-4
1511883713241410,26,13,-3,-12,-3,2,-3,11
1511883713256450,-28,-11,-12,-8,-4,-1,-4,-12
1511883713256450,4,1,2,4,3,4,-2,-1
1511883713257426,0,-10,-8,-8,-13,-11,-8,3
1511883713257426,-2,0,3,5,2,-9,-3,-2
1511883713270992,1,3,3,8,-1,-2,4,5
1511883713270992,2,-2,-11,-11,-11,-2,1,0
1511883713271994,1,3,0,2,-15,3,-4,0
1511883713271994,-15,-3,5,8,-3,8,0,-2
1511883713286093,2,-1,-4,1,-14,2,-6,2
1511883713286093,11,10,1,-2,-3,2,2,6
1511883713293112,3,-3,-3,-1,-4,-1,-2,3
1511883713293112,-5,3,0,2,-4,0,-3,-5
1511883713309157,-12,-6,-4,2,-4,3,2,-6
1511883713309157,0,3,3,-1,-9,0,0,-4
1511883713311161,2,0,-4,1,-6,2,1,-6
1511883713311161,-2,-1,-7,2,-7,-2,0,-4
1511883713324195,9,-1,2,-1,-17,-8,0,-1
1511883713324195,-1,-4,-6,-2,4,0,4,-2
1511883713325198,-3,-5,-4,-11,-7,3,3,-1
1511883713325198,-12,-6,-12,-5,3,1,-5,-2
1511883713338232,-1,4,7,1,7,4,0,3
1511883713338232,-5,1,-3,0,-2,0,-3,-1
1511883713345277,-15,-13,-4,2,8,-2,-7,5
1511883713345277,-1,8,5,-3,2,-2,-6,1
1511883713361320,-4,-9,-3,-8,-3,-7,-2,-10
1511883713361320,-11,-1,-5,7,4,-4,1,-6
1511883713363300,4,4,-4,1,3,-1,0,-7
1511883713363300,-2,-3,2,2,-13,-4,-1,-2
1511883713375334,2,4,-2,1,9,4,3,5
1511883713375334,-3,0,7,2,7,1,7,4
1511883713383955,-1,-2,6,4,11,0,3,6
1511883713383955,21,0,0,-3,10,-3,-4,8
1511883713398970,18,6,-9,3,2,-9,-6,6
1511883713398970,7,-4,2,5,5,-3,-6,-2
1511883713401002,5,6,5,7,9,5,3,-2
1511883713401002,5,1,2,2,7,5,10,-9
1511883713422062,8,-1,1,1,10,8,10,13
1511883713422062,11,18,0,-1,7,3,3,11
1511883713423036,12,5,-5,4,6,-2,-8,-12
1511883713423036,-5,1,1,-6,7,0,-2,-3
1511883713435065,-13,-3,-1,-6,-2,-9,-3,-14
1511883713435065,0,-12,-7,-8,2,-1,2,0
1511883713444091,-4,8,20,-2,-2,-3,3,-5
1511883713444091,-22,-10,-9,-7,-2,-6,2,-1
1511883713459130,12,3,1,0,3,1,-4,-3
1511883713459130,-2,3,2,-2,-5,-3,-8,1
1511883713461160,21,2,3,2,1,3,-2,9
1511883713461160,-4,2,-1,-1,-1,0,-2,-1
1511883713481733,-2,5,10,1,2,3,1,-1
1511883713481733,12,0,2,-2,1,2,2,4
1511883713482736,-14,-8,0,-5,-1,-3,-6,-16
1511883713482736,29,7,4,-2,3,4,3,23
1511883713495772,-7,-5,2,-1,0,-1,0,-21
1511883713495772,9,1,-13,-3,-4,-6,1,3
1511883713503819,9,0,1,2,2,-5,-5,-15
1511883713503819,-3,-2,8,0,1,-3,0,-10
1511883713518855,-6,-5,-12,0,1,2,-3,2
1511883713518855,-16,7,0,-2,1,1,-4,5
1511883713524871,10,3,0,0,4,3,1,12
1511883713524871,-29,-14,-11,-4,-3,1,-4,-3
1511883713533895,17,1,1,-1,-2,-6,4,21
1511883713533895,1,-5,2,-3,-2,-2,-1,-5
1511883713533895,-2,-4,-4,-5,-6,0,1,19
1511883713533895,11,13,2,2,-4,0,-4,-3
1511883713547909,-16,-7,0,0,-11,1,-4,6
1511883713547909,15,-1,2,3,-3,-7,5,19
1511883713555960,-2,3,-4,2,0,-2,5,8
1511883713555960,-21,-5,-7,-1,-2,5,1,-3
1511883713570472,16,3,-3,-1,1,-4,-3,-19
1511883713570472,-7,0,-1,-2,-2,0,-2,-13
1511883713578494,-17,-7,-6,-4,-2,-5,-1,-5
1511883713578494,-1,-2,-3,-4,-4,-5,0,-3
1511883713593034,1,4,9,1,-3,2,-5,-6
1511883713593034,-35,-9,6,-3,-8,-3,-9,-6
1511883713594036,-2,-2,3,-1,-2,-6,0,9
1511883713594036,-7,2,4,-1,0,-5,-1,-4
1511883713608097,42,10,0,-1,-2,1,7,6
1511883713608097,15,-2,-4,0,-7,-1,-1,-5
1511883713616118,0,-7,-6,-2,-5,0,2,6
1511883713616118,-6,-4,-3,2,-2,-4,5,1
1511883713630159,-13,-3,-5,0,1,-3,3,3
1511883713630159,-8,-2,-5,-1,-3,5,-8,-12
1511883713638180,3,1,11,1,-4,4,-7,20
1511883713638180,9,-5,-6,-5,-4,2,-1,1
1511883713653222,-8,7,4,-2,-2,-5,1,2
1511883713653222,2,3,3,-2,-3,-4,7,-4
1511883713654196,-6,-5,-17,-4,-1,-2,1,-9
1511883713654196,5,-1,0,1,-1,-5,-4,-7
1511883713669749,5,2,12,7,3,2,-3,2
1511883713669749,-33,-11,-2,-1,2,2,-5,-17
1511883713676282,-13,-3,-1,-2,4,1,-3,-5
1511883713676282,7,3,6,-1,7,5,-1,-4
1511883713690140,-17,-7,-11,-4,1,-3,-1,-6
1511883713690140,22,6,4,6,3,0,4,12
1511883713698161,-8,1,5,4,3,1,3,-2
1511883713698161,-7,2,-1,-2,1,-4,-1,1
1511883713713172,-9,-8,-11,-5,-5,-3,-4,1
1511883713713172,6,3,-2,-5,-3,-5,4,-1
1511883713714175,5,2,1,-3,-3,-2,5,3
1511883713714175,2,-1,2,-2,0,3,3,-1
1511883713728213,-8,-2,-4,-3,2,2,0,1
1511883713728213,-1,0,-2,-3,3,-1,-8,2
1511883713736257,-2,-1,-1,-1,0,1,-6,-9
1511883713736257,6,7,6,8,4,-2,-3,3
1511883713750297,-13,-5,-6,1,-1,-5,-4,-4
1511883713750297,3,-2,0,-3,-3,-4,-5,-5
1511883713758319,2,0,5,1,-4,-2,-1,-5
1511883713758319,-8,-5,-19,-3,-11,-1,0,-2
1511883713796153,6,4,9,6,-11,4,6,5
1511883713796153,7,1,6,2,8,3,7,0
1511883713804148,26,2,10,-4,2,-1,4,4
1511883713804148,-4,0,10,3,5,3,-1,-1
1511883713819187,-10,-5,4,-4,0,1,-5,-9
1511883713819187,-6,0,-12,0,-8,-1,-4,-8
1511883713821214,0,9,5,2,-5,3,-1,-6
1511883713821214,9,0,-12,-5,-4,-2,2,0
1511883713833252,-36,-5,2,-5,3,-1,-4,2
1511883713833252,8,-1,2,-6,-5,-7,3,7
1511883713834228,4,0,-7,-7,0,-7,3,-4
1511883713834228,6,-1,4,1,-3,0,3,-8
1511883713848294,0,-6,-6,2,-3,2,-2,-28
1511883713848294,9,0,0,-1,0,6,-1,19
1511883713855307,-54,-11,-5,1,-13,-6,-5,-12
1511883713855307,-7,2,2,2,5,-4,-3,9
1511883713871866,4,-2,-1,0,5,-8,1,5
1511883713871866,16,5,-1,1,6,-3,-3,-4
1511883713873360,27,3,-6,-13,-1,2,-3,9
1511883713873360,29,11,16,0,-1,-3,-10,-7
1511883713886425,-14,-6,-1,-12,-12,0,-2,-7
1511883713886425,3,-5,-2,2,-5,2,2,-9
1511883713888404,13,-19,-19,0,5,-1,2,1
1511883713888404,7,14,7,1,-2,-6,3,0
1511883713900435,15,12,18,-2,-2,-5,2,9
1511883713900435,-6,-7,-9,-1,5,-2,-2,-1
1511883713909459,-8,-7,2,3,0,-3,-4,6
1511883713909459,-7,7,-5,-7,-7,-8,-4,2
1511883713924526,5,14,16,17,8,3,-2,6
1511883713924526,-10,-15,-8,12,3,1,1,0
1511883713925503,-6,-1,23,-18,-4,8,-3,-6
1511883713925503,-2,12,-12,14,4,3,-4,-4
1511883713937564,8,-4,-13,-12,-19,-6,2,11
1511883713937564,-12,-21,-1,6,8,4,0,1
1511883713946558,5,24,15,0,2,1,0,-2
1511883713946558,-7,-7,8,-11,-10,1,3,3
1511883713961624,-1,-3,-25,-7,10,6,-1,-7
1511883713961624,-2,6,-3,-8,4,0,-2,-11
1511883713963626,35,-5,-7,14,25,7,2,6
1511883713963626,-37,-22,-13,-5,29,2,-3,-6
1511883713968153,6,10,-2,5,34,-2,2,10
1511883713968153,-1,-3,-4,1,28,-6,-2,-1
1511883713977168,13,-2,-9,-3,-10,-6,-5,6
1511883713977168,2,0,8,5,-15,8,5,10
1511883713990827,4,5,6,6,-39,0,-1,-2
1511883713990827,11,8,11,-8,-50,-8,-1,-16
1511883713999726,-37,-9,1,-2,-28,-4,4,-23
1511883713999726,2,-10,-7,-3,-16,-3,3,3
1511883714012761,-4,-6,3,-6,-11,-2,-1,-3
1511883714012761,9,9,4,-5,-16,3,-4,-1
1511883714021795,-8,11,-9,6,-4,-2,-5,-10
1511883714021795,-6,-14,-7,-2,2,-2,-2,-12
1511883714027805,8,-1,-2,-1,1,3,3,1
1511883714027805,-12,-1,-1,-1,9,6,6,10
1511883714036825,-8,-12,-8,1,4,1,0,5
1511883714036825,0,2,-10,-3,13,2,-8,3
1511883714050890,1,1,10,-10,4,-4,-6,-1
1511883714050890,-6,2,-25,-5,-19,-16,-1,8
1511883714058892,-6,-5,4,-1,10,1,-1,0
1511883714058892,0,-11,7,5,-1,-5,-2,-5
1511883714072971,2,4,2,12,13,6,-5,-3
1511883714072971,-4,-11,8,-16,-10,5,-2,-4
1511883714081531,7,13,-3,8,14,6,3,5
1511883714081531,0,5,0,-3,3,0,-1,-3
1511883714087504,-5,-13,-11,0,1,0,-1,-1
1511883714087504,-7,-3,3,1,15,7,0,3
1511883714096522,13,-1,-8,-4,-9,-2,0,-7
1511883714096522,1,-7,2,3,5,1,2,-1
1511883714110751,-4,-1,-22,-15,-23,-8,2,1
1511883714110751,31,17,6,20,39,18,2,4
1511883714119583,-6,1,0,-11,-28,-13,-4,-2
1511883714119583,2,3,8,-2,-7,-9,3,0
1511883714132621,-2,-12,3,7,28,4,2,1
1511883714132621,0,4,9,2,-15,-6,-5,3
1511883714141644,-42,-9,-5,4,7,-1,-7,-13
1511883714141644,25,19,-2,-11,-37,-13,2,21
1511883714147774,-45,-15,-4,11,12,5,-2,-11
1511883714147774,-21,-9,-12,-6,4,1,-2,-18
1511883714156682,8,5,3,7,30,9,3,-14
1511883714156682,-2,-4,-7,-2,-1,-4,3,6
1511883714170319,10,1,3,0,-4,1,5,1
1511883714170319,-1,-9,-10,4,8,0,3,0
1511883714178926,30,5,4,-3,-27,-14,0,0
1511883714178926,-12,-5,-9,1,16,3,-1,-8
1511883714193282,6,5,3,-5,-5,-7,-1,3
1511883714193282,0,14,10,-4,-30,-14,-1,6
1511883714202135,24,0,-10,2,12,7,1,16
1511883714202135,-39,-4,11,0,-1,17,-4,-11
1511883714231185,-5,-1,-1,-3,7,4,-6,10
1511883714231185,2,5,6,-5,-13,-7,-8,-3
1511883714233190,-11,-4,-3,-4,11,3,-8,-3
1511883714233190,9,-6,-8,-5,10,0,-6,-10
1511883714239234,-4,1,5,5,9,2,-1,-1
1511883714239234,25,-6,-10,-6,1,-5,-1,-11
1511883714240237,0,0,14,6,-6,-2,6,16
1511883714240237,1,-7,-7,8,7,4,3,-1
1511883714269289,7,3,9,1,-10,-4,5,0
1511883714269289,-10,-2,-18,-4,-3,-4,0,0
1511883714270793,-4,4,9,2,-1,-2,10,5
1511883714270793,9,4,-5,-1,-7,-3,-5,-21
1511883714276308,14,2,-11,-3,-9,-3,-2,-2
1511883714276308,17,9,9,4,9,11,8,26
1511883714283088,-23,-8,-9,-6,-2,0,-7,-4
1511883714283088,-5,1,5,-1,0,3,-1,-11
1511883714290079,32,11,9,0,-6,-4,2,22
1511883714290079,-40,-6,-1,-2,0,-7,3,-11
1511883714299125,14,-2,-2,-4,-5,-7,0,5
1511883714299125,3,0,9,-2,-3,-3,-5,13
1511883714313141,1,-7,-2,-5,0,2,-7,-12
1511883714313141,-3,-8,-4,0,7,3,-8,0
1511883714322189,-53,-4,0,-1,-3,-5,-9,-20
1511883714322189,-3,-6,-7,-1,2,0,4,-5
1511883714336202,-3,-2,-8,-2,0,0,-2,-1
1511883714336202,-22,1,1,2,2,2,-2,-3
1511883714338207,26,9,5,5,-1,5,3,7
1511883714338207,7,-8,-7,-4,-4,1,-5,-7
1511883714350265,-3,8,9,-5,-4,-6,0,2
1511883714350265,9,-3,12,0,6,-1,4,1
1511883714359273,19,-11,-7,-2,4,-2,-1,-7
1511883714359273,-8,-8,-6,1,0,-3,1,7
1511883714372801,2,2,7,6,0,3,4,3
1511883714372801,2,-2,-8,-2,-7,-2,0,3
1511883714381308,10,1,-12,-3,-8,-3,-3,0
1511883714381308,-7,3,4,-1,-1,1,-3,-7
1511883714396321,2,-8,-3,-5,0,2,-8,-15
1511883714396321,10,0,12,-1,0,-11,-5,12
1511883714402336,14,2,6,2,0,-2,0,0
1511883714402336,13,5,-2,1,2,1,1,0
1511883714410384,-14,-4,-6,2,1,1,6,2
1511883714410384,35,16,1,1,0,1,7,-2
1511883714419382,-41,-8,-3,-1,5,-1,3,-23
1511883714419382,20,1,3,1,0,-5,1,16
1511883714432443,-17,-6,-5,-2,-2,-3,-5,-2
1511883714432443,16,2,9,-1,-2,2,-13,-23
1511883714441441,-47,-3,-10,1,-2,4,5,24
1511883714441441,-10,4,0,-3,-5,3,4,-3
1511883714455505,-16,-17,-19,0,-4,-2,3,-11
1511883714455505,4,8,-2,-12,-10,-3,2,7
1511883714462497,26,0,13,4,-1,8,0,-6
1511883714462497,11,2,-1,-5,-6,1,3,6
1511883714470521,37,9,-5,1,-2,1,3,7
1511883714470521,-41,-14,-4,4,7,-1,0,2
1511883714479044,9,-1,0,-3,3,-6,-13,-1
1511883714479044,-1,-2,8,3,8,-5,-5,-3
1511883714492303,13,4,0,-4,-2,-6,-3,1
1511883714492303,-7,-1,2,5,2,3,5,2
1511883714501304,36,15,11,0,-4,-3,5,24
1511883714501304,-10,-11,-13,-6,-1,0,-7,0
1511883714516339,-11,6,17,2,5,3,-5,6
1511883714516339,-17,-6,2,3,0,0,1,-4
1511883714522355,6,-7,-9,-2,-3,0,6,10
1511883714522355,-38,-7,-9,-2,-3,-1,-1,-30
1511883714530403,-5,5,3,0,-4,-1,-8,-2
1511883714530403,3,4,-6,-4,-1,3,6,30
1511883714539401,-1,-4,-8,-1,1,-1,-2,-14
1511883714539401,15,9,7,-2,0,0,0,4
1511883714552435,-6,-2,-5,1,0,5,3,-23
1511883714552435,-1,-2,2,-2,0,1,-1,-2
1511883714561458,4,1,-4,-2,-1,-2,3,-3
1511883714561458,-66,-2,-3,2,1,2,4,7
1511883714576028,21,-7,-7,1,1,-2,2,24
1511883714576028,-7,-2,9,1,4,2,-2,-3
1511883714583125,25,-8,-6,-5,0,-2,-4,8
1511883714583125,-9,6,15,-1,-2,-1,0,-20
1511883714590143,-17,-18,-4,-8,-7,-1,-1,-24
1511883714590143,-5,-9,-7,-6,-5,-1,2,-11
1511883714599166,3,-2,1,0,-3,6,4,9
1511883714599166,23,11,-2,4,-1,0,-2,7
1511883714612201,-10,2,-2,-3,-6,-7,-5,8
1511883714612201,13,4,-10,2,-1,-6,-3,-3
1511883714621247,-21,7,4,1,-3,-4,-2,-14
1511883714621247,58,1,-6,-8,-6,0,4,23
1511883714635263,-4,7,6,3,11,9,1,-3
1511883714635263,2,-1,-5,0,2,0,-2,-4
1511883714644288,-9,6,7,0,-3,-4,-3,-3
1511883714644288,-10,-14,-13,-8,-5,-4,5,8
1511883714650303,18,-7,-1,4,6,-2,0,0
1511883714650303,-8,1,9,-2,-3,3,-2,-5
1511883714659327,-30,-4,-3,3,-1,4,0,-2
1511883714659327,3,2,5,3,-8,-1,0,2
1511883714672893,-22,10,-9,1,-2,-6,-1,-12
1511883714672893,6,1,-4,3,6,-2,-2,-6
1511883714682117,-17,-6,-4,-8,1,-4,-4,-1
1511883714682117,-10,8,2,2,10,2,-1,-7
1511883714695152,29,-2,10,-12,-10,-3,-1,18
1511883714695152,4,-17,-10,2,3,-2,-1,2
1511883714704175,0,6,-4,-5,6,-3,-5,2
1511883714704175,20,-5,14,8,9,-1,-5,-1
1511883714710218,-58,-2,1,2,3,-2,-2,-15
1511883714710218,-8,-11,-12,1,-3,0,2,-1
1511883714719215,6,4,9,-3,-8,-3,1,-1
1511883714719215,-10,-6,-9,-1,-5,-6,-3,-3
1511883714732251,7,-5,-7,0,1,-3,-3,0
1511883714732251,-7,5,2,3,-5,-1,-6,-6
1511883714741300,0,0,-6,-3,-2,5,1,10
1511883714741300,7,7,7,5,6,-1,3,3
1511883714755333,5,-6,-6,-5,-7,0,3,1
1511883714755333,14,28,5,-3,-5,5,4,9
1511883714764363,-10,-10,1,0,-1,3,1,-6
1511883714764363,9,-2,-1,-6,-6,-2,1,-4
1511883714770405,-29,-14,-13,-4,1,-1,1,-7
1511883714770405,2,-12,0,0,2,-4,-2,-10
1511883714778901,8,17,10,8,0,0,-3,-5
1511883714778901,-4,2,5,6,-4,0,-6,1
1511883714792314,38,10,4,4,2,1,0,-7
1511883714792314,-15,-7,-15,-10,-6,2,1,-5
1511883714801313,-12,-11,-7,-3,3,3,2,-8
1511883714801313,1,-7,-2,-3,-4,-2,-3,-3
1511883714838438,22,15,9,2,-4,-4,-2,-3
1511883714838438,5,-9,3,6,1,-4,-4,-3
1511883714846434,14,2,-3,-3,-1,-1,-3,-3
1511883714846434,1,22,7,-3,-3,1,-4,2
1511883714861473,-11,-19,-6,-9,-1,4,-2,6
1511883714861473,-4,-3,-3,2,0,-4,-3,2
1511883714863479,-4,-7,-7,1,-4,-8,-6,0
1511883714863479,17,4,6,0,3,-1,0,-10
1511883714876015,-21,-6,-3,0,5,0,3,5
1511883714876015,-1,2,8,-3,6,1,4,0
1511883714882535,38,-7,-6,-1,2,-1,8,22
1511883714882535,-6,6,12,1,-9,0,0,1
1511883714899580,3,1,13,9,-8,2,2,4
1511883714899580,-8,2,4,-1,-6,2,2,-4
1511883714899580,51,8,4,-4,-8,-3,-1,1
1511883714899580,-10,-13,-15,-3,-1,-2,-3,2
1511883714913644,-17,-7,-13,-4,9,2,-7,-4
1511883714913644,-18,-2,-1,-4,2,-1,-6,13
1511883714914646,-13,-1,1,4,-2,1,-4,-7
1511883714914646,-5,-3,-11,-10,-2,-4,5,1
1511883714928684,12,12,10,0,2,5,5,4
1511883714928684,36,12,12,2,6,5,2,1
1511883714930663,-14,1,6,0,5,0,4,0
1511883714930663,-9,-5,-7,-1,6,-2,5,5
1511883714942718,-19,-2,-8,-2,-4,-9,2,10
1511883714942718,-23,-14,-9,-4,-10,-8,-2,-6
1511883714951718,-26,-2,7,-6,-5,1,-2,-10
1511883714951718,-10,-2,9,10,2,1,1,-2
1511883714967101,25,-6,-18,-2,-4,0,-1,-8
1511883714967101,12,13,11,10,1,5,-3,3
1511883714968434,-11,-13,-8,-2,0,-3,-1,-3
1511883714968434,16,-5,7,4,8,-4,-1,-4
1511883714995627,8,7,4,-2,3,0,5,-3
1511883714995627,34,4,1,3,16,3,4,7
1511883715005565,0,-7,5,3,9,-4,-2,-7
1511883715005565,3,0,1,-11,-16,-7,-3,5
1511883715018569,4,0,-20,-9,1,3,-7,-23
1511883715018569,-36,-7,12,-1,-27,-15,-5,6
1511883715020574,-22,42,9,7,5,-2,-1,1
1511883715020574,9,-5,-1,6,6,3,1,7
1511883715032636,5,-3,3,2,-8,-4,-2,1
1511883715032636,36,-4,-11,2,9,7,-1,-13
1511883715041662,7,-16,-7,-9,-12,-7,-6,-14
1511883715041662,-5,-4,-6,-1,-3,5,-2,1
1511883715055670,-8,12,6,-5,-18,-5,-1,5
1511883715055670,-1,-4,-4,-1,6,8,7,0
1511883715056669,-10,-4,-10,2,-3,3,7,2
1511883715056669,0,6,-8,-5,2,3,-2,1
1511883715071922,-8,-16,2,-11,5,1,0,4
1511883715071922,-33,-11,3,-2,2,-2,-4,-8
1511883715073378,31,10,5,-6,-11,-6,-7,-7
1511883715073378,-34,-6,1,3,-1,0,0,-18
1511883715086439,3,6,6,7,8,2,-4,0
1511883715086439,4,0,-10,-2,-18,-11,-1,10
1511883715088442,-8,-9,-10,2,12,8,0,7
1511883715088442,9,-4,-13,-1,4,-2,-4,4
1511883715100477,11,9,2,8,3,-1,3,1
1511883715100477,-26,-4,-5,-7,3,1,2,7
1511883715109498,-4,-8,0,1,-4,-2,1,3
1511883715109498,1,-5,7,1,-8,-6,4,2
1511883715124674,15,6,7,-6,-2,0,3,5
1511883715124674,9,8,-3,-6,-5,-1,-7,-3
1511883715125547,-11,-4,2,-1,1,0,-7,3
1511883715125547,2,-1,-4,-3,-3,-2,-8,-2
1511883715146643,-5,-4,2,5,5,0,-2,-7
1511883715146643,7,0,0,4,2,2,-2,0
1511883715148603,11,-4,-1,-3,-8,-7,1,-11
1511883715148603,-18,0,4,0,-3,0,-4,-23
1511883715160687,-51,-21,5,4,-6,-5,1,6
1511883715160687,16,1,-3,-3,-5,-8,4,-10
1511883715169689,-29,-7,-5,1,5,2,3,-5
1511883715169689,6,10,-3,-3,-2,2,0,0
1511883715184009,2,2,-11,-2,-4,4,-4,12
1511883715184009,7,1,-1,-6,-3,-1,-10,-14
1511883715185991,14,5,-3,-2,-1,5,4,4
1511883715185991,8,-4,3,-4,-6,-1,3,4
1511883715207073,-3,1,2,5,0,-2,3,-4
1511883715207073,1,1,4,-1,4,1,0,-3
1511883715208062,9,-4,-9,3,4,0,-1,2
1511883715208062,1,-7,-8,1,10,2,0,1
1511883715220110,3,4,-6,-3,-3,3,0,-5
1511883715220110,1,-8,-5,-3,-2,-1,0,-2
1511883715229105,-4,4,7,5,2,-6,-2,-5
1511883715229105,-6,-4,-4,-1,-5,-5,3,2
1511883715244146,26,10,6,7,1,-7,2,5
1511883715244146,28,5,2,-1,-5,1,3,10
1511883715246151,3,-8,5,-1,-5,2,-3,6
1511883715246151,1,-7,-5,-2,-2,-1,-3,2
1511883715266735,16,1,7,-5,-1,-5,-10,-3
1511883715266735,-13,0,-5,-5,6,0,-4,-14
1511883715268221,-3,5,4,-1,-2,3,2,0
1511883715268221,28,7,1,-6,-3,4,-2,-8
1511883715280248,-1,-2,-2,-4,2,-2,3,-7
1511883715280248,-8,0,-6,-1,3,2,0,-13
1511883715289270,-6,5,-10,5,2,1,-5,-3
1511883715289270,-11,0,-8,4,0,3,-5,10
1511883715304339,3,-1,-3,-4,-5,2,-1,-3
1511883715304339,-25,-8,1,-2,-6,-7,2,8
1511883715305340,-45,-10,7,-4,-5,-11,-1,-18
1511883715305340,-21,-8,-3,4,2,2,7,13
1511883715319352,16,6,3,1,5,-1,-5,14
1511883715319352,12,0,-8,-1,5,3,4,16
1511883715320354,19,4,-1,-7,2,3,-4,-4
1511883715320354,-26,0,0,-5,2,0,-4,-25
1511883715333414,2,-1,0,0,3,2,2,26
1511883715333414,-8,1,3,5,-2,2,-1,-2
1511883715341437,8,-4,-5,4,-2,7,4,-6
1511883715341437,10,1,5,4,-1,0,2,-18
1511883715355447,-8,1,9,6,-3,-1,2,-5
1511883715355447,-5,2,11,2,-2,-1,-5,-1
1511883715364475,-3,1,-5,-2,1,-5,0,7
1511883715364475,8,-2,-11,-7,-1,2,3,11
1511883715379515,23,15,11,-2,1,4,4,-7
1511883715379515,-15,-4,-2,0,1,-2,3,0
1511883715380517,18,-1,1,-1,-1,4,2,6
1511883715380517,-15,-1,-5,-1,4,-5,2,6
1511883715392550,36,-2,-5,2,3,1,2,13
1511883715392550,-1,4,0,4,1,2,2,-1
1511883715401574,14,5,4,0,6,0,3,3
1511883715401574,-25,-6,-9,-2,-1,-5,-4,0
1511883715415611,-12,-9,-6,1,-3,-4,-5,-10
1511883715415611,-4,11,-2,1,-4,-5,-4,1
1511883715424635,-11,-4,-5,0,-6,-4,-4,0
1511883715424635,9,2,7,4,3,-3,-3,3
1511883715438673,-20,-6,-6,-6,1,-5,-1,-11
1511883715438673,5,-8,-3,0,2,0,-2,-7
1511883715440679,5,2,-6,0,2,3,-4,-23
1511883715440679,-7,-1,7,2,-1,6,5,23
1511883715452734,-9,-4,8,4,0,7,0,-1
1511883715452734,14,0,12,3,1,2,-1,5
1511883715461734,-44,-16,-13,-6,-1,-5,-3,-7
1511883715461734,19,4,17,0,1,-4,2,-4
1511883715475322,-20,0,-6,-1,-1,-4,4,-7
1511883715475322,-5,4,4,-2,-4,-2,3,3
1511883715484347,-30,-6,-8,-2,-1,5,-2,-9
1511883715484347,6,11,4,-2,-3,0,-2,3
1511883715499415,-11,-6,-3,-5,-2,0,-1,7
1511883715499415,-7,-3,-6,-1,3,-3,-2,-5
1511883715500391,-12,-3,4,-1,1,-4,1,15
1511883715500391,12,-4,1,1,0,-1,-3,1
1511883715512457,-8,-1,-3,-1,-1,-1,-3,-12
1511883715512457,2,-6,-6,-5,-1,6,2,-2
1511883715521445,8,3,-2,-2,-1,5,6,4
1511883715521445,2,-1,-12,-3,-4,2,0,-7
1511883715535510,5,-1,1,3,-1,-2,-6,3
1511883715535510,-2,-5,-2,-1,-3,-5,-8,3
1511883715544535,12,-1,2,1,1,-3,-1,9
1511883715544535,-7,0,0,-1,-2,0,1,-4
1511883715558572,-4,-2,-6,4,-2,3,6,-7
1511883715558572,-1,-1,-13,-2,0,-1,3,-4
1511883715560550,13,2,1,3,3,0,-2,-1
1511883715560550,4,-1,-1,0,9,-4,-3,0
1511883715573139,-12,3,7,-1,4,-3,-10,-5
1511883715573139,-7,-3,2,1,4,-2,-5,-5
1511883715581665,5,-6,-3,-7,-11,-8,-1,6
1511883715581665,5,0,1,1,-5,0,9,2
1511883715595739,-2,-1,-5,2,0,-3,3,-1
1511883715595739,0,-2,8,-1,-6,-2,1,1
1511883715603751,10,-2,-9,6,3,3,-2,3
1511883715603751,-5,-1,-5,-13,-6,-1,-3,-6
1511883715618790,-1,4,4,-4,-4,3,10,-3
1511883715618790,29,6,1,5,11,6,5,4
1511883715620788,-18,-3,4,-1,-10,-7,-1,-2
1511883715620788,4,7,13,10,6,3,-4,7
1511883715632831,4,-1,-14,-2,1,-4,-7,6
1511883715632831,7,-15,-11,-5,1,-2,-8,0
1511883715641826,4,6,10,7,15,2,-1,-10
1511883715641826,11,17,13,-15,-10,-1,3,-1
1511883715654884,-13,-43,-33,-1,0,-1,0,-3
1511883715654884,0,46,32,-1,-33,-2,10,5
1511883715664415,-2,-12,3,-25,-11,0,1,0
1511883715664415,-6,-7,1,14,7,-4,-3,1
1511883715678980,-1,0,-7,10,8,1,-2,-3
1511883715678980,-2,-7,-8,-14,-5,-1,-2,-6
1511883715681142,-26,-5,9,11,11,7,2,4
1511883715681142,5,-16,-9,-2,-9,-5,-6,-4
1511883715693203,2,13,15,-9,2,5,4,-2
1511883715693203,-20,-29,-19,0,2,-7,-4,-5
1511883715702221,18,28,17,2,2,9,6,8
1511883715702221,-2,-14,-16,2,5,1,-6,0
1511883715715260,-4,7,6,1,-7,1,-6,3
1511883715715260,-5,1,-8,2,4,4,-1,2
1511883715724257,4,1,-12,-7,-6,-1,-5,-1
1511883715724257,-4,-1,8,12,14,10,-3,-1
1511883715739296,2,-3,5,-6,-13,-7,-8,-7
1511883715739296,-3,1,3,0,4,6,2,-4
1511883715740299,6,-4,-11,-7,-9,-6,-3,2
1511883715740299,5,3,1,5,3,-3,2,5
1511883715752361,0,6,4,-3,1,0,9,4
1511883715752361,-3,-3,-7,6,7,-3,3,3
1511883715761387,0,4,-2,3,3,-5,-2,0
1511883715761387,-4,3,-5,-7,-6,-4,-5,-7
1511883715775447,-8,0,-4,4,-1,-3,-2,-4
1511883715775447,-8,-3,3,1,-4,-1,0,-3
1511883715784473,9,7,7,4,-1,-4,1,-2
1511883715784473,5,0,3,-2,-8,-3,2,4
1511883715799539,5,-7,-3,0,-2,-3,-1,-2
1511883715799539,-3,-1,-6,2,-11,-2,-2,4
1511883715800516,0,-10,-7,6,-3,3,-3,1
1511883715800516,5,18,7,2,4,1,-1,-2
1511883715812548,1,0,4,-6,0,0,0,-4
1511883715812548,-3,-2,1,-3,11,0,2,-4
1511883715821570,0,-9,-1,-5,5,1,-3,-2
1511883715821570,-9,-8,-9,-10,1,4,0,-3
1511883715835609,-4,2,0,-3,-1,4,-3,0
1511883715835609,2,4,6,0,1,5,-2,-2
1511883715844632,5,1,-5,3,-7,-3,2,3
1511883715844632,-6,-10,-7,4,1,-2,3,1
1511883715858670,1,6,-4,-3,-6,-8,-1,5
1511883715858670,1,4,3,-1,3,-5,0,5
1511883715860675,0,3,2,2,5,-6,-1,-5
1511883715860675,-1,-1,-3,-9,-7,-3,1,-3
1511883715872709,2,-1,1,1,1,5,-1,-6
1511883715872709,-1,-5,2,-4,-15,4,0,-4
1511883715889677,1,5,2,2,-4,8,3,-1
1511883715889677,-3,-2,2,-1,4,6,3,0
1511883715895695,-3,-2,-2,4,5,1,1,2
1511883715895695,-3,-7,-5,-5,-1,-7,-3,-1
1511883715904717,-2,1,-2,-5,-1,-11,-4,-3
1511883715904717,-2,-2,-1,-1,-10,-9,-1,-3
1511883715918780,-1,-3,4,-2,-1,-1,-1,1
1511883715918780,2,-2,-1,2,1,-6,-3,-1
1511883715920759,4,2,-4,2,1,1,0,-1
1511883715920759,3,2,-4,-3,-3,2,-5,-5
1511883715932791,1,0,4,-3,-7,3,0,-6
1511883715932791,0,4,-2,-2,-3,0,-1,-6
1511883715941815,-1,-8,-3,0,-1,2,-2,-3
1511883715941815,1,2,-5,2,0,0,-3,-1
1511883715954852,-5,-1,-3,4,12,2,-1,3
1511883715954852,-6,-9,-6,2,10,3,-2,0
1511883715964500,-9,-13,-3,-3,-5,-1,-2,1
1511883715964500,7,10,10,1,2,1,4,3
1511883715979160,2,11,5,-4,-5,-4,4,6
1511883715979160,0,2,3,0,4,-2,-1,1
1511883715981306,-4,-3,0,-3,5,-3,-4,-4
1511883715981306,1,-1,1,-3,2,1,0,-4
1511883715993352,3,4,-3,-2,2,1,-3,1
1511883715993352,3,-1,-5,-4,-22,-7,-2,1
1511883716001384,7,4,2,1,7,4,3,7
1511883716001384,-4,-8,-5,-3,1,-3,0,3
1511883716015401,-5,-8,2,1,4,2,3,-2
1511883716015401,-12,-6,4,0,0,3,-2,-1
1511883716024422,3,6,2,-5,-16,-6,0,5
1511883716024422,-12,-10,-8,1,-9,-6,-1,1
1511883716038438,2,-6,-7,-2,-6,-4,-3,-3
1511883716038438,6,8,0,5,9,7,3,6
1511883716045456,1,3,1,-3,-1,-4,-7,-4
1511883716045456,6,2,-1,-3,5,5,5,-1
1511883716052472,-3,-2,-5,-5,-5,-2,2,-2
1511883716052472,-4,2,-2,-5,-3,-3,0,-1
1511883716061529,0,-1,5,3,2,-1,2,4
1511883716061529,-1,-2,4,0,-4,-2,0,-2
1511883716075629,4,6,3,2,-9,-6,-6,-3
1511883716075629,1,4,0,4,4,5,0,1
1511883716084651,-7,-1,2,-1,4,1,-5,1
1511883716084651,-5,-10,1,3,3,-1,1,3
1511883716098687,-7,-3,-2,2,2,-3,0,0
1511883716098687,1,12,-2,-2,-3,-2,0,-2
1511883716105705,-6,7,-6,-5,-7,1,0,-10
1511883716105705,-11,-16,-3,-1,-2,4,-3,-7
1511883716112733,3,6,3,-1,-6,-3,1,2
1511883716112733,0,-1,3,1,-3,-9,-3,-4
1511883716121743,4,-3,1,2,0,-3,0,1
1511883716121743,2,0,-1,0,0,-1,3,2
1511883716134976,-4,-5,0,-3,6,2,-1,-6
1511883716134976,-4,-8,-4,-2,2,-2,-5,-3
1511883716144870,10,1,-5,1,3,4,2,1
1511883716144870,11,2,-8,-2,3,-2,-5,1
1511883716159035,2,-2,0,-6,-8,-3,-5,2
1511883716159035,8,0,5,-1,4,3,6,5
1511883716165370,1,-2,5,-4,-2,1,7,2
1511883716165370,4,7,3,-4,-7,-4,1,0
1511883716182130,5,-2,4,-3,-8,0,1,-1
1511883716182130,0,-6,2,0,-4,2,-2,-5
1511883716183066,-5,-4,-1,1,-1,2,3,-6
1511883716183066,-1,-1,1,2,-3,1,1,1
1511883716195100,1,6,-2,0,4,-1,-2,0
1511883716195100,3,7,-2,-6,-4,-3,-3,1
1511883716204121,0,8,-1,7,6,3,-2,-1
1511883716204121,2,15,-4,-10,-9,-4,-2,-3
1511883716218198,-7,-2,1,13,9,3,0,-1
1511883716218198,0,1,0,0,-2,2,1,1
1511883716225177,-7,-2,-5,-2,-3,0,-4,-2
1511883716225177,-3,5,-2,0,-2,-3,-5,-2
1511883716241247,-4,-8,-8,1,1,0,0,-1
1511883716241247,-4,1,-5,3,0,-4,2,-7
1511883716243227,2,-4,5,2,1,-1,0,-3
1511883716243227,4,-3,5,-1,-2,-3,-1,0
1511883716255284,3,-3,3,1,8,-3,-4,1
1511883716255284,0,-2,-2,1,6,-3,-5,1
1511883716264285,2,2,-5,0,1,1,-11,3
1511883716264285,0,-1,-3,3,1,3,-5,5
1511883716278823,4,2,4,-3,-6,1,7,6
1511883716278823,-4,-6,1,0,-5,0,6,0
1511883716284740,-3,1,3,3,2,-2,7,1
1511883716284740,-6,-5,1,5,5,-3,1,-3
1511883716301813,-5,-6,-5,-5,-3,-2,2,-2
1511883716301813,3,0,-3,2,6,-1,0,0
1511883716302815,6,-5,-5,-5,-4,-3,-2,-4
1511883716302815,2,-10,-5,2,6,1,-8,-4
1511883716314820,8,7,2,-7,-16,-7,-4,2
1511883716314820,-2,-11,1,-7,-8,1,-1,0
1511883716323845,-3,3,1,-1,-2,4,-4,-2
1511883716323845,-5,-3,-2,-2,1,2,-1,-2
1511883716337908,1,-5,-8,-6,-3,-2,-9,-6
1511883716337908,2,0,-2,5,11,4,2,2
1511883716344927,-1,-2,0,-3,-3,-2,2,3
1511883716344927,0,1,1,-5,-4,-1,-1,0
1511883716361972,-6,1,4,3,10,6,4,2
1511883716361972,-2,-2,-10,-7,-2,-4,0,-1
1511883716362964,-5,-2,-6,-3,0,-5,1,-6
1511883716362964,-3,4,-3,3,2,-7,3,-2
1511883716375524,-4,1,2,1,-1,-3,-3,2
1511883716375524,-1,1,6,-8,-11,-5,-5,3
1511883716383963,-3,-3,1,1,0,1,-3,3
1511883716383963,-4,-1,-2,-3,-10,0,-3,1
1511883716398027,-1,1,-4,3,-4,2,-1,-4
1511883716398027,-2,-8,-1,1,-3,0,0,-3
1511883716405048,7,1,3,2,-8,-1,-1,-2
1511883716405048,5,-1,3,0,-4,0,1,-2
1511883716421088,5,0,5,-1,0,1,4,3
1511883716421088,0,0,0,-4,5,-3,-5,-2
1511883716423068,5,-8,3,-8,6,-1,-1,-1
1511883716423068,5,3,-8,-2,-2,-4,-1,1
1511883716435099,-2,1,-4,-5,0,4,4,-1
1511883716435099,-7,2,-4,1,-4,2,1,-3
1511883716444122,-5,5,-4,3,-3,-3,1,1
1511883716444122,-4,-3,-3,0,-4,-5,-1,-3
1511883716458186,2,-13,-8,1,-2,-7,-2,-4
1511883716458186,-4,-3,-4,0,-1,-5,2,-2
1511883716465682,5,7,2,0,-2,-2,5,2
1511883716465682,0,-2,4,-4,-5,0,2,2
1511883716481278,4,-2,8,3,2,3,-2,-3
1511883716481278,2,2,7,5,8,4,3,-6
1511883716483258,-8,-4,-1,-5,1,2,-3,-5
1511883716483258,1,1,-3,-2,3,5,0,-2
1511883716495290,-6,6,-5,2,8,-1,2,2
1511883716495290,5,2,-5,-13,-24,-4,5,11
1511883716504314,-1,-2,-2,6,-1,-2,2,3
1511883716504314,4,5,5,-1,-7,0,-4,-1
1511883716518379,1,-3,-1,2,-9,4,-8,-5
1511883716518379,1,2,-1,2,-10,1,-4,-6
1511883716525403,-3,-1,-4,0,-9,-4,-4,4
1511883716525403,-8,-4,-2,0,3,-1,0,1
1511883716541445,-4,-1,3,-8,-2,-3,-1,-4
1511883716541445,-7,-12,-3,-3,4,-2,-5,-4
1511883716543451,-2,0,-4,-4,-1,3,1,2
1511883716543451,1,-2,-1,10,11,3,1,1
1511883716555482,7,10,3,-3,-15,-7,0,6
1511883716555482,0,5,5,2,7,2,3,6
1511883716564473,0,2,0,-2,6,0,6,-2
1511883716564473,-5,-8,-1,-4,1,-3,6,-2
1511883716578543,-4,-4,-5,-3,2,-5,-1,-8
1511883716578543,2,4,1,4,-6,-2,-5,-6
1511883716585564,7,5,-1,-4,-7,-3,0,1
1511883716585564,-3,0,2,3,0,-4,-3,2
1511883716601607,2,10,0,0,2,-3,0,4
1511883716601607,0,-1,-3,7,9,-2,-5,-1
1511883716603632,-4,-6,-6,0,2,5,-1,-2
1511883716603632,-3,4,-4,-3,-5,6,2,-5
1511883716615658,-6,-7,-2,4,0,2,-1,2
1511883716615658,-6,-7,0,-8,-1,0,-3,-3
1511883716624700,-2,-15,5,1,4,0,0,4
1511883716624700,-1,4,10,-3,6,-4,-2,-2
1511883716638735,1,-2,3,1,1,-3,-2,-1
1511883716638735,7,3,1,0,-2,-2,3,-2
1511883716644748,4,-7,4,-1,0,-3,0,-3
1511883716644748,5,14,8,-8,-6,-1,-5,2
1511883716661793,0,3,8,-3,-1,7,1,2
1511883716661793,-3,1,2,1,2,2,2,4
1511883716662770,0,0,-6,0,-6,-4,-2,-5
1511883716662770,1,-10,-9,3,0,1,0,-4
1511883716675305,-4,-6,-5,2,3,2,-5,-7
1511883716675305,-3,2,-5,6,4,-2,-6,-5
1511883716684351,-7,0,-7,-1,-4,-5,-2,2
1511883716684351,3,6,-1,0,2,2,2,6
1511883716698418,2,-7,0,1,3,1,2,2
1511883716698418,-1,-8,-6,-4,-5,0,2,2
1511883716705408,2,15,0,0,0,-3,-2,0
1511883716705408,-3,-4,-3,0,-6,-4,-3,2
1511883716721477,-4,-1,0,-4,2,-2,-1,0
1511883716721477,-1,1,4,2,-1,0,-1,-2
1511883716723479,-2,3,4,2,-4,4,-1,-4
1511883716723479,-3,-4,-5,-2,-2,-8,-2,-6
1511883716735514,0,2,-5,-2,0,-6,4,-3
1511883716735514,0,4,-1,1,6,-4,2,0
1511883716744538,-3,-3,-1,-11,-5,-1,-4,-2
1511883716744538,1,-7,2,2,9,8,-1,1
1511883716758575,-3,0,-5,6,6,1,-5,-4
1511883716758575,-5,-6,1,-12,-11,-2,-6,1
1511883716765623,-1,7,-1,1,2,6,-5,2
1511883716765623,-1,-1,-4,-2,-4,0,-5,9
1511883716781693,-4,-8,-9,-1,1,1,-1,6
1511883716781693,3,-2,-6,6,7,-1,0,2
1511883716782696,2,-1,1,0,-7,-8,-1,2
1511883716782696,3,2,-2,0,-5,-5,6,-2
1511883716794730,-1,-1,1,-1,-4,-1,6,-5
1511883716794730,2,2,0,0,-1,1,5,-9
1511883716803752,6,-9,-7,-5,1,4,2,-7
1511883716803752,-2,-3,-5,-2,3,6,-1,-6
1511883716818765,-3,0,-3,2,-1,1,-6,2
1511883716818765,-2,-2,0,-1,-6,-2,-7,1
1511883716824808,-5,-4,-2,0,0,-5,-5,1
1511883716824808,-5,-11,-4,5,5,-2,-2,2
1511883716841853,8,21,3,1,3,-3,2,4
1511883716841853,-1,1,-1,-4,2,-3,4,-2
1511883716842858,-3,0,3,2,8,-2,-2,-5
1511883716842858,1,0,0,1,3,4,2,-3
1511883716854888,-2,-7,2,-7,-9,8,2,-4
1511883716854888,1,1,5,0,-1,11,5,-4
1511883716863920,-5,2,0,-1,-10,1,0,-5
1511883716863920,-6,6,4,-2,-6,-7,-5,-1
1511883716878454,-11,-3,2,4,1,-8,-11,-1
1511883716878454,5,10,1,-1,3,-1,-6,6
1511883716884981,10,1,-2,-2,2,-1,1,1
1511883716884981,5,1,1,6,12,5,0,3
1511883716901015,2,-1,-8,-8,-8,-3,-2,3
1511883716901015,-1,-5,-5,0,-5,-4,0,3
1511883716903019,-6,-9,-5,0,1,-3,2,-1
1511883716903019,0,0,-1,-1,-8,0,5,-2
1511883716915078,-6,-2,3,0,4,5,3,-5
1511883716915078,-7,-6,-1,1,0,5,6,-2
1511883716924076,-7,-2,-1,0,0,1,3,-1
1511883716924076,-3,-4,-4,-2,-7,-9,1,-2
1511883716938139,1,-4,-9,5,-2,-4,-5,0
1511883716938139,2,-6,-4,-1,-9,-5,-6,1
1511883716945160,2,7,3,6,6,6,1,2
1511883716945160,-1,-9,-4,-10,-8,3,2,3
1511883716961205,5,0,3,1,5,-2,8,7
1511883716961205,-2,-2,-1,0,6,-5,0,2
1511883716968254,0,-2,-4,-4,0,-4,-4,-1
1511883716968254,6,8,3,-4,-2,-5,-7,0
1511883716975236,-1,-1,-3,-8,-4,-4,-10,-5
1511883716975236,-5,-8,-6,-4,2,-3,-8,0
1511883716984261,0,-5,0,0,0,-6,-7,2
1511883716984261,-2,-5,-2,3,1,1,-7,-3
1511883716999421,-1,0,-2,0,0,17,1,-3
1511883716999421,0,6,5,3,12,14,0,-5
1511883717005320,-2,-2,2,-4,-2,9,4,-7
1511883717005320,-5,0,3,0,-3,1,3,-10
1511883717021364,-4,-1,1,1,-9,-8,6,-5
1511883717021364,-5,-3,-6,3,-10,-10,3,-1
1511883717027379,3,3,-2,-1,-9,-15,0,5
1511883717027379,1,-2,-1,2,1,-11,-3,4
1511883717035397,2,0,2,-1,1,-5,2,3
1511883717035397,2,0,1,-6,-3,2,4,2
1511883717044422,-5,-9,-3,-2,1,3,-2,6
1511883717044422,-1,12,5,-3,-4,5,-1,3
1511883717058650,1,-2,-1,0,5,4,-1,3
1511883717058650,4,3,0,-1,4,-3,1,-1
1511883717065585,5,-1,1,-11,-14,-3,6,-2
1511883717065585,3,-14,-9,6,8,-1,5,-3
1511883717080629,-3,-6,1,1,-1,0,7,-4
1511883717080629,2,6,0,6,4,5,3,0
1511883717087976,-3,6,-2,3,6,1,1,-2
1511883717087976,-3,-5,-3,-4,-6,0,-2,-6
1511883717095193,-5,0,1,-1,1,1,0,-5
1511883717095193,4,17,5,-8,-5,-5,-4,-1
1511883717104018,5,2,2,3,6,-4,-2,0
1511883717104018,-1,6,-8,-6,1,-2,-2,0
1511883717119083,2,-5,-2,0,0,0,-6,2
1511883717119083,-5,-7,2,-4,-5,0,-6,-1
1511883717125200,-5,-2,1,-4,-7,-3,-1,-2
1511883717125200,-8,-6,-4,1,-1,-1,2,-6
1511883717141152,4,16,3,1,-2,-1,-4,0
1511883717141152,-1,1,-6,1,6,-4,-4,0
1511883717148133,3,-4,-3,-3,0,5,2,-6
1511883717148133,2,-1,2,-1,-3,1,1,-6
1511883717164293,1,-5,-4,-7,-11,-1,3,-3
1511883717164293,-2,-10,5,5,2,4,1,2
1511883717165804,4,-3,3,6,2,1,-7,-1
1511883717165804,4,2,5,6,2,1,-1,2
1511883717178837,1,0,4,2,1,0,-8,5
1511883717178837,-2,3,1,-6,-1,-5,-2,1
1511883717185359,-7,2,1,10,13,0,2,6
1511883717185359,-1,4,-1,-2,2,-6,2,7
1511883717200523,-3,-7,-8,0,1,-7,-3,4
1511883717200523,0,-8,-3,-2,-6,0,-4,0
1511883717207541,-6,3,2,-1,1,0,-6,-9
1511883717207541,1,1,-3,-8,-7,-5,-1,1
1511883717223585,2,-12,-2,-1,2,-1,7,-1
1511883717223585,2,-8,0,0,-1,-1,0,-5
1511883717225600,6,-3,0,-4,-6,1,-2,1
1511883717225600,-3,-12,4,9,3,12,0,1
1511883717238650,-3,-3,-2,-2,-3,1,0,1
1511883717238650,-4,3,2,1,-5,-1,2,-6
1511883717245643,-3,2,-3,-1,-5,-3,3,-1
1511883717245643,0,4,1,-2,-1,-3,-4,2
1511883717260713,4,7,-1,3,-3,-4,1,5
1511883717260713,1,0,-8,0,-5,-2,1,-2
1511883717267743,-2,-1,-4,-1,-2,-1,-2,-2
1511883717267743,2,2,-2,-4,0,4,2,4
1511883717284332,0,4,3,-4,4,3,-1,-3
1511883717284332,0,3,0,-2,5,2,7,-3
1511883717285307,-1,-4,0,-2,-1,0,1,1
1511883717285307,-3,-2,3,-8,-11,-3,-4,-1
1511883717298373,-4,1,3,-3,-4,-6,-5,-1
1511883717298373,-1,-6,-1,-3,4,-2,-4,-2
1511883717305388,0,-2,-4,-3,1,-5,-8,-4
1511883717305388,-7,-11,2,3,8,-5,-7,-7
1511883717321403,0,2,7,6,-2,-1,2,2
1511883717321403,2,11,5,-1,-1,0,0,2
1511883717327419,2,-1,3,4,0,5,3,6
1511883717327419,-1,-4,2,2,5,4,0,3
1511883717344465,-1,-4,4,-6,1,1,-1,-2
1511883717344465,-7,-2,2,-2,-2,-2,-6,-6
1511883717345468,-5,-3,5,3,1,3,-5,-2
1511883717345468,1,2,4,-6,-5,1,3,-3
1511883717358529,-3,-2,-1,-2,-4,9,-1,-4
1511883717358529,3,0,-5,-1,-4,7,0,2
1511883717365520,2,1,-7,-1,-5,-2,4,2
1511883717365520,2,7,-16,1,-5,-9,2,1
1511883717381093,1,1,-11,4,3,-11,1,-3
1511883717381093,-1,-2,-6,-4,0,-5,-2,2
1511883717387583,3,-2,4,-4,-3,-4,-5,1
1511883717387583,0,5,-6,-1,0,-1,-8,-1
1511883717403652,-4,1,-11,-5,-2,-4,-7,-6
1511883717403652,-2,-4,-6,7,12,2,-3,-4
1511883717405630,0,-1,-6,-1,-1,-1,-3,-1
1511883717405630,6,3,1,4,-1,4,2,-1
1511883717418692,4,-4,-2,-12,-13,-2,-4,-4
1511883717418692,0,-6,0,4,-1,0,0,-2
1511883717425685,-4,-10,-2,1,3,-2,5,-9
1511883717425685,-4,-3,2,-2,0,0,2,-5
1511883717440751,-4,-7,-3,1,-4,-1,7,2
1511883717440751,4,7,0,-1,-5,-9,2,7
1511883717447770,-2,2,7,-6,-5,4,3,7
1511883717447770,-4,-1,-2,-2,-3,3,-2,3
1511883717463813,-4,-4,3,-2,4,7,-1,0
1511883717463813,-1,-9,-1,-3,-5,2,-2,-2
1511883717465801,4,7,0,0,4,-3,-4,-6
1511883717465801,3,3,-2,-1,-3,-7,-3,-2
1511883717478861,6,9,-3,1,3,-2,1,4
1511883717478861,-4,7,-2,3,0,0,2,-1
1511883717484903,-1,0,-5,1,1,-5,-1,-2
1511883717484903,-1,-1,0,-7,-3,-2,2,-8
1511883717500954,-2,-1,2,-2,-2,-1,-2,-8
1511883717500954,4,-3,0,-4,-2,3,-3,-5
1511883717507966,-5,-1,2,2,1,8,-2,5
1511883717507966,3,2,6,-8,-4,2,-1,8
1511883717523005,-4,-8,-4,-3,-5,-5,-4,6
1511883717523005,-7,12,12,2,0,-5,1,4
1511883717532004,-2,-4,-3,5,-2,-4,5,-3
1511883717532004,-1,-11,-8,3,-2,-1,1,-2
1511883717538050,1,9,-6,3,2,3,-3,0
1511883717538050,4,-10,-4,-2,2,0,0,2
1511883717545072,6,-2,-3,-3,8,-4,3,5
1511883717545072,1,2,-4,-3,0,-4,0,4
1511883717561115,0,2,1,0,1,1,-3,1
1511883717561115,-7,-2,0,-5,-6,-1,-3,-5
1511883717568136,-7,4,8,-5,0,-2,-4,-1
1511883717568136,-5,-3,2,3,5,3,0,-1
1511883717584114,0,3,4,4,4,2,-3,-2
1511883717584114,0,1,-4,2,1,0,-1,-2
1511883717586089,-2,-1,1,5,-5,-3,-4,-7
1511883717586089,-3,-3,-10,1,-10,-12,-1,-5
1511883717598158,7,1,9,-4,-5,-10,0,-1
1511883717598158,4,-6,-1,1,-1,-2,3,1
1511883717605173,4,6,-2,-5,-1,0,9,-1
1511883717605173,-2,1,10,-3,2,6,0,-3
1511883717621182,2,5,2,-4,1,8,-5,3
1511883717621182,-2,-6,-2,-6,-6,5,-7,8
1511883717627224,-4,-1,0,1,-3,2,-10,8
1511883717627224,-1,-6,-7,-2,-2,-4,-3,-2
1511883717644271,-4,-7,-12,3,4,-7,4,-8
1511883717644271,6,-1,-6,3,3,-3,-1,-1
1511883717645273,-6,-4,0,0,0,0,-6,1
1511883717645273,-1,14,6,0,-1,2,0,1
1511883717657302,-2,-13,8,7,3,3,7,0
1511883717657302,-1,-2,-4,-2,1,-1,4,-5
1511883717666838,-5,2,-6,-11,-7,-5,0,-4
1511883717666838,-3,-4,-2,-7,-2,-1,-3,3
1511883717681372,-8,2,2,-2,-1,-2,-6,7
1511883717681372,-1,8,3,-1,-2,-1,1,1
1511883717687177,4,-2,-1,3,0,-1,2,3
1511883717687177,1,-3,0,5,-1,2,3,-1
1511883717704245,3,0,-8,2,-1,-3,4,-6
1511883717704245,1,-3,5,7,3,-2,-3,-5
1511883717705248,2,0,-1,-1,-3,-1,-2,-9
1511883717705248,3,0,0,2,2,1,-1,1
1511883717717284,-5,-1,-1,3,2,2,-2,-1
1511883717717284,-2,1,-4,0,7,2,2,9
1511883717726304,-6,-4,5,-1,0,-2,-1,4
1511883717726304,-3,3,4,-2,0,-5,-2,-3
1511883717741344,1,-7,-7,-1,4,0,-3,-8
1511883717741344,-1,-5,-9,-1,4,1,-2,-7
1511883717747336,3,6,-7,-3,-2,0,0,-3
1511883717747336,0,-7,-3,2,7,4,1,-1
1511883717764382,5,14,9,-13,-4,-2,-1,-2
1511883717764382,2,0,10,-1,-4,0,-2,0
1511883717765385,1,-4,9,3,1,2,2,5
1511883717765385,-6,-9,-9,-5,-6,-7,5,3
1511883717777944,-8,-2,-3,5,-4,0,4,4
1511883717777944,-4,2,-4,-7,-15,0,1,1
1511883717787025,1,-3,0,-9,-7,-2,0,-1
1511883717787025,7,2,6,8,11,3,1,2
1511883717801062,5,0,-4,-1,2,-6,-5,-2
1511883717801062,-1,0,2,-4,-2,-9,-3,-5
1511883717808107,2,0,-2,0,5,-3,-4,-1
1511883717808107,-3,3,1,-3,-5,-2,1,-5
1511883717824150,-7,2,-6,-6,-7,3,9,-4
1511883717824150,-2,2,0,0,-2,4,5,-9
1511883717826153,-1,-3,2,4,-3,4,-3,-5
1511883717826153,-4,1,5,7,-1,3,-7,-3
1511883717837183,-8,-11,1,8,7,6,-5,1
1511883717837183,7,16,3,1,2,-1,-2,6
1511883717846212,7,2,-9,-1,-2,0,1,2
1511883717846212,-2,3,-3,-3,-1,-1,1,2
1511883717861252,1,2,-2,-9,-5,-4,-2,6
1511883717861252,-3,-6,-6,-3,-3,-6,-1,9
1511883717867768,0,-6,3,4,5,-7,-2,3
1511883717867768,1,0,10,3,-3,-5,-4,-1
1511883717883926,-5,-3,2,-1,-3,1,2,3
1511883717883926,-4,-4,-1,2,-1,-1,-3,-1
1511883717885932,0,2,-10,-1,0,0,2,-5
1511883717885932,3,1,-1,-3,6,3,0,-6
1511883717897968,7,-1,3,0,-3,0,-2,-2
1511883717897968,1,2,-3,1,0,2,-1,0
1511883717906988,-3,1,-1,-8,-8,-2,3,2
1511883717906988,-6,4,-7,1,-1,-3,-2,-4
1511883717921011,-2,-2,-4,1,2,2,1,-6
1511883717921011,-1,-5,0,-4,0,4,-1,-4
1511883717928049,-2,-6,-7,-5,0,2,-2,-2
1511883717928049,-1,-7,-2,-3,2,-3,-2,1
1511883717943086,0,3,9,5,7,2,-3,5
1511883717943086,-3,-2,-3,0,-2,-3,-3,-1
1511883717950110,-2,2,0,1,-2,0,-2,-2
1511883717950110,1,-4,-3,-8,-8,-2,-6,-1
1511883717958230,0,0,-4,-3,-6,-4,-5,-5
1511883717958230,-4,-9,-2,1,-3,0,5,-1
1511883717967245,1,8,5,-1,-5,1,6,3
1511883717967245,6,-5,-10,-6,-3,3,6,3
1511883717981410,-1,-7,-2,-6,2,2,3,-1
1511883717981410,2,6,7,-4,1,-4,-1,-3
1511883717987861,-12,-6,-2,7,10,-1,-4,-1
1511883717987861,-3,7,8,7,4,0,-1,3
1511883718003907,0,-3,5,0,0,-1,1,-4
1511883718003907,3,-5,3,-5,-5,9,1,-8
1511883718009919,4,-1,4,1,0,7,1,-3
1511883718009919,-4,-3,3,-3,-5,1,-4,0
1511883718018135,-3,-1,-9,-1,-7,-4,-9,4
1511883718018135,-3,10,-3,2,3,-9,-3,-1
1511883718026965,-2,2,-4,-3,-4,-12,-4,-2
1511883718026965,-3,-1,-5,1,2,-3,-4,1
