timestamp,emg1,emg2,emg3,emg4,emg5,emg6,emg7,emg8
1511883992370976,0,2,-1,-10,-3,0,-2,-1
1511883992370976,-2,1,-2,1,0,-3,-2,-2
1511883992371978,-3,-2,-2,0,-1,-1,-1,-1
1511883992371978,0,-1,1,0,-1,0,-1,-2
1511883992374008,-1,0,-1,2,-1,-1,1,0
1511883992374008,-1,0,-2,-4,-2,-1,-1,0
1511883992374986,0,1,0,1,-1,1,-2,0
1511883992374986,-2,0,-3,4,-2,0,0,-1
1511883992381005,-2,0,-4,-9,-2,1,0,-2
1511883992381005,0,2,0,-1,-1,-1,-1,-3
1511883992389022,2,2,1,0,0,-1,0,0
1511883992389022,-3,1,0,-1,1,-1,-1,-2
1511883992402057,1,0,-1,5,1,-2,-2,2
1511883992402057,-1,0,-1,0,-1,-1,1,1
1511883992414089,-1,1,4,4,0,1,-2,-2
1511883992414089,-3,-6,-3,-3,-2,-1,-2,-2
1511883992417100,0,-1,-1,-5,-2,-2,0,-2
1511883992417100,0,-1,-1,-7,-2,-1,-1,-1
1511883992442163,-1,0,-2,0,-3,-1,0,0
1511883992442163,2,0,2,0,1,-2,0,1
1511883992442163,-3,-2,1,5,2,0,1,0
1511883992442163,-1,0,-1,-4,-2,1,-1,-1
1511883992487302,0,-1,1,0,-1,-1,-1,-2
1511883992487302,0,-1,-1,-1,0,0,-1,0
1511883992488142,0,-1,-1,-2,-1,0,-2,0
1511883992488142,-3,-2,0,-1,-1,-1,-2,-1
1511883992489143,0,-2,1,-1,-1,-1,0,-1
1511883992489143,-1,0,-1,1,0,-1,1,-1
1511883992490150,0,-2,0,2,-3,-2,-1,-2
1511883992490150,-1,3,-1,-4,-2,-1,0,0
1511883992494156,-2,-10,-2,2,-1,0,-1,0
1511883992494156,-2,0,-1,-2,-2,-1,-1,-2
1511883992500348,0,-1,0,-2,0,-1,0,0
1511883992500348,0,3,2,3,-1,0,0,0
1511883992509196,2,4,-3,-7,0,1,-2,0
1511883992509196,-2,-2,-1,3,0,-1,-1,-1
1511883992522253,-1,-1,-2,-1,0,2,-2,-2
1511883992522253,-1,-3,-2,-1,-2,-4,-1,-2
1511883992531255,0,1,1,-4,-2,-2,0,0
1511883992531255,-1,-1,0,0,-1,0,-2,-1
1511883992553844,-1,1,0,1,0,0,1,0
1511883992553844,1,-2,0,7,1,1,-1,-2
1511883992555348,-1,1,-2,-3,1,0,0,0
1511883992555348,0,-1,0,-1,0,-1,-1,2
1511883992568931,-2,0,0,2,-2,-2,0,0
1511883992568931,-2,-2,-2,-3,-2,1,-1,1
1511883992569934,-2,0,-2,1,-1,-1,0,-2
1511883992569934,1,2,-1,-5,-2,-1,-1,0
1511883992591016,-1,-1,-3,-1,0,0,0,1
1511883992591016,0,-1,-1,-1,2,0,-2,0
1511883992592994,-2,-1,1,1,0,0,1,-1
1511883992592994,-1,0,2,1,-1,0,-1,-1
1511883992614077,0,1,1,7,1,-1,-2,-1
1511883992614077,0,4,-3,-7,-2,-2,0,-1
1511883992615053,-3,-9,-3,-1,-1,0,-2,-1
1511883992615053,0,0,0,0,0,0,0,-1
1511883992628088,1,0,-1,0,-1,0,-2,-1
1511883992628088,-1,1,2,1,-1,-2,-1,0
1511883992630093,-1,2,0,1,-1,-1,-2,1
1511883992630093,-1,-2,-1,-2,-2,-1,-1,1
1511883992651177,-1,-3,-2,0,-1,-1,0,1
1511883992651177,-1,-2,-1,-3,-2,0,-1,-2
1511883992652684,1,3,1,1,0,-1,-1,-1
1511883992652684,-2,-2,-2,-1,1,0,0,0
1511883992673803,-2,0,-1,-4,-1,-1,-1,1
1511883992673803,1,-2,-1,0,-1,-1,0,0
1511883992674807,0,1,-1,2,-2,-1,-1,-3
1511883992674807,-1,-2,-1,0,-2,-1,-1,-1
1511883992687864,-2,0,0,-4,0,-2,1,-1
1511883992687864,-2,-2,-2,-2,-1,-1,-2,1
1511883992694877,1,1,1,3,-1,-2,-2,-1
1511883992694877,-1,0,1,1,-1,1,1,0
1511883992710902,-1,-2,-1,-9,0,0,0,-1
1511883992710902,-3,-2,-2,2,1,0,-1,0
1511883992712907,0,0,0,7,1,0,0,0
1511883992712907,-3,0,-3,-15,-4,-1,-1,0
1511883992733994,-2,-2,1,3,0,0,-1,-1
1511883992733994,0,-2,-1,-1,0,0,-3,0
1511883992734966,1,2,0,4,0,0,0,2
1511883992734966,-3,-3,-10,-4,1,0,-1,-2
1511883992748035,-4,1,11,-3,-3,0,-2,-2
1511883992748035,3,0,-4,-1,0,-1,0,-3
1511883992755082,-2,-13,15,0,-2,0,-2,-2
1511883992755082,3,5,3,7,1,-1,0,0
1511883992770750,0,-2,-5,-4,-2,-3,-1,-1
1511883992770750,0,2,4,1,-2,0,-1,-1
1511883992772734,0,-1,-1,-3,-3,-1,-2,1
1511883992772734,0,-5,-3,-1,-2,-2,0,-1
1511883992793805,-1,-1,-1,3,-2,0,-1,0
1511883992793805,0,1,-1,0,0,1,0,-1
1511883992794803,-3,0,-7,-3,0,-2,1,0
1511883992794803,1,-1,1,9,-1,-2,-1,-3
1511883992807814,-1,0,10,-18,0,-2,-2,1
1511883992807814,0,1,-9,2,1,-1,1,1
1511883992814833,4,19,53,4,2,0,2,1
1511883992814833,-2,-8,-21,2,2,3,2,2
1511883992830899,0,-1,1,-2,-1,-3,-1,-2
1511883992830899,-1,-1,7,0,-1,-1,-2,-1
1511883992832881,0,-1,-16,-3,-2,0,-1,0
1511883992832881,-4,-10,-8,3,0,-1,0,0
1511883992853986,0,5,18,3,-2,-3,-1,-3
1511883992853986,-2,-3,-25,2,0,0,1,0
1511883992855489,-3,0,-22,-11,-4,-2,-2,-2
1511883992855489,-1,1,12,-1,-2,-2,-2,-2
1511883992868050,-1,-6,-29,4,0,1,-1,1
1511883992868050,-1,-2,12,-6,-1,-2,0,0
1511883992875046,-5,-5,-3,-8,-2,-1,0,-9
1511883992875046,-1,1,-12,-4,-1,-2,-6,-4
1511883992891088,0,1,24,0,1,-1,2,8
1511883992891088,5,7,11,8,1,-2,1,9
1511883992893117,1,2,-16,-1,3,3,-1,-17
1511883992893117,3,11,28,1,1,0,4,32
1511883992913174,-3,-11,-40,5,-1,0,0,-7
1511883992913174,-6,-3,9,-1,-2,1,-3,-10
1511883992915152,1,-1,5,1,-27,-1,1,5
1511883992915152,-2,-7,-20,-7,26,1,-7,-17
1511883992928227,3,17,6,8,-9,-3,0,2
1511883992928227,-5,-14,6,-5,2,-1,-2,-2
1511883992934226,2,4,14,2,-13,-4,-2,0
1511883992934226,-3,1,15,4,-8,-2,-1,-6
1511883992951248,0,-2,-7,-6,1,0,-1,-4
1511883992951248,0,-1,-3,4,-2,-2,-3,7
1511883992952753,1,-6,-10,0,9,1,0,8
1511883992952753,-3,5,1,-6,-8,-1,1,-32
1511883992973310,2,-4,-3,3,7,2,-4,27
1511883992973310,-1,2,-3,-1,-5,1,0,-5
1511883992975317,-3,-4,-5,4,11,1,5,4
1511883992975317,4,1,-5,2,-3,3,5,5
1511883992987379,-2,-2,0,-10,-3,-2,-2,-15
1511883992987379,-3,0,5,7,1,-1,-5,-9
1511883992996372,-1,-1,-8,-6,3,-4,-10,-1
1511883992996372,-2,-6,2,2,-6,0,1,-4
1511883993011412,0,-3,0,-3,-1,2,-9,-3
1511883993011412,4,-3,-6,-5,6,8,3,1
1511883993012415,6,1,-4,-1,0,-12,24,34
1511883993012415,0,1,5,9,6,16,-9,-8
1511883993033493,-3,-1,-3,-5,-14,-27,18,8
1511883993033493,0,-2,-7,-5,-1,-7,-16,-9
1511883993035474,-6,1,1,15,27,7,-29,-28
1511883993035474,4,1,4,-2,-75,-16,11,20
1511883993047508,-6,-10,-4,1,56,12,-7,-14
1511883993047508,-3,-4,-6,-2,35,2,1,2
1511883993056536,0,5,2,2,-16,-7,9,-8
1511883993056536,-3,0,-1,-2,-6,10,-26,-5
1511883993070601,3,0,0,6,-8,-22,17,6
1511883993070601,-6,-3,0,-11,-20,-9,5,-7
1511883993072579,3,1,-5,5,9,18,1,9
1511883993072579,-6,1,-4,-4,33,-11,-13,-11
1511883993093635,2,2,3,-1,-33,6,-2,-2
1511883993093635,1,-1,-2,6,30,2,-2,-4
1511883993095641,-5,-5,-5,-12,-7,-8,-9,1
1511883993095641,4,-1,0,6,8,5,21,14
1511883993107673,11,9,11,0,-21,0,3,-16
1511883993107673,-1,2,-7,-5,-16,2,-2,24
1511883993116730,-8,-5,2,2,73,29,6,-7
1511883993116730,7,-8,-12,-12,-38,-11,20,-17
1511883993130733,12,2,5,3,9,-27,-33,22
1511883993130733,-6,-2,6,25,25,-10,-9,-13
1511883993132739,-6,1,-6,-23,-42,-17,-13,-6
1511883993132739,-19,-2,-1,-18,27,44,7,-6
1511883993153847,7,-5,-8,3,-22,5,9,-5
1511883993153847,2,12,6,8,-24,-65,1,6
1511883993155327,11,-21,-22,-4,-9,56,-3,-1
1511883993155327,-12,-2,-1,6,20,10,1,-2
1511883993167364,-17,-10,-11,-34,-15,-9,-13,-2
1511883993167364,-2,7,11,8,15,10,6,-8
1511883993176544,7,10,8,7,-1,-16,10,12
1511883993176544,9,-11,-14,-3,-37,-34,-8,0
1511883993190614,4,25,22,0,46,89,-1,0
1511883993190614,1,-3,3,8,-17,-22,18,16
1511883993197632,-16,3,-1,-23,-5,-10,-4,-16
1511883993197632,12,5,3,16,37,-7,-5,10
1511883993213667,-6,-13,-16,23,-12,-52,1,3
1511883993213667,-5,-7,-6,-44,-33,67,-8,-16
1511883993214671,0,9,52,26,18,14,6,0
1511883993214671,4,27,-32,-23,-17,-45,-6,10
1511883993227680,-18,-48,-25,1,-9,-45,-10,-12
1511883993227680,5,7,26,-1,0,38,5,2
1511883993236706,-8,-14,-69,-4,13,22,0,-9
1511883993236706,2,-2,35,14,7,-11,-4,11
1511883993250769,4,23,13,-10,-19,12,4,-3
1511883993250769,5,-4,-11,7,12,0,1,4
1511883993252751,2,-7,2,15,-17,-28,-1,12
1511883993252751,2,12,4,-3,19,35,8,-1
1511883993273830,6,2,0,-1,0,-23,2,2
1511883993273830,2,-3,-6,-1,-29,-74,-8,3
1511883993274837,-1,57,37,11,-12,45,-2,-3
1511883993274837,-20,-106,-48,-22,11,16,-3,-13
1511883993287868,-7,-4,-8,3,-4,9,2,-8
1511883993287868,6,24,11,10,7,3,1,-1
1511883993295995,0,-16,-30,-20,-23,-78,-8,7
1511883993295995,5,29,53,15,-8,-37,-9,5
1511883993310933,-2,-1,-15,4,19,58,7,-2
1511883993310933,-3,-2,10,-3,-1,18,-5,-7
1511883993316950,6,5,11,3,8,-3,3,-2
1511883993316950,-3,10,7,10,6,25,2,-1
1511883993334088,3,-14,12,18,-3,-55,-4,6
1511883993334088,-8,2,-15,1,-6,76,7,-7
1511883993335018,-2,-18,9,-27,10,25,5,-5
1511883993335018,1,22,17,6,-4,-17,-4,-1
1511883993347028,7,43,21,8,0,-52,-6,7
1511883993347028,-13,-80,-37,-4,-29,-47,-7,1
1511883993356552,7,14,-12,4,-6,-73,-1,6
1511883993356552,0,4,-37,1,-5,66,-6,-7
1511883993370720,0,12,1,-2,40,38,4,-7
1511883993370720,5,5,4,-4,6,-14,-6,1
1511883993377741,-2,-10,-6,-1,2,20,3,-1
1511883993377741,5,20,15,11,-14,-73,-4,9
1511883993393779,6,13,41,-61,15,1,4,3
1511883993393779,-4,-24,-43,-15,31,69,13,-5
1511883993394785,-2,-7,-13,6,-11,-19,-13,-6
1511883993394785,4,10,22,-5,83,-30,-3,5
1511883993407880,-11,-18,-1,-31,-10,48,3,-4
1511883993407880,0,18,22,-36,28,-52,-7,-2
1511883993415945,8,8,31,5,40,-29,0,9
1511883993415945,-1,-12,-12,-6,-6,86,14,-1
1511883993430878,-5,-7,-29,4,-16,-3,-2,-5
1511883993430878,10,21,-9,-37,23,-72,-3,13
1511883993437015,-8,-13,3,22,-24,59,5,-9
1511883993437015,9,21,13,2,12,-9,-1,1
1511883993452496,-7,-24,-11,40,-4,-16,-12,-6
1511883993452496,6,25,6,54,-32,17,13,6
1511883993461491,3,-6,60,-5,2,-21,-9,-1
1511883993461491,-8,-12,-16,-46,-14,-10,0,-5
1511883993476605,15,40,14,-1,52,29,11,7
1511883993476605,-3,-21,-13,-14,4,-5,-4,-1
1511883993477603,-17,-22,-6,48,-12,1,4,-1
1511883993477603,-7,12,15,2,-66,-11,-6,-6
1511883993498768,-3,7,3,11,-8,-7,-6,-7
1511883993498768,9,8,7,-24,-5,9,-3,-3
1511883993500665,-7,-26,-29,9,-7,3,2,-2
1511883993500665,4,-15,-12,-34,0,9,23,5
1511883993512701,3,23,-18,4,-34,1,-4,1
1511883993512701,-5,-10,-4,-18,35,26,1,-7
1511883993520720,-5,-23,-22,-10,-16,-43,-42,9
1511883993520720,11,51,-8,-33,-18,-12,0,5
1511883993535776,-5,-5,18,-24,-1,24,24,-6
1511883993535776,-16,-34,-13,7,-24,-2,-5,-6
1511883993537764,0,6,-10,-11,4,14,4,-7
1511883993537764,3,5,14,23,107,-9,-3,1
1511883993558870,3,19,1,-3,-82,-7,-2,-1
1511883993558870,9,20,16,28,-5,17,9,6
1511883993560374,-11,-20,-22,-10,-4,14,14,3
1511883993560374,2,17,3,9,-41,5,-5,-2
1511883993571929,-7,-56,-26,-11,28,2,8,3
1511883993571929,-7,-11,-6,-2,-7,3,-7,-7
1511883993580953,14,29,5,-21,-24,2,0,3
1511883993580953,-14,-16,0,47,-48,-18,-6,-11
1511883993595970,-3,-21,-8,-2,30,43,-1,0
1511883993595970,4,17,11,-1,-18,-40,-24,3
1511883993603992,4,17,-2,-30,2,-3,10,-2
1511883993603992,-2,-20,-1,16,-52,26,13,3
1511883993619062,-11,-11,-3,15,21,-69,-40,-7
1511883993619062,1,13,6,1,0,2,1,-1
1511883993620033,2,8,-3,-36,15,24,6,-2
1511883993620033,-7,-23,-8,28,-36,-23,0,-4
1511883993632093,1,-2,-1,-5,17,25,7,2
1511883993632093,5,17,12,16,-8,6,9,5
1511883993641090,3,2,3,24,3,-23,-4,-3
1511883993641090,-8,-11,-5,-16,-18,-3,-7,-2
1511883993656184,4,11,0,-1,-9,-7,0,1
1511883993656184,-4,-2,3,3,21,5,3,-2
1511883993658159,-1,2,-7,-1,5,8,3,-4
1511883993658159,5,0,-11,-22,-5,-12,-7,7
1511883993678213,-3,-3,-4,-12,-10,-4,-2,-1
1511883993678213,-5,-6,-3,13,-21,-12,0,-4
1511883993680219,5,9,-1,-69,69,28,8,5
1511883993680219,0,-3,-2,-11,11,-1,-4,0
1511883993692271,-2,-5,0,14,-16,-7,-1,-2
1511883993692271,-3,1,1,33,-52,2,-1,-5
1511883993701274,2,2,0,3,-15,-3,-1,1
1511883993701274,-5,-8,0,11,16,-7,-7,-5
1511883993715313,1,4,-2,-7,4,-1,2,-2
1511883993715313,-1,-4,-1,9,0,5,-2,0
1511883993722331,-3,0,-1,12,-17,-8,-4,-1
1511883993722331,-2,-6,-6,-26,25,-1,-2,0
1511883993738373,-3,1,7,10,-33,-2,-3,-2
1511883993738373,-2,-4,-6,-59,27,7,2,-1
1511883993740378,0,-5,1,0,-6,-7,-1,-1
1511883993740378,0,-2,-7,1,11,4,0,1
1511883993752410,0,2,4,4,1,4,4,4
1511883993752410,-1,0,-3,-9,40,7,4,0
1511883993761437,-1,3,-3,2,-12,-8,-7,-4
1511883993761437,0,1,6,21,15,5,-1,0
1511883993776528,0,-2,-3,0,-2,-2,1,-3
1511883993776528,1,2,-4,-8,16,-6,-3,1
1511883993777518,-3,3,4,22,-4,1,1,-2
1511883993777518,1,-2,-1,3,1,2,-2,1
1511883993798601,1,2,1,-2,12,-3,1,0
1511883993798601,0,0,0,-1,-9,2,1,0
1511883993800606,-2,-2,-1,-2,-12,-4,-2,-3
1511883993800606,0,-4,-13,-60,18,1,0,-1
1511883993812611,-1,0,1,5,-2,-3,-1,0
1511883993812611,-2,3,1,-2,-4,2,-2,-2
1511883993821635,3,0,-7,-5,29,3,1,2
1511883993821635,-2,-1,2,8,-4,-5,-3,-2
1511883993835699,-1,1,-1,5,-5,0,-2,-1
1511883993835699,2,0,-1,-14,9,2,-1,0
1511883993842691,2,-1,1,3,-17,-13,-13,-3
1511883993842691,-1,-3,1,-2,12,0,-1,-3
1511883993860241,-1,1,4,-2,35,3,-4,-3
1511883993860241,-1,0,-3,8,-7,-3,-1,0
1511883993861745,-1,-4,5,37,-79,-10,3,-3
1511883993861745,2,5,1,15,75,8,-3,3
1511883993872543,-2,-3,-2,-16,-25,-4,1,1
1511883993872543,0,0,2,6,1,6,4,0
1511883993881568,1,0,-2,-4,3,-4,-5,-1
1511883993881568,1,-2,-3,-1,-10,0,1,1
1511883993894578,0,-4,-5,15,-9,2,3,1
1511883993894578,-1,-1,0,-6,-6,-3,-3,-2
1511883993903602,-1,0,0,15,-14,0,5,2
1511883993903602,-6,-2,-1,10,-6,-1,-1,-4
1511883993918642,-1,0,-11,-13,7,4,1,4
1511883993918642,-1,-2,-5,-17,-26,-7,-7,-3
1511883993920648,2,1,5,-12,33,3,0,1
1511883993920648,3,-1,-4,23,30,8,5,2
1511883993932701,-1,-1,1,-1,-16,-4,-1,1
1511883993932701,-1,1,1,18,4,1,-2,0
1511883993941727,-1,-1,1,1,21,4,1,0
1511883993941727,-2,0,2,-11,-46,-8,-1,0
1511883993955771,-2,-3,-2,22,18,-1,-5,-4
1511883993955771,1,1,2,-20,-32,-8,-1,-1
1511883993962316,-1,0,5,-9,-12,-1,2,1
1511883993962316,-3,-4,-4,-25,1,-1,-4,-4
1511883993978517,1,0,1,-26,5,1,2,1
1511883993978517,-2,-1,13,62,-7,-1,-1,-1
1511883993980549,1,0,-7,14,22,3,2,0
1511883993980549,2,2,7,28,-9,0,-2,0
1511883994001577,0,1,-4,23,33,3,-1,-1
1511883994001577,-2,-1,3,-31,5,0,0,-1
1511883994002580,-3,-4,-19,-5,21,2,0,-3
1511883994002580,1,0,11,21,3,0,1,0
1511883994015615,-2,0,-10,-21,-31,-5,-1,-2
1511883994015615,-4,0,7,14,-27,-9,-2,-3
1511883994022634,5,5,11,80,62,10,4,6
1511883994022634,1,1,-6,-15,-20,-7,-1,-2
1511883994038703,-2,-14,-2,35,8,8,6,3
1511883994038703,7,14,-4,-10,92,5,1,7
1511883994040681,-2,8,-8,-24,-52,4,-1,-3
1511883994040681,-9,-41,10,20,-11,-11,-5,-2
1511883994061238,10,26,12,5,-4,5,1,4
1511883994061238,-18,-45,-32,-74,-38,-8,-7,-8
1511883994062742,7,31,8,-15,32,8,11,4
1511883994062742,-1,-10,-4,-38,-13,-3,-9,-1
1511883994075778,-5,14,-9,-38,-59,-5,-1,-4
1511883994075778,4,-13,-3,27,33,7,7,7
1511883994081824,-4,-7,-8,-64,-19,-4,-3,-4
1511883994081824,-3,9,-10,24,-12,-1,-3,-4
1511883994098840,-3,-18,10,-5,4,-10,-7,0
1511883994098840,5,20,9,26,-5,5,-2,0
1511883994099842,-4,-13,-10,-14,-6,-4,-3,-3
1511883994099842,3,14,10,9,3,6,8,3
1511883994120899,-3,-7,-2,7,-3,-3,-2,-1
1511883994120899,-1,9,1,0,-8,-3,-1,-3
1511883994122905,-4,-20,2,21,-14,-3,-1,0
1511883994122905,-4,-6,-13,-40,10,3,1,-3
1511883994134935,0,4,-4,-4,25,-3,-3,-1
1511883994134935,-1,2,10,23,-8,-1,1,1
1511883994143960,4,8,17,87,56,5,-1,1
1511883994143960,0,9,-2,32,-11,-2,0,-1
1511883994159028,-4,-8,4,-7,-8,-1,4,-5
1511883994159028,3,0,3,5,-7,-6,-6,4
1511883994160506,0,1,-1,-44,-19,-2,3,1
1511883994160506,-1,2,-3,-12,-2,-6,-8,-2
1511883994181116,-1,-3,4,16,28,2,1,-3
1511883994181116,0,5,0,-6,1,5,6,-2
1511883994183121,-6,-8,-2,7,-25,-7,-6,-2
1511883994183121,0,1,-4,-24,13,5,2,2
1511883994195154,3,10,5,-5,-16,-1,-2,1
1511883994195154,-4,-16,-17,0,0,-3,-2,-3
1511883994210166,-1,1,0,2,-24,-7,-2,-2
1511883994210166,-3,-4,1,3,1,-1,1,0
1511883994218214,0,1,-5,-18,12,0,-3,-1
1511883994218214,0,7,11,32,-1,4,3,-1
1511883994220194,-2,-4,-2,29,-15,-9,-9,-5
1511883994220194,-2,1,-4,-25,17,6,12,-1
1511883994241249,2,5,0,9,-19,-4,-6,2
1511883994241249,-3,-10,-4,-23,-4,-7,-5,-4
1511883994242251,-4,-1,-3,-6,-12,10,19,-1
1511883994242251,3,9,10,6,2,-3,-13,0
1511883994254814,0,-9,-13,-47,-4,-4,1,-1
1511883994254814,-2,4,-14,-49,3,5,4,-3
1511883994263811,-2,-4,2,-11,-12,-7,-7,-3
1511883994263811,1,-1,-2,21,-4,5,10,4
1511883994278356,-1,3,13,59,-9,6,6,-2
1511883994278356,4,7,-10,-61,24,-13,-17,1
1511883994280358,-1,-8,-7,0,9,4,1,0
1511883994280358,-1,5,-6,-8,12,2,1,1
1511883994301542,-2,-7,5,12,-1,-2,-3,-2
1511883994301542,0,-8,-4,14,8,7,13,1
1511883994302418,-1,5,3,0,5,-7,-18,-2
1511883994302418,0,-1,0,4,-5,-4,-1,-1
1511883994314581,0,-2,-7,-2,1,-1,-1,0
1511883994314581,0,4,5,31,-5,5,5,0
1511883994323520,1,-3,-3,-20,9,1,4,0
1511883994323520,-1,-5,-2,33,-26,-4,-5,-1
1511883994338688,-2,-6,-5,-31,7,-3,-1,1
1511883994338688,0,4,4,11,-9,2,3,0
1511883994340519,1,0,-8,-21,3,-3,-4,1
1511883994340519,-1,-2,7,43,-6,7,11,-4
1511883994369146,0,0,-15,-2,71,-5,-24,-5
1511883994369146,3,5,9,30,-10,-7,-5,-2
1511883994370321,-2,1,1,14,-11,-2,-6,0
1511883994370321,0,-3,-4,-25,18,6,9,2
1511883994374370,1,1,4,11,-7,17,24,3
1511883994374370,-12,-19,-2,2,5,-12,-21,-4
1511883994383400,2,6,0,13,9,3,7,1
1511883994383400,-7,-12,-6,26,-44,-7,-8,-4
1511883994398415,0,1,8,-9,-10,-12,-5,0
1511883994398415,1,13,-1,-5,-2,6,0,-2
1511883994400431,-4,-5,11,18,-6,1,6,1
1511883994400431,6,6,-6,19,54,9,2,6
1511883994421474,0,-1,-2,35,-31,-2,4,1
1511883994421474,1,6,-7,-59,-8,4,5,-2
1511883994422455,-3,-8,10,7,15,-12,-18,-4
1511883994422455,1,9,4,-29,-25,-7,-4,-1
1511883994434490,-7,-11,-5,20,-1,-1,-2,-3
1511883994434490,4,7,2,6,34,5,1,4
1511883994443511,2,1,-6,-17,-23,0,2,0
1511883994443511,-3,-2,0,0,-42,-9,-7,-2
1511883994458598,-2,6,1,-9,-19,-2,1,-2
1511883994458598,0,-2,1,7,-2,12,16,3
1511883994460606,1,-6,-9,-7,19,0,-4,1
1511883994460606,0,2,-3,-5,1,-2,-2,-1
1511883994480654,-1,-1,0,-32,-2,-2,-1,2
1511883994480654,-2,-4,-2,28,-3,-2,-2,-2
1511883994482659,1,2,-5,-45,-20,-3,-2,-3
1511883994482659,-2,0,7,14,7,6,8,1
1511883994494694,1,-1,-3,-19,-27,-17,-15,-1
1511883994494694,-4,-3,2,18,0,0,-5,-4
1511883994503726,-2,2,5,-2,15,1,3,-2
1511883994503726,-2,-11,4,-6,-6,-10,-13,-7
1511883994518762,-2,1,-11,-27,19,10,6,-1
1511883994518762,1,-1,2,-26,0,-2,2,0
1511883994520763,0,7,6,42,-2,-2,-3,-4
1511883994520763,-1,2,-14,-31,24,5,4,1
1511883994540814,-2,5,8,-1,-7,-3,-6,-4
1511883994540814,-1,-7,-15,-35,-7,-3,0,1
1511883994542820,-1,-6,0,23,16,9,7,1
1511883994542820,1,11,2,-1,-3,4,7,3
1511883994554857,-1,-3,-5,-10,-7,-5,-7,-1
1511883994554857,-3,2,4,4,-4,1,4,-3
1511883994563881,1,11,3,17,-8,-10,-13,1
1511883994563881,-1,-12,-18,-40,-6,2,3,-1
1511883994578479,-5,-10,1,2,-3,-8,-2,-2
1511883994578479,2,4,1,29,-16,4,3,0
1511883994580484,1,-5,-1,-15,2,-1,1,0
1511883994580484,-1,5,9,37,-14,0,1,-2
1511883994600564,2,-3,3,11,-1,0,0,0
1511883994600564,0,-2,-8,-5,13,1,-2,0
1511883994602543,-4,-3,-10,-40,-31,-3,0,-4
1511883994602543,-1,1,1,-8,-16,-9,-9,-3
1511883994614575,3,0,-1,-13,-18,1,4,1
1511883994614575,-2,-3,0,28,18,0,-3,-4
1511883994623598,-1,-4,-7,-23,-11,-2,0,0
1511883994623598,0,2,4,9,-10,-5,-5,0
1511883994638659,-1,-2,-1,-1,2,2,2,-1
1511883994638659,0,2,1,-13,-10,-7,-4,2
1511883994640667,-2,-9,-2,11,8,4,2,-1
1511883994640667,-1,-8,-8,-24,2,1,0,1
1511883994661247,-3,-4,-3,-2,9,2,-3,-3
1511883994661247,2,4,2,12,-20,0,1,2
1511883994662727,-2,7,-2,8,27,8,11,1
1511883994662727,0,-2,-3,-37,-11,-12,-12,0
1511883994674761,1,2,1,-3,21,9,5,-3
1511883994674761,-3,-3,-1,-20,-22,-11,-8,-1
1511883994683786,-1,-2,7,0,4,1,-1,0
1511883994683786,0,3,1,32,13,-2,1,0
1511883994698824,-2,3,0,2,-6,3,3,2
1511883994698824,-2,-12,3,5,-3,-2,0,-3
1511883994699827,2,3,-5,-4,-1,0,0,-1
1511883994699827,0,7,5,9,-2,-5,-2,-1
1511883994720883,-2,3,-3,21,28,1,0,0
1511883994720883,-3,-1,-13,-70,-9,-5,-5,-4
1511883994722916,-5,-7,-6,-5,-10,6,4,-2
1511883994722916,3,4,10,35,24,4,0,-2
1511883994734951,-1,-6,-7,-22,-14,-4,-1,0
1511883994734951,-2,0,-3,7,6,5,4,1
1511883994743946,0,-4,1,12,-8,0,3,-2
1511883994743946,-2,5,5,-15,13,-4,-5,-2
1511883994757987,4,7,7,29,-12,-1,-3,1
1511883994757987,2,-7,-17,-8,16,-2,-3,1
1511883994765035,0,0,0,-4,-3,0,-1,-2
1511883994765035,-1,-3,0,8,5,6,3,-2
1511883994780600,0,2,0,-3,-6,1,3,0
1511883994780600,-1,1,8,34,-3,-8,-7,-3
1511883994782573,0,3,1,-10,-2,-1,1,1
1511883994782573,-3,-1,-11,-2,12,0,-5,-3
1511883994794632,2,1,3,-12,-9,-19,-13,-4
1511883994794632,0,-2,-3,-4,-16,3,4,2
1511883994803629,-1,-3,3,26,10,4,3,-1
1511883994803629,0,1,-8,-27,-8,1,5,1
1511883994817701,1,-3,5,4,-15,-5,-6,0
1511883994817701,2,7,8,11,-2,1,1,-1
1511883994824685,-1,6,6,8,25,-4,-5,1
1511883994824685,-4,-16,-3,7,-9,3,3,0
1511883994840729,3,8,2,16,8,3,4,2
1511883994840729,-1,-1,7,-5,-9,-2,3,-1
1511883994842733,0,-2,-11,-27,-7,0,0,0
1511883994842733,0,4,7,15,1,-5,-9,-1
1511883994854809,-3,0,-6,-14,9,4,10,0
1511883994854809,-4,-4,6,3,2,-7,-9,-2
1511883994863813,-1,-1,-5,-16,-10,3,7,2
1511883994863813,-3,-3,-8,-22,16,0,0,1
1511883994877883,1,4,-2,-6,-14,-8,-5,-3
1511883994877883,-2,-7,1,22,17,12,7,0
1511883994884900,1,2,1,-20,-1,4,7,0
1511883994884900,-4,-15,-8,-14,-32,-18,-15,-3
1511883994900946,-3,-4,0,-17,-4,-8,-3,-2
1511883994900946,2,4,-2,16,-9,-3,-2,1
1511883994902952,-3,-2,1,0,-47,-11,-3,-5
1511883994902952,0,-6,0,31,47,18,10,1
1511883994914951,1,1,-6,-26,-14,-6,-7,1
1511883994914951,-2,7,-1,-1,-4,0,-2,-2
1511883994923974,-3,-16,-2,5,7,3,3,4
1511883994923974,2,9,9,36,-8,3,4,-2
1511883994938038,-3,-3,2,1,15,5,0,0
1511883994938038,0,6,1,-2,14,-2,0,-4
1511883994945030,2,2,1,22,17,-4,-9,3
1511883994945030,0,-4,-5,-4,-20,-5,-1,-1
1511883994961128,-2,1,2,20,13,9,4,-2
1511883994961128,-1,-8,-3,-7,-9,4,7,2
1511883994963133,-2,0,-1,-17,-6,-16,-15,-6
1511883994963133,-1,-2,3,4,-15,-4,-1,0
1511883994983215,-1,4,-4,10,2,7,3,1
1511883994983215,1,2,-2,-24,-2,6,2,1
1511883994985193,1,0,5,18,18,3,6,-1
1511883994985193,1,7,5,-14,-24,-11,-8,1
1511883994997251,2,-4,3,28,0,5,4,0
1511883994997251,-4,-6,2,8,24,7,1,0
1511883995006248,1,2,-4,-1,-16,-10,-8,-2
1511883995006248,0,1,-8,-16,36,11,6,2
1511883995021316,-4,1,3,3,-34,-20,-15,-5
1511883995021316,2,-7,3,5,-11,-5,-4,0
1511883995022321,-3,2,-5,6,11,17,11,1
1511883995022321,-2,-3,-1,-16,-1,0,2,2
1511883995043374,-1,-5,3,26,-42,-17,-7,-2
1511883995043374,1,6,-3,23,12,7,1,0
1511883995045380,-3,-2,-5,-26,20,-11,-12,-6
1511883995045380,0,-8,-3,-14,-8,7,1,-2
1511883995057933,2,-3,-11,3,38,18,13,4
1511883995057933,0,5,3,-22,-21,-8,-7,-1
1511883995064962,-1,-3,0,3,-5,-4,0,2
1511883995064962,-2,-8,0,8,-8,-7,-4,-3
1511883995081041,-2,2,1,-3,17,7,7,1
1511883995081041,-2,0,6,21,-20,-2,7,-2
1511883995083045,0,0,-19,-32,3,-15,-14,-3
1511883995083045,1,6,6,-11,-6,-2,0,-1
1511883995103100,-1,-2,-1,-5,2,3,0,-1
1511883995103100,0,-1,-6,9,3,4,3,0
1511883995105078,2,3,6,10,1,6,5,2
1511883995105078,-3,-6,-9,-32,-24,-3,4,0
1511883995117132,2,2,-1,-4,-6,11,4,2
1511883995117132,-3,-3,-4,-20,13,-14,-15,-6
1511883995126134,2,-5,2,9,5,7,2,2
1511883995126134,-2,2,-1,13,-9,-3,-4,-4
1511883995141173,-1,0,2,-4,3,8,7,3
1511883995141173,-3,0,-1,1,-1,17,12,-1
1511883995142200,1,1,-2,-4,-6,-22,-12,2
1511883995142200,1,-1,0,-22,-19,0,2,-2
1511883995163795,1,-4,-15,-2,30,5,4,1
1511883995163795,-1,4,-3,-6,-7,-4,-6,-2
1511883995165298,-2,-4,5,-1,-4,11,10,0
1511883995165298,-1,3,4,17,-11,-7,-11,-3
1511883995176865,-2,-3,3,-15,-1,-8,-5,-2
1511883995176865,3,2,-3,16,9,-3,1,0
1511883995185889,-2,-7,-5,-23,-15,7,3,-1
1511883995185889,1,1,0,8,12,1,-2,2
1511883995200929,0,2,6,-10,-13,-6,-1,0
1511883995200929,2,4,6,21,2,-3,-4,0
1511883995202934,-1,3,3,25,-24,-5,-7,-2
1511883995202934,-6,-12,-4,-10,16,-3,-2,-5
1511883995223989,0,1,-3,3,13,3,-1,0
1511883995223989,-2,-9,-4,-2,-8,-5,0,3
1511883995224993,0,5,0,-9,-5,5,2,-5
1511883995224993,3,3,4,10,0,-5,-4,0
1511883995237052,-1,0,4,8,-11,-3,-3,-3
1511883995237052,-2,-3,-3,-8,-3,-4,-2,-1
1511883995246049,1,-3,-1,8,7,5,0,-2
1511883995246049,-3,5,4,33,2,-1,3,2
1511883995261089,-4,-3,-4,-41,-1,8,3,-2
1511883995261089,1,4,2,1,-17,-32,-26,0
1511883995263095,0,3,1,10,2,10,6,-1
1511883995263095,0,-4,-9,-19,32,5,2,2
1511883995283288,-3,0,4,22,-1,-2,-1,-3
1511883995283288,-2,1,-3,-12,6,10,7,0
1511883995285270,-2,-8,-4,-12,-1,4,5,0
1511883995285270,0,7,4,1,-10,-10,-9,0
1511883995297429,-3,-6,-4,0,18,2,0,-3
1511883995297429,-2,-1,-4,-19,0,0,-2,-2
1511883995306327,2,4,2,10,5,-4,-4,2
1511883995306327,-1,-3,1,-7,-1,14,13,1
1511883995321498,0,2,2,-9,-11,-14,-12,-2
1511883995321498,-1,0,0,2,-8,-2,0,-2
1511883995322368,-1,-4,-1,-4,5,-4,-5,-1
1511883995322368,2,5,4,37,5,10,10,4
1511883995343427,1,1,-3,10,-5,-10,-10,-2
1511883995343427,-2,-1,3,0,4,9,9,-1
1511883995345445,1,-2,2,-5,-14,-12,-8,2
1511883995345445,-4,-4,-3,-5,-20,-9,-10,-5
1511883995357471,0,-4,2,13,10,2,4,0
1511883995357471,-1,-8,-2,12,11,10,5,2
1511883995366496,-5,2,3,0,-3,-1,-2,-3
1511883995366496,5,5,-4,-4,-4,-4,1,0
1511883995381071,-3,-11,-7,-3,-1,3,1,0
1511883995381071,0,0,0,-7,4,2,3,-3
1511883995383078,3,6,1,16,11,5,0,3
1511883995383078,0,1,-3,-35,0,1,-1,0
1511883995404208,0,6,5,26,-7,-2,-1,-2
1511883995404208,2,0,-7,-23,-3,7,12,3
1511883995405133,-4,-8,-4,-9,-8,-10,-17,-6
1511883995405133,1,9,10,49,6,1,5,3
1511883995417342,3,2,-1,-9,-5,-1,3,2
1511883995417342,-5,-9,-5,-17,-22,-10,-6,-1
1511883995426188,1,8,2,27,15,8,4,0
1511883995426188,-2,-10,-5,-29,-2,-5,0,0
1511883995441408,-3,2,-2,0,9,-10,-4,2
1511883995441408,2,4,3,2,5,-7,-13,-2
1511883995443261,-2,-5,-3,2,-4,1,4,-1
1511883995443261,0,6,-3,-6,1,3,0,-1
1511883995463793,-2,-3,0,-4,0,3,2,-1
1511883995463793,0,1,4,24,-4,-2,-2,-1
1511883995465796,2,11,2,-8,12,1,7,4
1511883995465796,-9,-15,-8,-20,19,5,-5,-7
1511883995477393,-1,-5,1,1,-6,2,4,1
1511883995477393,-1,5,3,3,-7,-19,-15,0
1511883995486415,1,-2,1,-17,-23,2,4,-2
1511883995486415,-4,-3,-3,2,-5,-1,1,-3
1511883995500642,-3,0,1,-15,-14,0,-3,-3
1511883995500642,2,-2,-5,-17,2,7,6,3
1511883995507470,-5,-2,-5,-6,-10,5,11,1
1511883995507470,-2,-3,-1,8,-1,-13,-17,-4
1511883995523513,-3,-2,-4,2,-5,-6,-9,-2
1511883995523513,0,4,2,2,10,4,-1,-1
1511883995525545,1,3,-2,-3,-7,-3,-2,-1
1511883995525545,1,1,4,12,16,19,14,3
1511883995537551,-1,0,-2,-9,-15,-1,-1,0
1511883995537551,-2,-3,-3,-4,30,-4,-2,-3
1511883995546574,-1,-6,1,8,4,-5,-10,-2
1511883995546574,-3,-6,-8,-40,-12,-3,-1,-3
1511883995561165,2,7,3,7,-5,1,2,4
1511883995561165,-3,-7,-5,-3,8,6,2,-2
1511883995563149,-1,1,5,8,2,4,7,0
1511883995563149,1,5,3,10,-11,-16,-10,0
1511883995583313,4,0,1,0,49,11,7,5
1511883995583313,-6,-3,2,-1,-36,-4,-5,-7
1511883995585292,1,5,-5,-4,4,9,12,2
1511883995585292,-6,-2,2,12,-12,-14,-12,-3
1511883995597350,8,5,-1,3,14,7,1,0
1511883995597350,-1,2,5,26,37,9,11,3
1511883995606358,1,2,2,-2,-14,-8,-6,1
1511883995606358,-6,-22,-13,-3,-7,6,5,-4
1511883995621388,-3,-1,2,-6,-22,-4,-8,-7
1511883995621388,-1,-1,3,19,1,-7,4,6
1511883995622390,-1,4,-3,-8,-13,-4,2,0
1511883995622390,-1,3,2,10,-7,-1,-11,-5
1511883995643447,-3,-6,4,19,-20,1,4,1
1511883995643447,8,3,-1,23,14,8,2,2
1511883995645478,-3,-2,2,20,30,2,-3,0
1511883995645478,5,5,9,-1,-9,4,4,1
1511883995657484,-2,-5,-9,-6,-6,-2,7,4
1511883995657484,0,4,-1,-30,-42,-3,-5,-3
1511883995666508,-5,-5,-5,0,10,-7,-7,1
1511883995666508,0,0,-3,3,10,-5,0,0
1511883995680548,-5,3,9,21,-3,2,-2,-6
1511883995680548,-3,-6,-8,-22,1,-6,-5,-2
1511883995687593,1,-6,-4,-21,-54,-9,1,-1
1511883995687593,4,6,5,13,-8,1,2,3
1511883995703609,-1,0,0,6,-8,-13,-9,-4
1511883995703609,0,-1,-1,29,-6,4,7,5
1511883995705614,-6,-5,-3,-22,3,-3,-8,-8
1511883995705614,-1,-3,-2,5,-29,-2,4,1
1511883995717686,-4,-3,-9,-17,-12,-1,4,-4
1511883995717686,-1,0,5,6,-11,-16,-15,-2
1511883995725667,1,-1,-5,-6,62,17,7,0
1511883995725667,4,3,3,-4,-3,-8,-5,4
1511883995740708,-1,-2,-1,1,12,7,3,2
1511883995740708,0,1,-4,-25,2,-4,-4,-4
1511883995746750,-3,-12,-1,17,-19,-2,1,0
1511883995746750,-2,8,4,9,5,6,-1,-6
1511883995763771,2,-5,-6,-3,1,-1,5,3
1511883995763771,3,8,-1,-18,19,6,2,1
1511883995765275,3,-3,-2,7,15,-5,-5,0
1511883995765275,-4,-6,-8,-15,7,5,4,-2
1511883995777384,6,17,9,4,-3,1,-2,1
1511883995777384,-5,-15,-8,-21,-10,10,6,-1
1511883995786409,0,1,-3,-3,26,-10,-12,-5
1511883995786409,-2,2,6,30,-15,-3,1,-1
1511883995800445,1,-2,-1,-8,-10,-2,-2,-1
1511883995800445,0,2,-2,-19,7,-10,-6,0
1511883995807464,0,1,5,-1,-1,10,4,-2
1511883995807464,2,0,3,-2,6,-6,-3,0
1511883995823507,-2,-3,4,-2,-2,-9,-8,0
1511883995823507,3,3,1,6,3,2,0,0
1511883995825513,0,-6,7,23,0,2,-3,2
1511883995825513,2,-1,-5,-31,6,9,18,5
1511883995837545,-2,1,5,17,-12,-4,-5,-5
1511883995837545,-2,-1,-3,4,5,0,1,0
1511883995846569,4,6,3,0,-15,2,-3,0
1511883995846569,0,0,-4,13,15,-8,-3,5
1511883995860626,-1,-11,-12,-11,-22,-3,-1,2
1511883995860626,1,1,-3,-17,18,7,5,1
1511883995867627,-4,0,0,-10,-17,-7,-3,-3
1511883995867627,5,3,1,7,-5,8,3,0
1511883995883576,-2,0,-5,-7,11,0,-3,-2
1511883995883576,1,-3,5,30,-4,3,8,0
1511883995885582,-2,-2,-2,4,-24,-8,-11,-1
1511883995885582,-3,-7,-8,-28,5,6,5,0
1511883995905609,-1,1,0,3,10,0,-2,-1
1511883995905609,1,2,2,-6,-1,1,4,3
1511883995907615,1,5,3,2,-1,-2,1,0
1511883995907615,-6,-7,6,25,27,1,-3,-2
1511883995920649,0,-1,-4,-28,-16,-5,-4,-3
1511883995920649,0,-1,0,7,5,4,0,-1
1511883995927666,-2,-3,-6,-8,14,1,-2,-1
1511883995927666,2,8,0,-2,14,8,10,0
1511883995943708,-3,-5,-1,13,12,-5,-11,0
1511883995943708,-1,-2,-4,-21,-23,-7,-3,-4
1511883995944711,0,2,0,-4,-18,-2,6,2
1511883995944711,-1,-2,-3,-7,2,2,-9,-4
1511883995966323,-1,-4,4,8,14,8,6,-1
1511883995966323,-5,0,0,17,4,0,0,0
1511883995967802,0,0,-2,7,5,-2,1,1
1511883995967802,2,4,-3,-17,-9,1,0,1
1511883995980880,-1,-2,-6,-6,5,0,1,-2
1511883995980880,-1,-3,2,33,-11,0,-2,-4
1511883995986908,-3,-2,0,-5,-14,-3,0,-1
1511883995986908,0,6,8,28,-13,-9,-8,-1
1511883996003953,0,2,1,-3,-2,1,0,1
1511883996003953,-2,-1,-1,7,11,-14,-9,-3
1511883996004929,-2,-4,-7,-30,-2,2,9,1
1511883996004929,-1,-3,-7,-11,-16,-6,-4,-4
1511883996025986,3,1,1,0,21,6,1,-2
1511883996025986,-4,-4,3,-9,-15,2,0,-3
1511883996027991,1,1,6,21,-9,-2,2,1
1511883996027991,-2,-4,-2,-19,29,6,-1,-2
1511883996040052,0,1,-3,-19,-38,-10,4,5
1511883996040052,-2,-5,-3,-3,5,0,-12,-6
1511883996049047,-2,0,-2,-7,10,1,-1,1
1511883996049047,1,1,-1,2,-6,-4,-9,-3
1511883996063586,-6,-4,0,21,17,-1,2,3
1511883996063586,2,4,-1,-22,-5,3,3,0
1511883996065591,1,-3,-4,-12,3,2,4,1
1511883996065591,-4,-2,-2,3,-2,-1,0,-4
1511883996086147,3,3,-5,-19,3,-3,-7,0
1511883996086147,0,4,0,11,-7,-2,0,1
1511883996088152,-3,-10,-2,7,10,5,-1,-4
1511883996088152,1,-2,-2,-19,-9,5,8,3
1511883996099206,1,1,-3,-3,12,-10,-3,3
1511883996099206,0,-2,-2,10,28,9,2,0
1511883996108206,-1,1,-3,0,-27,-3,-1,-2
1511883996108206,-1,-2,-7,-22,-3,3,6,1
1511883996123247,0,-3,-1,2,3,-3,-7,1
1511883996123247,0,-3,-8,-6,2,0,1,0
1511883996125252,1,3,-2,11,2,2,-2,-2
1511883996125252,-3,-9,0,9,-66,-14,0,1
1511883996146337,0,-2,-7,-28,2,9,0,-7
1511883996146337,-6,-3,1,-4,-17,-3,-2,-3
1511883996147345,0,5,5,8,-2,-3,-4,-4
1511883996147345,-1,-4,2,25,-9,-8,-14,-6
1511883996159845,-3,-1,-2,-3,11,1,3,-2
1511883996159845,1,-1,-2,-7,-15,2,4,1
1511883996168871,-3,1,2,12,-3,-3,-5,-3
1511883996168871,0,4,-1,-14,18,14,8,2
1511883996183440,2,3,5,2,-11,-19,-19,-2
1511883996183440,-4,-17,-5,16,4,1,3,4
1511883996185415,1,3,-5,-3,22,4,0,-1
1511883996185415,-1,-2,-1,3,11,4,1,-1
1511883996206497,-1,-2,-2,1,-14,4,5,-5
1511883996206497,4,8,2,-7,9,10,15,9
1511883996207472,0,-3,4,8,-14,-21,-14,-2
1511883996207472,3,4,3,11,6,-1,3,3
1511883996219533,-5,-9,-4,-28,-1,9,2,-2
1511883996219533,-4,0,-2,11,9,-7,0,-4
1511883996228528,-6,-6,-5,-6,-33,3,1,-4
1511883996228528,3,8,3,11,16,-14,-13,2
1511883996243595,-3,-2,3,27,6,3,7,-1
1511883996243595,3,2,-3,-32,-16,2,-3,-3
1511883996245601,0,2,-9,-14,31,7,6,3
1511883996245601,-1,1,3,16,-10,-3,0,0
1511883996266187,0,-6,-4,-44,3,5,6,4
1511883996266187,2,1,-3,0,2,2,-3,-2
1511883996268268,2,3,0,-2,1,-3,0,2
1511883996268268,-4,-14,-5,-11,0,2,-2,-1
1511883996279344,3,4,0,24,14,4,1,0
1511883996279344,-1,-1,10,28,-13,0,1,-2
1511883996288371,-1,-2,-12,-62,14,3,5,1
1511883996288371,-1,0,1,0,-10,-19,-13,3
1511883996303407,-4,0,1,8,-12,1,1,-3
1511883996303407,-4,-12,-2,-6,-10,2,-3,-2
1511883996305390,0,3,0,7,-10,-3,-2,-1
1511883996305390,0,-3,-4,4,10,4,3,-1
1511883996326448,4,3,5,-21,-12,-5,-4,-1
1511883996326448,1,5,0,-13,-6,-3,-4,2
1511883996327450,-2,-2,6,12,16,7,6,-2
1511883996327450,2,0,-3,7,6,4,-2,0
1511883996339529,-3,0,1,-17,-3,-3,-4,0
1511883996339529,-6,-3,-9,-14,-12,-4,-2,-5
1511883996348537,1,4,3,7,-1,1,7,2
1511883996348537,-3,-18,-8,-8,-28,-2,-7,-3
1511883996364121,3,3,-8,11,33,5,6,5
1511883996364121,-2,-2,3,18,-1,-2,4,1
1511883996365603,-1,8,-7,-45,-9,-9,-13,-5
1511883996365603,-3,2,1,-5,0,5,6,-4
1511883996385690,1,-3,-4,-12,-6,2,4,5
1511883996385690,-1,-2,-7,-15,19,3,-2,-5
1511883996387694,0,-3,2,22,0,-6,-5,1
1511883996387694,2,9,2,-15,-2,9,6,-1
1511883996399726,0,-7,0,17,3,-14,-8,-1
1511883996399726,1,5,0,8,14,-2,-2,0
1511883996408749,-3,-7,1,5,-32,-4,-3,-2
1511883996408749,0,0,-8,-15,24,5,9,3
1511883996423789,-3,1,2,31,3,4,-2,-2
1511883996423789,4,5,4,9,10,2,4,-1
1511883996424792,0,-5,2,14,-1,-2,-3,1
1511883996424792,0,1,3,-2,-6,-3,-3,-2
1511883996445851,-6,-5,-7,3,-10,1,-4,-4
1511883996445851,-1,-9,-13,-35,8,-2,-3,2
1511883996447853,3,-1,6,22,1,4,6,2
1511883996447853,-4,-3,-10,-22,-3,-5,-4,-2
1511883996460087,-1,3,12,18,-10,1,4,-3
1511883996460087,-2,4,5,11,-10,-5,-7,-5
1511883996469108,-3,-11,-3,-14,-3,5,6,1
1511883996469108,0,3,-2,2,-2,-1,-2,-3
1511883996483483,-2,1,5,3,2,3,3,0
1511883996483483,-2,-3,3,13,-14,-4,0,2
1511883996485306,2,3,-2,-5,15,0,-6,0
1511883996485306,2,6,6,13,13,-7,-2,1
1511883996506386,-4,-4,-10,-17,-20,-4,-2,-5
1511883996506386,2,4,6,-3,1,-2,-5,-2
1511883996507368,1,0,-1,12,6,4,4,2
1511883996507368,-1,-1,0,0,-1,6,5,3
1511883996519395,2,0,0,8,-8,4,4,-1
1511883996519395,0,4,-3,-16,-11,-21,-16,-1
1511883996528419,-2,-15,-4,1,0,-1,-4,0
1511883996528419,0,5,1,-12,5,4,1,0
1511883996543459,-2,-7,-4,-8,-4,-1,0,-3
1511883996543459,-2,0,1,9,-10,13,13,1
1511883996545465,0,1,-1,-14,-5,-30,-20,0
1511883996545465,-3,3,3,10,-49,-8,-6,-8
1511883996566522,0,-5,-1,16,12,-1,-3,0
1511883996566522,-1,2,-1,-7,-6,-2,-3,-1
1511883996568026,-4,-2,-2,16,7,11,8,-2
1511883996568026,0,-4,7,30,-9,-9,-13,-3
1511883996579754,0,2,-7,-17,18,2,11,5
1511883996579754,-2,-8,-4,12,-10,0,-1,-3
1511883996588778,1,5,0,-8,-6,3,-1,0
1511883996588778,0,1,0,-3,19,1,5,3
1511883996602816,1,2,-2,-9,-1,0,-5,-6
1511883996602816,0,-1,3,7,16,7,5,2
1511883996609834,-5,-17,-5,14,-17,-4,-2,-2
1511883996609834,-1,1,4,24,-16,-1,1,0
1511883996625908,1,3,-1,-20,-10,0,-3,1
1511883996625908,-1,-4,0,-4,-9,4,11,2
1511883996627883,4,4,0,-21,-18,-14,-14,-6
1511883996627883,-1,-4,-8,-6,17,2,1,1
1511883996639944,0,-1,-1,4,-8,0,2,1
1511883996639944,0,-1,1,-11,3,0,-4,2
1511883996648938,1,5,2,2,1,7,6,2
1511883996648938,-6,-12,-3,-2,19,5,6,-1
1511883996662976,4,7,1,-3,2,-10,-10,-2
1511883996662976,-1,-1,-5,-23,1,1,-4,-4
1511883996670022,-1,3,4,18,9,3,5,0
1511883996670022,0,9,-6,-37,0,-2,-3,-2
1511883996685653,-4,-8,1,12,-10,0,3,0
1511883996685653,-2,-4,-3,10,-5,-5,-3,-1
1511883996687633,-1,3,-3,-14,7,1,2,-1
1511883996687633,2,3,3,-8,-29,-4,-1,-1
1511883996699664,-3,-2,2,5,14,7,-1,-1
1511883996699664,4,4,-3,25,5,-13,-4,5
1511883996708687,-1,3,0,3,9,8,2,0
1511883996708687,-2,-6,-4,-2,3,0,4,0
1511883996722752,0,-4,-1,-10,-4,12,18,1
1511883996722752,-5,-1,0,14,5,-24,-35,-11
1511883996729767,1,1,0,12,30,3,0,-1
1511883996729767,3,1,-6,-2,15,3,2,5
1511883996745786,-1,0,2,3,-2,4,1,-3
1511883996745786,-1,2,3,-3,-4,12,10,2
1511883996747792,-4,-2,2,3,-19,-2,1,-4
1511883996747792,-1,-1,4,1,23,-7,-7,-4
1511883996759825,1,2,5,7,-17,-5,0,3
1511883996759825,1,-1,-4,-23,-40,0,3,0
1511883996768849,1,-1,0,-13,26,4,-2,2
1511883996768849,-1,0,-2,1,-2,2,6,0
1511883996782942,1,11,7,13,-5,-10,-9,-2
1511883996782942,-2,-19,-7,-18,3,0,1,0
1511883996789932,-4,1,-3,-1,-16,-1,1,-1
1511883996789932,-1,3,6,-9,-6,2,1,-3
1511883996805975,0,-1,-3,-1,8,-4,-6,-1
1511883996805975,2,6,2,8,2,5,5,-1
1511883996807980,-1,-8,-5,-7,-3,2,2,-1
1511883996807980,0,-1,-4,-24,-4,0,2,4
1511883996829037,-3,-1,-5,-33,-5,-11,-7,-3
1511883996829037,-1,4,1,7,12,9,5,0
1511883996830040,2,4,1,22,-6,-1,2,1
1511883996830040,-1,1,1,-1,-7,-8,-13,-3
1511883996843075,-6,-14,-9,0,-14,-4,-4,-4
1511883996843075,-3,1,4,-2,6,2,-2,-4
1511883996850094,1,-1,3,15,3,-6,6,4
1511883996850094,0,-2,-4,-3,14,11,-1,0
1511883996866191,1,-1,-1,8,-12,-7,-2,3
1511883996866191,0,5,2,-10,5,-1,-8,-3
1511883996867680,3,4,3,13,-1,9,6,2
1511883996867680,-2,-10,-1,9,-3,5,11,2
1511883996888227,-3,-6,-7,-1,1,-3,-5,-5
1511883996888227,0,5,3,5,-4,-3,0,1
1511883996890233,2,3,-1,-7,10,4,2,0
1511883996890233,1,2,7,42,-14,-2,-3,0
1511883996903267,-3,3,-2,-30,-4,-9,-2,-1
1511883996903267,0,-6,-5,-1,-24,-6,1,-3
1511883996909283,-1,-2,-7,-21,-9,-2,-3,-2
1511883996909283,-1,-1,3,29,10,-2,-2,-4
1511883996926329,3,1,2,-24,11,6,1,0
1511883996926329,-2,7,-6,-2,-13,-3,0,-3
1511883996927331,-2,-4,3,13,-3,-6,-3,2
1511883996927331,-2,-4,-6,-24,13,-3,-3,-4
1511883996948387,5,1,5,21,-4,4,-1,3
1511883996948387,1,1,2,-2,3,-2,7,3
1511883996950393,-3,-2,0,1,1,-8,-12,-5
1511883996950393,-1,8,-1,-3,15,-2,-4,-1
1511883996962453,-2,-4,-1,15,5,3,4,2
1511883996962453,3,3,1,-9,-7,1,1,1
1511883996971451,-3,-3,-1,-5,3,2,-2,-4
1511883996971451,-3,-4,-6,-18,-36,-6,7,1
1511883996986518,0,6,10,39,12,-5,-3,-1
1511883996986518,-3,-5,3,16,1,1,0,-1
1511883996987520,-1,1,-3,-24,-21,-2,-1,-5
1511883996987520,1,1,3,13,9,4,3,1
1511883997008584,-1,-2,-8,-53,7,3,-8,-5
1511883997008584,1,-4,0,1,-35,-8,6,9
1511883997010605,-1,-3,-5,-8,10,-14,-8,-1
1511883997010605,0,1,2,4,-1,6,4,-2
1511883997022614,-4,-6,0,14,2,5,4,-2
1511883997022614,-1,0,-3,-6,21,2,-7,-4
1511883997031638,-3,-3,-6,-11,-1,6,6,-1
1511883997031638,0,1,3,14,1,-5,-6,0
1511883997045688,3,5,-2,-20,-7,1,8,1
1511883997045688,-2,-3,2,-1,17,4,-2,0
1511883997047681,0,-2,0,7,-10,-1,0,-1
1511883997047681,1,5,2,0,-2,-3,-4,0
1511883997068738,0,-1,-4,2,4,-1,-3,0
1511883997068738,1,2,0,9,1,0,2,1
1511883997070243,-1,1,2,2,2,-2,-1,1
1511883997070243,-1,-4,-3,-9,-22,-6,-4,-1
1511883997082804,-1,5,2,3,-4,4,1,-2
1511883997082804,0,-4,-2,-24,1,-1,-4,-2
1511883997089796,1,2,-1,22,-17,-5,-4,-1
1511883997089796,-3,-1,2,-18,19,-13,-4,0
1511883997105870,1,-2,2,27,-2,-7,-6,0
1511883997105870,-2,-4,-3,-6,-5,1,-5,-4
1511883997107844,-1,-1,0,6,3,7,3,1
1511883997107844,1,-3,1,-6,0,5,2,0
1511883997128928,1,6,2,9,11,4,4,0
1511883997128928,-2,-2,0,12,11,-7,-8,-4
1511883997129932,1,0,-4,-19,-10,-1,-1,2
1511883997129932,0,0,0,-5,-11,-1,0,0
1511883997142960,-1,-8,-11,2,31,9,6,3
1511883997142960,0,2,-6,-19,-14,1,0,-2
1511883997149983,-5,-2,-3,-22,0,-3,-5,-3
1511883997149983,2,-1,2,8,-11,0,4,0
1511883997166542,3,2,3,0,-23,-5,-5,0
1511883997166542,-2,-1,0,1,10,-1,1,0
1511883997168052,1,-1,3,16,10,1,0,0
1511883997168052,0,-4,-9,-3,2,0,-2,-3
1511883997188638,-3,-2,-4,-17,0,-2,-2,-2
1511883997188638,2,-2,-3,0,5,2,5,4
1511883997190626,-1,0,-2,-13,-5,-2,-2,-1
1511883997190626,-2,-2,4,24,17,4,-2,-2
1511883997202647,0,-1,-6,-4,-4,1,3,0
1511883997202647,6,6,9,17,10,1,0,1
1511883997209691,-3,2,-2,-9,-17,0,1,-8
1511883997209691,1,-6,-10,-14,-16,-1,2,3
1511883997225708,-3,1,9,5,8,-3,-2,2
1511883997225708,-2,-4,-4,0,0,-2,-1,0
1511883997227713,3,6,9,15,-6,-1,2,1
1511883997227713,-3,-3,-8,-22,-14,-2,-3,-4
1511883997248797,0,-1,6,16,-30,-6,-3,-1
1511883997248797,-1,5,6,6,27,1,-1,-1
1511883997249798,-5,-2,-5,-17,-36,-3,0,-4
1511883997249798,-5,-10,1,6,14,2,-2,-3
1511883997262335,-7,-6,-6,1,32,1,-7,-21
1511883997262335,0,2,7,-6,-55,-15,-5,8
1511883997271332,-5,-3,0,-8,-14,-5,5,6
1511883997271332,11,9,3,-20,-25,-2,-4,-1
1511883997286477,-9,-1,-5,-26,-66,-25,-8,-10
1511883997286477,2,-3,-13,-9,40,22,17,10
1511883997287482,-11,13,-5,7,31,-5,-9,-2
1511883997287482,18,5,27,27,87,19,10,8
1511883997307555,0,-5,-4,37,57,-3,-2,2
1511883997307555,-3,-11,-7,-42,27,-20,-8,-16
1511883997308534,17,12,9,33,24,12,7,13
1511883997308534,-10,-1,16,-1,-26,-14,-9,-5
1511883997330596,-7,-1,0,-7,23,15,2,1
1511883997330596,9,6,-11,12,-18,0,1,2
1511883997331598,-46,-38,13,-56,-24,-13,-10,-26
1511883997331598,60,33,57,51,79,33,24,29
1511883997345635,59,77,-56,-33,-25,-18,0,12
1511883997345635,-72,-43,16,16,28,10,-1,-9
1511883997346638,71,-6,-18,-6,49,-12,-8,-2
1511883997346638,-27,12,-3,8,4,0,-7,-9
1511883997368201,12,3,12,-12,38,21,8,4
1511883997368201,-39,-12,-2,-16,-60,-18,-10,-13
1511883997368699,-30,-15,-29,3,24,6,-8,-10
1511883997368699,-47,-56,-61,-26,-3,-15,-21,-41
1511883997390403,49,0,18,-12,11,8,11,26
1511883997390403,-10,-12,-9,29,-8,-1,4,6
1511883997391404,18,32,28,-3,-34,5,10,23
1511883997391404,24,-29,-31,-6,-39,-11,0,5
1511883997405623,-11,19,22,20,-28,6,0,-7
1511883997405623,-5,31,31,36,33,12,1,-9
1511883997406444,19,-7,-20,-50,-19,18,23,-6
1511883997406444,15,35,9,16,-6,-28,-29,12
1511883997427619,-32,-53,-15,-5,-3,0,1,2
1511883997427619,14,21,4,-11,-11,-5,-4,1
1511883997428502,-2,-8,-12,41,38,58,68,-5
1511883997428502,-9,-4,-8,-40,-26,-41,-57,2
1511883997450661,-21,-42,-10,14,3,12,32,-5
1511883997450661,4,35,5,-13,-13,-39,-52,-9
1511883997451667,-2,-3,-5,24,-5,-13,-13,-5
1511883997451667,-20,-23,-8,-32,-19,30,32,-3
1511883997465682,6,14,10,22,-3,-9,-6,3
1511883997465682,12,8,-3,7,26,40,42,11
1511883997466668,4,22,17,-13,6,0,-8,3
1511883997466668,-5,-3,7,5,3,-10,2,4
1511883997488363,15,12,7,11,-6,-2,-7,2
1511883997488363,21,2,-10,-60,-13,11,22,-4
1511883997488363,-1,-11,2,32,33,-5,-18,14
1511883997488363,-18,-8,-20,-62,-39,-16,-3,-13
1511883997510369,-11,25,18,0,-39,-5,7,-6
1511883997510369,4,-46,-11,30,75,44,30,1
1511883997511357,-4,2,-4,-51,-43,-59,-76,2
1511883997511357,-6,14,-2,29,76,37,48,-3
1511883997525381,-10,-29,-13,-2,-14,-17,-38,4
1511883997525381,22,15,15,40,-14,-30,-21,-2
1511883997526384,-11,-5,-7,11,81,27,16,-4
1511883997526384,5,-5,9,8,-15,37,73,5
1511883997547440,-16,-5,-3,-20,39,-18,-41,0
1511883997547440,11,3,-9,-16,-62,-1,6,4
1511883997548443,-19,-20,11,15,2,-25,-18,-13
1511883997548443,10,6,-1,31,18,8,0,-3
1511883997570531,13,-3,5,2,-44,15,32,15
1511883997570531,3,-8,-4,-7,49,-8,-17,-3
1511883997571534,-5,6,4,30,10,2,7,5
1511883997571534,-9,6,1,-33,-33,-17,-27,-10
1511883997585572,-8,-3,4,10,33,9,0,-8
1511883997585572,7,-4,-7,10,-51,-21,-19,-2
1511883997586574,-1,-2,2,-47,-18,22,36,6
1511883997586574,0,9,3,38,-15,1,-6,9
1511883997607631,1,-6,-1,-34,20,-13,-20,-12
1511883997607631,-6,-7,-7,-4,-5,-16,-16,-10
1511883997608646,5,9,4,-43,13,-14,-19,1
1511883997608646,4,-8,-10,-25,-4,-11,-15,2
1511883997630692,-2,9,11,17,8,19,18,3
1511883997630692,-1,6,-1,12,53,7,7,1
1511883997630692,-1,-25,4,44,-59,-1,7,3
1511883997630692,6,23,-2,15,27,0,-6,-1
1511883997645732,-16,-19,3,40,6,-10,-19,-13
1511883997645732,9,-7,-12,-48,3,26,43,12
1511883997645732,3,9,4,40,-8,-33,-56,2
1511883997645732,-2,0,0,-27,-56,-8,10,-2
1511883997668320,0,-2,-4,23,11,13,13,4
1511883997668320,-10,-3,-7,-13,22,-2,-2,-5
1511883997668822,1,7,-3,8,-58,-14,8,0
1511883997668822,1,-10,-2,10,-12,-1,-6,2
1511883997690409,-9,-1,1,13,-3,-3,7,-6
1511883997690409,3,4,-9,-29,-19,-7,-18,-1
1511883997691427,-1,3,8,-7,7,13,16,-3
1511883997691427,1,-9,-4,-16,18,-1,-9,4
1511883997705442,2,0,1,-27,-31,-4,1,-2
1511883997705442,-7,3,-1,0,36,10,9,1
1511883997706445,-2,2,-11,-62,-7,-9,-10,-6
1511883997706445,-3,-2,5,7,-2,-10,-7,0
1511883997727503,0,2,-1,-16,-19,17,14,3
1511883997727503,5,0,6,11,-8,-37,-51,-5
1511883997728505,-2,-6,-5,-7,16,18,22,2
1511883997728505,0,3,-5,19,15,1,-7,-1
1511883997758585,-3,-3,-10,-73,-5,10,30,-3
1511883997758585,2,-3,7,31,-18,12,-5,9
1511883997759588,-4,7,-3,1,11,-14,-13,-5
1511883997759588,3,-3,5,29,17,11,12,0
1511883997765631,-4,-7,-2,3,0,-18,-20,-6
1511883997765631,0,2,3,31,-9,11,18,2
1511883997766640,1,10,-3,-37,3,8,5,3
1511883997766640,-5,-7,-4,-61,-8,3,-3,-3
1511883997788216,0,7,1,-4,-3,-10,-11,-1
1511883997788216,0,-4,1,2,3,-8,-5,1
1511883997788216,-1,7,5,60,9,0,1,-4
1511883997788216,0,-8,-6,4,-2,0,8,2
1511883997810294,-4,-1,2,0,7,3,-4,-1
1511883997810294,-1,7,5,9,-21,-7,-1,1
1511883997811280,0,-3,-6,3,-18,-1,11,2
1511883997811280,-4,-8,2,16,1,-3,-24,-1
1511883997825315,-1,-3,1,5,5,-22,-13,-4
1511883997825315,1,0,-4,-15,-5,10,14,0
1511883997826317,0,-7,1,0,16,0,3,0
1511883997826317,0,6,2,-4,13,6,13,0
1511883997847400,3,-4,-5,-21,-9,5,6,6
1511883997847400,-2,-1,6,0,-6,7,27,-5
1511883997848407,-1,-9,-6,-5,-4,-14,-40,2
1511883997848407,-1,4,1,-2,-8,-14,-9,-6
1511883997870464,0,3,3,31,10,7,2,2
1511883997870464,-1,-4,0,-15,-10,0,7,1
1511883997871466,-1,-6,-5,2,-12,16,23,-1
1511883997871466,-2,5,7,12,0,-10,-11,-5
1511883997893526,3,5,-5,-19,27,8,3,6
1511883997893526,0,-8,-8,-9,-16,-5,-4,-5
1511883997894529,-1,1,3,4,40,4,1,-3
1511883997894529,0,2,4,-2,-13,4,0,2
1511883997907564,-4,-3,1,25,-6,1,4,-3
1511883997907564,2,1,-3,-26,21,0,-10,0
1511883997908566,1,0,1,6,-4,6,7,0
1511883997908566,-4,-1,-8,-12,4,1,6,-3
1511883997930643,1,1,6,19,30,-3,-9,-2
1511883997930643,-1,-3,-7,-25,-33,-9,-6,-1
1511883997930643,2,1,5,20,86,18,6,2
1511883997930643,-3,-5,-7,-34,43,7,2,2
1511883997944693,-2,-1,-10,-15,-4,4,-12,-12
1511883997944693,1,1,4,26,14,0,4,7
1511883997952705,5,4,2,25,-26,35,17,7
1511883997952705,-1,1,9,31,41,-8,2,3
1511883997968287,-6,-4,-3,-20,35,-2,-16,-14
1511883997968287,0,-4,-7,1,86,2,-7,-4
1511883997968758,-3,-5,-8,-38,-62,-9,2,-1
1511883997968758,5,4,-7,-7,38,15,3,5
1511883997990407,0,-2,0,-9,-33,7,8,7
1511883997990407,1,2,7,13,-10,-27,-6,-3
1511883997991421,0,0,5,5,-7,5,-1,0
1511883997991421,-1,-1,-2,-4,-35,-7,-6,-4
1511883998004444,-1,2,-2,5,4,-6,3,1
1511883998004444,-4,-4,-8,1,-16,6,-6,-3
1511883998012492,-4,0,2,8,0,-20,-3,-3
1511883998012492,-4,-2,2,13,-18,-1,-2,-4
1511883998027530,2,0,0,12,-15,-4,8,4
1511883998027530,-4,-1,-1,3,-18,14,-11,-6
1511883998028515,1,-3,-6,8,-24,-7,-4,-2
1511883998028515,4,0,2,11,-15,-19,2,1
1511883998050594,0,1,-1,-4,6,-6,-1,0
1511883998050594,3,5,-5,-16,-7,13,3,2
1511883998051597,2,-2,4,3,14,6,-4,-4
1511883998051597,-2,3,-15,-10,-16,12,-7,-5
1511883998065108,-9,-9,6,18,-5,-21,2,0
1511883998065108,-7,-1,11,2,-11,-4,3,0
1511883998072629,7,-2,-2,-1,14,-6,-4,-2
1511883998072629,0,0,3,-16,-11,-1,3,2
1511883998087669,-5,3,-20,3,-32,-18,1,-2
1511883998087669,2,5,-2,-16,-5,-17,-13,-4
1511883998088671,-3,0,0,8,-2,2,2,0
1511883998088671,-4,-28,-10,8,41,22,-4,-4
1511883998110757,4,9,4,9,12,-8,-1,3
1511883998110757,-4,-14,-17,-11,-5,5,-4,-4
1511883998110757,5,16,-5,-8,32,-13,4,7
1511883998110757,0,1,10,10,-24,-8,-6,-4
1511883998124795,0,-5,-6,-16,4,18,3,1
1511883998124795,-1,-1,6,24,20,5,6,0
1511883998132814,-4,-3,-4,-27,-15,-5,-9,-6
1511883998132814,1,9,-7,-23,36,2,4,2
1511883998147830,2,21,5,-68,-29,-7,-4,-3
1511883998147830,-6,-54,-6,34,7,-8,1,1
1511883998148832,-5,-11,-9,-17,-5,3,-7,-7
1511883998148832,4,14,17,40,-26,-10,5,6
1511883998170395,0,-3,4,20,-21,-4,-3,-1
1511883998170395,7,16,4,15,11,5,3,2
1511883998171399,-5,-7,1,12,3,-3,3,-1
1511883998171399,1,1,-2,1,1,-7,-4,-1
1511883998184527,3,-1,1,26,-3,20,-2,-2
1511883998184527,2,8,0,-11,4,2,0,-1
1511883998192549,1,-7,4,17,-17,-8,1,3
1511883998192549,-2,-2,-12,-19,-19,-7,-1,-4
1511883998207616,0,8,9,42,17,-11,-4,-1
1511883998207616,-1,-11,-2,-11,-3,-4,4,3
1511883998208591,-1,12,10,19,4,25,1,-1
1511883998208591,-3,-12,-10,-7,-5,-17,-5,-2
1511883998230681,-1,-5,-2,13,-5,19,3,-1
1511883998230681,0,5,1,-6,-21,-1,-5,-1
1511883998230681,5,7,6,19,5,-15,1,3
1511883998230681,0,-2,6,30,33,9,0,2
1511883998244687,2,6,9,5,11,-13,-1,1
1511883998244687,-3,-12,-8,-4,15,8,7,2
1511883998252739,-9,-4,-7,-26,-16,3,-5,-8
1511883998252739,-1,-2,0,0,-2,-1,-3,-4
1511883998268303,2,1,-6,-16,2,5,0,3
1511883998268303,-2,9,6,-6,-12,-17,-2,-1
1511883998268781,-7,-10,-10,-38,1,12,-7,-6
1511883998268781,-1,7,5,-37,-11,-2,0,-2
1511883998290571,-1,-6,0,17,-28,-3,-1,-4
1511883998290571,4,7,1,32,31,0,6,3
1511883998291516,0,-2,2,0,1,2,3,1
1511883998291516,3,10,5,26,-16,-6,2,2
1511883998304578,1,-3,0,-19,8,4,1,-1
1511883998304578,-2,1,0,-11,4,-4,-5,-2
1511883998312618,2,6,-1,14,8,-2,3,4
1511883998312618,-3,0,-2,-13,2,8,-2,-3
1511883998327615,-2,-7,-1,1,8,0,1,-1
1511883998327615,5,10,0,-8,1,-3,2,0
1511883998328614,0,-3,-6,-13,0,5,-1,1
1511883998328614,-1,-4,-3,-8,-23,-5,1,-1
1511883998350674,-4,-10,-12,-22,30,4,-3,0
1511883998350674,-3,8,5,14,4,0,-5,-5
1511883998351692,0,-6,-7,-42,3,-8,-2,0
1511883998351692,-4,-4,2,3,-7,2,-4,-3
1511883998365216,-1,-1,3,-10,20,-3,-6,-4
1511883998365216,0,1,0,-8,-15,5,4,3
1511883998373391,0,-1,4,31,14,-1,3,-1
1511883998373391,0,2,-16,-13,-12,6,8,0
1511883998388476,-6,-12,2,-8,-15,0,0,0
1511883998388476,-1,4,1,-5,-6,-9,-9,-3
1511883998388476,-4,-5,5,24,20,0,-4,-4
1511883998388476,5,7,-2,0,17,6,7,6
1511883998410489,0,-8,-2,15,-23,-4,2,4
1511883998410489,0,1,-2,4,-10,8,-3,-1
1511883998411492,-3,1,-7,-29,-39,-11,0,-5
1511883998411492,-4,-11,-3,4,12,1,-7,-4
1511883998424524,-3,-1,-2,-4,1,-1,-4,-4
1511883998424524,2,4,4,21,19,0,-4,-1
1511883998432741,4,3,-1,18,-11,-2,2,6
1511883998432741,1,5,5,3,-14,-2,1,0
1511883998447761,2,1,-2,8,17,6,1,0
1511883998447761,-1,-3,2,-21,-5,2,-1,-2
1511883998448589,-1,3,0,6,-3,2,3,-1
1511883998448589,-3,-1,0,4,9,-6,-1,-3
1511883998470731,0,-3,-10,-8,2,8,-4,2
1511883998470731,0,2,-2,1,-17,-8,-2,0
1511883998471229,1,-1,2,-6,-4,-9,-4,0
1511883998471229,-3,-7,0,21,-1,5,-1,-1
1511883998485382,0,8,8,23,11,1,3,0
1511883998485382,-4,0,-7,-18,-26,5,4,-2
1511883998493377,-1,2,3,-1,-20,-5,-4,-1
1511883998493377,-1,-10,1,-8,-23,-11,-6,-1
1511883998508420,-2,2,3,-1,-1,-9,-7,-4
1511883998508420,-2,0,2,-3,2,11,9,1
1511883998508420,-1,2,4,-15,-10,-8,-7,-4
1511883998508420,0,13,3,-13,-6,6,10,0
1511883998530477,-2,-15,-3,1,-10,-12,-15,-4
1511883998530477,1,3,-4,-2,20,1,5,1
1511883998531476,2,2,-1,7,-34,5,2,1
1511883998531476,-1,4,5,3,26,-12,-13,-3
1511883998544512,1,6,-1,-15,-1,14,13,-1
1511883998544512,-3,-3,1,3,3,-9,-15,-2
1511883998552531,1,-4,-3,16,5,4,7,1
1511883998552531,1,1,-6,-37,4,2,0,1
1511883998568127,2,3,0,8,-1,0,2,-1
1511883998568127,0,2,5,11,-7,0,-2,-6
1511883998569128,1,0,8,48,40,-5,-2,2
1511883998569128,-6,-4,-3,-6,31,7,3,-1
1511883998590269,-4,2,3,-7,-60,-23,-17,-4
1511883998590269,0,-5,-4,-28,-48,9,20,2
1511883998591245,-3,1,3,-6,2,-9,-13,-2
1511883998591245,0,0,4,33,4,0,-1,0
1511883998604279,-1,-5,-10,-14,10,0,2,-3
1511883998604279,2,3,14,24,32,0,-4,-1
1511883998613330,-6,-20,-14,5,3,6,10,0
1511883998613330,2,0,3,-6,-26,-2,1,3
1511883998627363,1,11,0,-17,8,-4,-3,0
1511883998627363,-4,-12,-6,8,3,2,-2,1
1511883998628356,0,5,1,-16,56,1,4,-1
1511883998628356,-2,-7,-12,-29,-25,-10,-10,-4
1511883998650428,2,8,1,4,0,12,14,2
1511883998650428,-1,-9,-9,-11,-25,-18,-20,-6
1511883998651431,-1,1,-2,-17,52,-1,-1,2
1511883998651431,0,4,5,19,-2,10,4,2
1511883998664993,-5,-11,-7,-14,-8,0,7,-2
1511883998664993,-1,3,0,-2,20,0,-6,-2
1511883998672514,-1,-1,-5,-26,-12,13,10,-2
1511883998672514,1,4,16,24,-14,-10,-8,-3
1511883998687555,0,-6,-9,-7,6,1,3,2
1511883998687555,-1,-1,2,11,27,13,10,1
1511883998688557,1,5,5,9,-40,-20,-17,-3
1511883998688557,1,1,-3,-12,14,1,1,-1
1511883998710646,-3,-8,0,-1,-14,2,-2,1
1511883998710646,0,6,1,-3,4,5,10,3
1511883998711635,-2,0,-1,-1,-3,-19,-17,-5
1511883998711635,-2,-3,-3,10,6,6,2,1
1511883998733715,0,1,4,5,28,11,6,0
1511883998733715,0,3,-2,-14,-20,-15,-14,-1
1511883998734713,0,-2,1,20,-16,9,7,-1
1511883998734713,-1,-2,-1,10,19,1,-2,0
1511883998747741,0,0,-4,-6,-8,11,15,0
1511883998747741,4,2,-6,-13,-46,-15,-11,6
1511883998748718,-5,-4,1,12,32,11,4,-8
1511883998748718,0,-2,0,11,9,0,1,-1
1511883998770811,-1,5,-1,-10,-7,-10,-7,0
1511883998770811,-1,-15,-4,7,-6,1,2,-1
1511883998771329,-2,-5,-8,-48,-23,7,6,2
1511883998771329,1,0,-3,-4,9,6,4,2
1511883998793534,-2,-1,-1,16,27,-9,-9,-2
1511883998793534,0,7,3,12,-7,5,5,-1
1511883998794538,-2,-7,-4,-1,6,1,-2,-1
1511883998794538,1,0,-1,4,20,-5,-4,1
1511883998807544,2,1,6,22,-10,-2,-4,1
1511883998807544,-2,-1,-4,29,32,3,-1,-1
1511883998808556,1,2,5,-6,-2,0,4,1
1511883998808556,-1,-3,1,32,5,14,12,-2
1511883998830633,-2,-7,-5,3,-12,-21,-15,0
1511883998830633,0,-1,0,-19,-4,1,4,1
1511883998830633,1,5,1,-4,-9,5,3,1
1511883998830633,-2,-4,-5,-11,-3,-4,-4,-2
1511883998853694,-2,-1,0,-18,8,7,3,-3
1511883998853694,0,1,3,20,-3,-4,0,-2
1511883998854697,2,4,-2,13,-6,-3,-1,1
1511883998854697,-1,-1,1,-21,-24,-15,-12,0
1511883998868257,-1,-1,-3,-1,1,6,3,-2
1511883998868257,-2,0,-1,-16,-76,-5,1,0
1511883998868733,1,4,-2,-7,-11,-6,-2,-2
1511883998868733,-4,-2,1,-12,12,-8,-2,-3
1511883998890380,0,-2,0,23,18,4,-2,-1
1511883998890380,-1,-1,2,2,21,4,0,0
1511883998891405,-1,-3,-2,-9,-38,-1,1,-1
1511883998891405,-2,-2,-6,-19,-51,1,1,-1
1511883998913469,-3,1,7,4,-36,-2,9,-2
1511883998913469,-1,3,-3,-5,33,-17,-14,0
1511883998914443,-3,-6,-2,13,-11,-6,-6,-2
1511883998914443,2,2,0,-5,3,-4,-4,-3
1511883998927504,1,4,1,-10,15,5,0,0
1511883998927504,-3,-6,-3,-12,16,9,9,-4
1511883998928482,1,3,1,-4,24,4,0,-2
1511883998928482,2,5,5,36,7,-5,-7,4
1511883998950565,-2,-4,-5,2,-4,-8,-7,-5
1511883998950565,1,2,-7,-34,-1,5,2,-1
1511883998951568,-6,0,-1,-12,14,-2,-6,-3
1511883998951568,2,-2,6,18,-20,4,5,-1
1511883998973553,0,-2,-7,-17,17,-3,0,1
1511883998973553,-3,1,0,-16,4,2,-1,-3
1511883998974557,-3,-6,0,10,-8,11,12,3
1511883998974557,1,1,-1,-9,-28,-4,-7,1
1511883998987626,-1,4,0,-8,1,0,-2,-1
1511883998987626,-2,-14,-5,-9,-1,-9,-6,0
1511883998988594,2,-1,-2,16,12,3,0,3
1511883998988594,-2,0,0,-8,17,11,10,0
1511883999010678,0,-4,-5,-1,-32,-9,-6,2
1511883999010678,-1,6,3,12,28,5,1,-2
1511883999010678,-3,-1,2,16,3,8,7,0
1511883999010678,-4,-4,-3,2,25,-9,-12,-5
1511883999032734,5,-1,0,-3,-4,6,8,6
1511883999032734,1,8,0,2,-44,5,11,1
1511883999033714,-2,-7,5,17,-1,-25,-18,0
1511883999033714,-4,-3,-11,-30,7,10,5,-2
1511883999047774,-2,5,6,-8,-29,-20,-9,-4
1511883999047774,4,2,-1,-5,-6,-5,-5,0
1511883999048753,-2,2,-3,3,23,7,2,-2
1511883999048753,1,3,2,-15,-16,-3,1,1
1511883999070363,-2,-10,3,7,20,15,8,-4
1511883999070363,0,-2,0,12,12,-12,-11,2
1511883999071363,2,3,-3,-14,-50,-6,-2,-1
1511883999071363,-3,-6,-6,1,25,11,11,-3
1511883999092948,0,2,-4,-23,19,-2,-9,1
1511883999092948,0,0,2,13,-18,-6,-8,-1
1511883999093954,-3,-10,-4,19,32,2,-4,-3
1511883999093954,2,0,-2,34,2,2,5,3
1511883999107962,4,3,2,5,-34,-2,-1,2
1511883999107962,-2,-2,0,12,-4,5,5,-1
1511883999108988,0,4,4,-8,18,-7,-12,-3
1511883999108988,0,-1,-6,-35,-17,3,8,0
1511883999130048,0,-3,-4,10,31,2,-1,0
1511883999130048,-1,2,-1,-3,17,3,2,0
1511883999131023,2,-3,-3,-27,-13,-3,0,-1
1511883999131023,2,4,9,14,-2,-1,-1,0
1511883999153081,-5,-6,-5,-3,-27,-6,-4,-2
1511883999153081,2,8,2,-14,1,-3,-4,-2
1511883999154084,0,-8,-3,4,-2,7,7,3
1511883999154084,-5,-14,-6,2,-26,-6,-2,-4
1511883999168167,-1,0,0,-28,-1,-9,-8,-2
1511883999168167,-1,-1,2,9,-7,15,18,1
1511883999169142,0,1,-1,-6,7,-23,-23,-4
1511883999169142,-3,-3,-8,-22,-13,-26,-20,-4
1511883999190754,-1,2,7,70,31,17,10,-1
1511883999190754,-2,-2,4,-20,0,3,1,1
1511883999190754,-2,4,-1,-20,18,9,13,1
1511883999190754,-2,-2,-2,-12,-6,-6,-9,-5
1511883999212786,3,2,4,-5,38,5,1,3
1511883999212786,0,1,3,12,10,-1,-2,-1
1511883999213789,0,-1,4,41,-3,5,7,3
1511883999213789,-6,-3,-4,6,-16,-5,-5,-5
1511883999227827,0,0,-5,-28,-5,2,2,1
1511883999227827,-1,-8,-8,-13,6,-8,-8,-1
1511883999228859,0,0,-2,1,8,5,0,-2
1511883999228859,2,5,4,25,-35,8,10,1
1511883999249885,1,1,2,0,-8,-2,1,0
1511883999249885,-2,-3,-9,-23,-11,-12,-14,0
1511883999250887,4,9,3,14,-23,22,15,5
1511883999250887,-4,-10,-6,-18,22,-24,-15,-3
1511883999273277,1,1,4,21,4,9,4,2
1511883999273277,-3,-3,-14,-23,17,3,-2,-1
1511883999274237,2,1,2,1,-1,6,5,-1
1511883999274237,-1,3,3,-8,-23,-3,-2,-1
1511883999288314,-2,5,-1,12,-9,-4,-2,-3
1511883999288314,-6,-21,0,19,2,3,0,-2
1511883999289271,2,10,-5,-52,-1,-6,-1,1
1511883999289271,3,5,1,2,1,8,5,0
1511883999310252,-7,-14,0,15,-17,-11,-7,-4
1511883999310252,8,12,6,77,19,20,19,4
1511883999318317,-1,-2,1,11,36,-12,-12,1
1511883999318317,3,6,10,17,7,2,-3,4
1511883999333355,4,2,-11,21,47,7,4,3
1511883999333355,-3,0,6,17,-41,-12,0,-1
1511883999333355,-2,-5,-2,6,-11,5,6,0
1511883999333355,2,4,4,19,17,-9,-3,0
1511883999356415,-1,0,-2,15,3,11,3,-1
1511883999356415,-1,1,-1,11,-18,-6,-3,1
1511883999356923,-4,-4,-5,-15,-27,-4,-3,-2
1511883999356923,-3,-4,-7,-24,24,7,8,2
1511883999370479,0,-3,0,-37,-23,-3,-3,-3
1511883999370479,1,1,3,-24,11,-8,-7,4
1511883999371459,2,5,7,-6,4,6,4,0
1511883999371459,1,-1,0,1,-25,0,4,0
1511883999392590,-13,-15,-11,-36,17,-3,-6,-7
1511883999392590,6,7,0,-16,4,-1,-1,-2
1511883999393556,1,2,4,26,-14,-13,-5,2
1511883999393556,-6,2,0,5,-14,3,1,-1
1511883999407636,10,13,1,-20,3,-9,-3,-1
1511883999407636,6,-9,-14,-38,-27,7,7,4
1511883999422675,-23,-6,-9,-7,5,-9,-5,-9
1511883999422675,21,-16,1,22,15,11,4,6
1511883999430657,-2,9,7,-2,-20,0,1,6
1511883999430657,-3,6,2,-8,19,2,2,0
1511883999431681,6,-4,5,17,-12,1,4,3
1511883999431681,-10,6,-2,-34,4,0,3,-5
1511883999452735,-6,-7,-4,-6,-86,-16,-8,-2
1511883999452735,4,0,-3,-1,10,-10,-10,-4
1511883999453714,-7,-5,-7,-11,-4,-7,-9,-3
1511883999453714,-4,1,2,3,21,9,0,-3
1511883999467759,6,-2,-1,-9,24,7,6,1
1511883999467759,-6,-1,0,28,-29,3,2,-5
1511883999475344,6,6,-5,-41,-8,-2,1,2
1511883999475344,1,-7,0,4,-14,-2,2,-1
1511883999490505,2,-2,2,18,16,5,0,-1
1511883999490505,-9,1,-1,-1,19,-2,-2,-1
1511883999491422,0,-5,2,29,27,-7,-12,-4
1511883999491422,4,6,-4,-3,12,5,3,3
1511883999512440,-5,-5,7,23,6,-2,-1,-3
1511883999512440,-3,2,13,17,6,4,1,-5
1511883999513442,7,7,5,7,0,4,7,2
1511883999513442,-6,-17,-13,-9,15,-4,-5,1
1511883999527479,1,3,-5,-15,18,6,3,1
1511883999527479,-1,-1,3,4,-12,-3,-4,-3
1511883999535499,4,3,0,-5,9,2,2,2
1511883999535499,-1,6,1,5,9,16,9,-2
1511883999550541,-1,-7,0,-6,-15,-17,-14,3
1511883999550541,-1,-2,-6,-6,6,4,2,-3
1511883999551544,-7,-8,-2,14,23,5,0,-5
1511883999551544,2,7,5,4,-11,-1,-4,-1
1511883999572602,2,5,4,9,3,12,8,0
1511883999572602,-3,-5,-9,-30,5,-7,0,3
1511883999573610,2,-4,-4,-33,-7,1,2,1
1511883999573610,0,-1,5,11,4,-3,-3,0
1511883999587645,-2,3,-6,-13,28,-4,-6,-5
1511883999587645,1,-4,0,-2,53,5,-1,-1
1511883999595668,-1,-9,0,6,-40,1,1,-6
1511883999595668,-1,3,1,6,-14,-10,-6,0
1511883999610740,0,1,-2,-8,10,5,-4,-1
1511883999610740,-3,2,-2,8,1,0,7,2
1511883999610740,-1,-2,-10,-46,-18,0,-5,-2
1511883999610740,3,4,4,0,9,8,12,5
1511883999632793,-3,-3,7,33,-15,-24,-15,-6
1511883999632793,-1,8,4,38,2,4,-1,-1
1511883999633769,0,-2,-3,-3,-12,4,5,0
1511883999633769,-4,-11,-1,11,-2,-6,-9,-3
1511883999655854,0,2,-5,5,-6,-2,4,1
1511883999655854,1,-4,-6,-32,-8,10,9,3
1511883999656830,3,10,11,31,-6,-16,-6,4
1511883999656830,-2,6,3,-6,-11,3,4,0
1511883999670392,-4,-5,0,37,-8,-17,-14,-2
1511883999670392,-1,1,0,-33,-8,-4,-9,-3
1511883999671394,-3,-4,-3,-3,12,9,1,-3
1511883999671394,0,0,2,66,32,4,7,1
1511883999692976,1,-2,-10,-78,-25,6,11,1
1511883999692976,1,-1,20,61,-24,2,4,-2
1511883999693980,3,4,6,60,17,0,-6,-1
1511883999693980,-13,-23,-47,-109,-14,-25,-23,-12
1511883999716041,6,14,15,68,15,26,17,4
1511883999716041,-12,-19,-24,-89,-30,-13,-14,-13
1511883999717018,5,10,11,83,15,-5,3,10
1511883999717018,-3,-5,-12,-80,-18,-6,-6,-5
1511883999730076,0,4,10,38,10,6,4,-1
1511883999730076,1,-4,4,62,4,12,15,6
1511883999731055,-1,1,-7,-63,-12,-5,-7,-4
1511883999731055,4,10,-6,23,9,19,16,2
1511883999753114,-7,-20,-15,-55,-26,-31,-21,0
1511883999753114,4,7,10,3,11,6,5,0
1511883999754140,-2,-10,-32,-9,0,-5,0,1
1511883999754140,-2,16,46,20,-19,0,-4,-7
1511883999776240,2,-13,-8,-25,14,23,15,2
1511883999776240,3,8,9,12,-17,-16,-15,5
1511883999777212,-4,-6,1,-4,1,-3,2,2
1511883999777212,2,-3,-13,-27,-12,7,3,-1
1511883999790246,-1,7,4,18,0,-1,-1,-3
1511883999790246,-4,-6,-19,-44,2,-2,5,-2
1511883999791249,2,9,18,-2,-9,0,-4,-3
1511883999791249,-2,-11,-3,24,-9,5,1,-3
1511883999812305,0,0,-4,-51,-22,-23,-9,1
1511883999812305,1,1,-16,-9,-3,-2,-2,0
1511883999813308,0,9,13,29,6,3,-3,-4
1511883999813308,-9,-41,-4,15,2,8,12,-1
1511883999836371,-1,6,-8,7,12,-7,-14,-3
1511883999836371,1,0,-1,11,-18,-9,-9,-5
1511883999836371,-3,-3,7,10,-23,-9,-8,-4
1511883999836371,0,11,4,32,9,-3,-6,2
1511883999850434,1,11,2,-10,14,8,8,-2
1511883999850434,-6,-28,8,-3,23,9,12,2
1511883999851436,0,3,2,12,20,-2,-15,-2
1511883999851436,4,12,-4,-5,10,-5,0,3
1511883999873021,-3,-3,-2,-35,-28,-5,-5,-7
1511883999873021,0,11,-3,-9,-14,-13,-7,-3
1511883999873021,-2,-12,-3,6,23,11,12,3
1511883999873021,2,7,7,33,31,3,-3,0
1511883999896354,1,0,6,-1,11,6,5,0
1511883999896354,-1,-2,-1,15,-12,-1,-5,-2
1511883999896354,-2,-4,-12,-58,-22,-9,-7,-2
1511883999896354,3,5,5,1,-6,-14,-9,1
1511883999910364,0,-1,-1,6,-2,14,15,1
1511883999910364,5,1,-2,31,31,9,0,4
1511883999911367,0,2,8,1,-45,-4,6,-1
1511883999911367,-1,0,3,11,-14,-9,-9,-4
1511883999932452,-3,-8,-4,15,-1,3,7,1
1511883999932452,0,3,-5,-21,-40,-9,-8,-6
1511883999933427,0,-4,-9,-6,-5,3,11,4
1511883999933427,-1,-2,1,1,13,-1,-8,-4
1511883999956488,1,0,2,10,-6,0,8,4
1511883999956488,-1,8,4,-5,21,1,-7,-1
1511883999956488,-5,-7,-5,-14,-30,1,-1,-3
1511883999956488,2,2,-1,7,-2,4,4,4
1511883999970555,-3,0,-1,-2,-1,-5,-2,-1
1511883999970555,0,-13,0,12,24,4,-6,-3
1511883999971558,1,-1,-9,-24,29,-4,7,2
1511883999971558,2,5,8,36,41,6,3,4
1511883999992616,-4,-3,-6,-19,-11,-9,-14,-7
1511883999992616,6,9,-6,-41,6,9,13,7
1511883999993618,0,-7,6,35,62,7,-8,-6
1511883999993618,2,9,3,9,-7,-9,3,6
1511884000015676,0,2,4,15,13,-6,-3,0
1511884000015676,-3,0,-1,1,-9,-21,-10,0
1511884000016678,-3,0,-2,14,-9,5,-2,-4
1511884000016678,1,4,-12,-69,-11,5,-3,-3
1511884000030717,1,-6,-7,14,-13,3,1,3
1511884000030717,-1,-4,1,0,38,15,14,5
1511884000030717,-2,-10,-8,-5,-1,5,10,0
1511884000030717,-2,2,6,18,-5,5,3,-5
1511884000052776,3,7,3,22,2,-18,-6,12
1511884000052776,-1,-1,-9,-9,-20,-4,-6,-7
1511884000053778,-1,-2,-6,-35,-3,4,-1,0
1511884000053778,-4,-1,-2,-11,-12,-4,-6,-5
1511884000076057,-1,-13,0,-3,9,8,6,-2
1511884000076057,0,1,9,30,27,9,11,6
1511884000077059,-1,2,3,-15,-3,-19,-19,-2
1511884000077059,-4,-6,-11,-25,3,6,1,-3
1511884000090099,2,6,-1,6,11,17,9,0
1511884000090099,1,2,6,22,8,-14,-11,-3
1511884000091072,-3,-5,-6,-33,-46,-2,-3,-3
1511884000091072,1,2,0,11,13,-5,-1,5
1511884000113131,-2,0,8,16,6,0,-5,-4
1511884000113131,1,7,8,17,-7,6,2,-2
1511884000113131,-5,-19,-14,0,-30,-7,-2,-1
1511884000113131,-1,-1,6,25,20,0,-5,-2
1511884000136222,-1,-4,1,10,-11,-1,8,3
1511884000136222,1,9,-2,-5,-15,-4,-5,-3
1511884000137222,5,9,11,12,-18,-20,-18,1
1511884000137222,-3,-6,-7,-6,-10,0,1,-3
1511884000150229,-5,-9,-6,-11,19,7,-1,-5
1511884000150229,-1,0,1,-11,-16,5,8,2
1511884000151232,2,6,5,9,-13,2,0,1
1511884000151232,1,-2,-7,5,-5,-5,-3,1
1511884000173292,0,8,6,10,0,-1,-3,-5
1511884000173292,0,-9,0,-8,8,-5,0,-1
1511884000173292,-1,6,1,-3,-8,11,10,2
1511884000173292,-4,-3,5,8,-7,-4,-3,-4
1511884000196356,2,4,-1,12,25,1,-7,-1
1511884000196356,-2,-1,-1,6,-12,10,8,-1
1511884000196356,-5,-4,-9,4,22,-12,0,-1
1511884000196356,-1,-3,-4,-6,-23,-3,1,3
1511884000210393,-2,3,2,13,-5,1,-4,-4
1511884000210393,2,5,3,10,6,0,-3,-1
1511884000211396,0,3,0,-19,28,8,6,-3
1511884000211396,-2,-10,-8,-4,-4,1,0,-2
1511884000232479,-2,-2,0,-1,-27,-6,13,5
1511884000232479,-2,-6,-8,-11,-6,-2,-5,-2
1511884000233454,0,3,2,30,-11,3,1,-2
1511884000233454,1,3,4,-15,16,-1,2,3
1511884000255543,0,1,-3,-17,-3,0,-5,-3
1511884000255543,-1,-2,-6,-2,0,6,5,3
1511884000256547,-4,1,3,21,15,-6,-9,-5
1511884000256547,-1,-1,-8,-7,-13,-2,-1,-2
1511884000270054,-1,-1,-4,-10,0,3,3,0
1511884000270054,1,9,4,-12,-15,-31,-22,-2
1511884000278281,-6,-19,-7,-12,3,7,7,2
1511884000278281,1,3,2,1,-11,5,2,0
1511884000293302,-1,-5,-8,-14,11,0,-8,-2
1511884000293302,-2,-1,-3,9,-19,-5,0,-1
1511884000293302,1,6,4,9,-22,-2,2,-3
1511884000293302,-1,1,1,1,-3,-7,-2,4
1511884000316360,0,-13,0,19,0,2,5,0
1511884000316360,0,3,-2,-3,3,10,4,-4
1511884000317363,-2,-1,-4,-24,9,4,2,-4
1511884000317363,2,1,2,10,3,-13,-6,1
1511884000329440,-3,4,3,3,1,1,-1,-2
1511884000329440,0,-5,-1,-15,-11,-10,-9,-3
1511884000338419,-1,0,-2,12,11,7,2,2
1511884000338419,0,3,4,-19,-13,-1,-3,0
1511884000352461,0,3,1,1,5,3,5,1
1511884000352461,-2,-5,3,-4,14,1,4,0
1511884000353464,1,3,3,12,3,-3,-3,-1
1511884000353464,2,2,5,7,8,-1,0,-1
1511884000376211,-4,-5,-10,-33,-17,-2,-6,-1
1511884000376211,-1,-3,-1,5,11,-6,-1,0
1511884000377191,1,4,4,0,11,-3,-7,-4
1511884000377191,-3,-7,-3,14,-11,0,3,1
1511884000390242,2,4,2,12,-4,-6,-8,-1
1511884000390242,-3,-2,1,5,19,11,7,-2
1511884000398248,3,0,-3,-7,-7,-5,-5,3
1511884000398248,-1,-8,2,3,-9,10,9,1
1511884000413288,0,6,7,5,-13,-15,-12,-1
1511884000413288,-2,-4,-1,4,10,3,4,-1
1511884000413288,2,7,0,-6,1,-4,4,2
1511884000413288,0,-1,2,21,-2,1,-4,-3
1511884000436346,0,-4,-9,-12,13,11,11,5
1511884000436346,-1,0,0,-1,-9,-2,-5,2
1511884000437388,0,-3,-1,1,4,8,7,1
1511884000437388,1,5,-5,-23,7,-6,-5,1
1511884000449580,0,2,1,-27,13,6,5,-4
1511884000449580,-5,-7,-7,-1,-2,10,7,-3
1511884000458064,-2,-7,-9,-23,-7,-27,-18,1
1511884000458064,-1,0,0,-5,21,5,1,0
1511884000473103,3,5,2,10,16,5,2,2
1511884000473103,-2,-2,0,-8,11,9,0,-3
1511884000474188,2,0,0,13,-14,-1,1,1
1511884000474188,-4,-1,-1,-25,-6,2,4,-2
1511884000496245,-1,-1,0,-1,4,-14,-12,-2
1511884000496245,4,6,7,15,-4,4,-2,1
1511884000497248,-1,-2,4,18,24,10,7,1
1511884000497248,1,2,-3,-3,-13,-1,-5,-2
1511884000509279,-3,0,1,6,-15,-3,2,-2
1511884000509279,-2,-16,-14,-14,5,-7,-5,-3
1511884000518505,-1,8,4,10,7,5,2,1
1511884000518505,-1,-3,-4,-8,-12,-1,2,0
1511884000532337,-2,-4,3,-11,-7,-3,-3,-4
1511884000532337,0,5,5,7,-3,-6,-3,1
1511884000533340,1,4,-4,-16,-8,1,2,-2
1511884000533340,-4,-11,1,13,11,3,2,1
1511884000556401,-2,2,-2,-8,-5,4,3,1
1511884000556401,0,-3,0,-15,-18,-23,-14,1
1511884000556401,0,-3,-1,18,10,7,0,-1
1511884000556401,-1,1,-2,-31,-4,1,4,-2
1511884000569940,3,1,-1,7,-27,-5,-12,-5
1511884000569940,-2,-3,-1,-1,6,-8,-2,1
1511884000577991,-1,-2,-5,-7,4,-5,-3,-2
1511884000577991,0,4,-2,-6,-14,3,5,-2
1511884000601080,0,-4,-5,-17,8,7,1,-1
1511884000601080,0,5,-1,6,-7,0,-3,0
1511884000602056,0,11,8,17,34,9,6,0
1511884000602056,2,-15,-2,16,-23,-20,-11,1
1511884000616092,-7,-9,-6,23,-16,1,0,-4
1511884000616092,-2,5,-2,-20,6,0,-3,-2
1511884000617094,2,1,-2,-4,1,0,4,1
1511884000617094,2,5,4,15,10,9,8,1
1511884000638179,-1,-1,-2,-29,11,-6,-3,1
1511884000638179,-1,-7,-6,9,7,0,-4,-1
1511884000639154,-2,-2,4,7,-22,-2,-5,-4
1511884000639154,1,5,1,4,19,3,-2,-1
1511884000653191,1,-1,-1,10,6,-5,1,3
1511884000653191,0,2,3,13,6,-1,-1,-2
1511884000653191,-1,-6,-1,-12,0,3,0,3
1511884000653191,-2,-1,2,12,-15,-7,-6,-2
1511884000675786,0,2,-4,7,6,4,6,2
1511884000675786,1,1,-2,-4,10,8,4,-1
1511884000676789,-3,7,2,-18,1,-5,-4,-3
1511884000676789,-1,-11,-2,3,11,5,4,2
1511884000697867,1,6,-2,-4,2,-5,-3,-1
1511884000697867,2,2,0,13,-2,0,3,2
1511884000698853,0,-5,0,-11,-8,-2,-3,0
1511884000698853,-4,7,3,-5,-6,-5,-1,0
1511884000712908,0,-4,2,11,13,0,0,-2
1511884000712908,0,1,-2,-4,-10,3,4,2
1511884000713910,1,-7,-1,-7,6,8,5,1
1511884000713910,-1,7,5,14,22,-4,-13,-4
1511884000735953,0,-4,0,9,-7,-4,0,1
1511884000735953,-2,-1,-4,-17,3,2,3,0
1511884000736949,-2,-2,4,11,-15,-5,0,0
1511884000736949,1,-2,-5,-21,4,6,1,0
1511884000758511,-5,-4,-1,16,-4,1,2,-3
1511884000758511,0,4,-1,-6,15,0,-2,0
1511884000759514,0,-5,1,7,0,-3,-4,0
1511884000759514,-4,-1,-6,-3,-25,-13,-9,-3
1511884000773048,2,11,10,-2,4,-1,0,1
1511884000773048,-1,-17,-6,6,-7,6,4,-1
1511884000773550,-2,-5,-3,9,-20,-1,2,1
1511884000773550,4,3,0,7,6,-1,2,1
1511884000796112,-3,-6,-2,2,10,0,-3,-4
1511884000796112,1,2,6,5,3,-1,-3,1
1511884000797114,0,0,-4,-18,-17,-7,-1,3
1511884000797114,1,6,1,3,-4,6,11,6
1511884000818200,-3,-9,1,-5,13,9,4,1
1511884000818200,1,7,-1,-4,-6,-5,-2,1
1511884000819174,-3,-2,-2,2,9,-1,-4,-3
1511884000819174,-2,0,0,-8,4,-1,-3,-3
1511884000833237,2,3,2,-4,-15,-2,-3,-2
1511884000833237,-1,-2,0,1,-11,-2,5,1
1511884000833237,-3,-4,-8,0,42,4,-1,-2
1511884000833237,0,3,3,1,-1,-2,-5,-1
1511884000856271,2,0,-6,-9,-15,-4,-2,1
1511884000856271,-2,-4,2,11,-9,2,-1,-1
1511884000857300,-1,-3,-2,1,-5,0,1,-3
1511884000857300,1,-3,-3,-5,-1,-2,-1,1
1511884000878360,-1,0,-1,-1,13,0,-1,1
1511884000878360,-1,1,1,-3,-26,-2,-1,-1
1511884000879337,-3,0,1,0,30,2,-1,-3
1511884000879337,1,-1,-1,-2,-19,-5,0,1
1511884000892392,-2,-2,-2,-5,3,-1,-2,-7
1511884000892392,3,1,-1,0,-15,0,-2,5
1511884000900422,-2,0,-4,-7,-14,-9,-2,-3
1511884000900422,-10,-5,0,3,-17,0,-2,-1
1511884000916468,13,-3,1,-3,-15,6,8,15
1511884000916468,7,0,0,0,33,4,5,8
1511884000916468,-4,-4,-2,0,-36,-5,-4,-2
1511884000916468,-11,2,0,4,-33,-2,-4,-13
1511884000938494,-11,-10,-11,-17,3,-8,-11,-10
1511884000938494,9,15,31,2,12,-6,-3,-1
1511884000939497,1,-24,-76,-10,-29,3,6,10
1511884000939497,-41,-8,1,-3,4,-2,-8,-15
1511884000952532,34,7,10,10,-26,4,11,13
1511884000952532,-13,-9,-30,-36,-49,-13,-8,-8
1511884000953535,-11,6,31,15,100,2,-15,-3
1511884000953535,22,3,0,13,8,4,14,-17
1511884000976154,-47,-2,-7,-3,18,3,-8,3
1511884000976154,33,7,5,4,2,17,26,36
1511884000977157,22,11,22,6,-76,5,15,28
1511884000977157,-16,-7,-12,-29,-23,-12,-21,-8
1511884000998240,-2,-5,10,-1,-42,-12,4,-25
1511884000998240,-32,-20,-11,-10,-27,-13,-15,-21
1511884000999226,1,-1,2,-9,-25,-8,-9,-6
1511884000999226,-5,3,2,8,49,3,4,-7
1511884001013258,14,9,-4,-14,-30,-15,-18,-1
1511884001013258,-9,-9,-8,-14,-17,5,6,-2
1511884001013258,36,5,-3,-8,28,8,13,30
1511884001013258,-16,0,11,18,4,-2,5,16
1511884001036341,23,6,-1,-3,24,30,23,-39
1511884001036341,-29,-16,-6,-4,16,-40,-34,31
1511884001036341,3,11,7,-7,15,30,24,-45
1511884001036341,22,-6,-6,-5,-26,-27,-29,14
1511884001058882,-11,-5,5,13,1,-18,-19,23
1511884001058882,6,7,-3,28,20,15,14,-13
1511884001059383,-65,-12,1,2,12,13,13,-30
1511884001059383,39,7,-5,15,-19,8,12,28
1511884001072919,-21,-14,-10,-18,96,11,-7,-5
1511884001072919,16,-5,-1,-3,16,22,29,-11
1511884001073922,-2,5,2,-17,-12,-44,-39,11
1511884001073922,7,2,0,15,15,25,19,-2
1511884001095515,-20,5,5,18,18,-3,-7,-14
1511884001095515,17,17,13,23,10,7,-5,27
1511884001096520,10,-11,-6,-17,-1,3,12,-24
1511884001096520,-5,1,-5,-30,-3,-11,-10,13
1511884001118579,0,4,0,16,-41,4,16,10
1511884001118579,-42,-19,-7,-20,9,-10,-11,-32
1511884001119554,10,13,9,1,-7,3,-10,10
1511884001119554,26,-2,-5,-19,6,-6,18,23
1511884001132615,-12,1,2,20,-25,2,2,-5
1511884001132615,4,10,9,18,40,14,0,-21
1511884001133591,-18,-11,-7,9,-5,-9,-20,-22
1511884001133591,-19,-6,1,14,66,6,1,31
1511884001155675,15,2,-3,-20,-16,5,14,12
1511884001155675,6,4,7,0,23,2,0,-1
1511884001156652,1,-1,3,6,-49,-15,-13,-9
1511884001156652,-2,2,0,-4,33,4,-1,-8
1511884001178721,5,2,4,24,9,0,5,10
1511884001178721,-2,-2,-5,-4,15,4,-5,-3
1511884001179723,12,4,-1,21,-18,-8,0,16
1511884001179723,-6,-4,0,6,-15,6,8,-13
1511884001191779,-9,-6,-2,10,3,-14,-25,-20
1511884001191779,13,5,0,7,-24,-1,-6,-4
1511884001200808,-1,-4,-2,-15,18,2,11,19
1511884001200808,4,3,9,16,-7,6,7,5
1511884001214844,-14,-5,-2,-26,-8,-7,-14,-19
1511884001214844,10,8,-1,-15,-17,-1,11,3
1511884001223841,0,4,5,8,14,3,2,3
1511884001223841,-19,5,4,-13,7,8,-4,-14
1511884001238908,21,-8,-13,-25,-5,-17,-13,13
1511884001238908,-4,-4,-4,-25,-9,-6,-2,1
1511884001239884,8,4,5,4,12,5,4,6
1511884001239884,-7,-7,-3,-27,-27,-9,-3,-16
1511884001251943,0,5,-5,-2,2,9,3,-5
1511884001251943,1,-4,5,9,-2,1,8,15
1511884001261497,7,0,-6,0,-9,-14,-16,-12
1511884001261497,3,4,4,-5,10,3,-2,-5
1511884001275278,4,-7,0,14,10,-6,-1,14
1511884001275278,-3,3,-4,-11,-19,2,3,-4
1511884001284266,-28,6,10,15,1,-8,-17,-12
1511884001284266,5,-30,-8,-6,9,-2,-6,-8
1511884001298454,21,11,0,-9,-14,4,12,21
1511884001298454,-18,-9,-1,23,-13,-7,-6,-15
1511884001300268,7,6,-1,-32,14,8,10,7
1511884001300268,-12,7,-1,8,2,-1,-11,-18
1511884001312409,6,3,4,1,-2,5,13,12
1511884001312409,4,5,-3,6,10,8,5,3
1511884001321324,-2,-6,-2,16,-10,-9,-11,-8
1511884001321324,-1,-3,-9,-35,-46,-10,-4,-1
1511884001335362,-20,-13,-1,-2,11,0,-2,-6
1511884001335362,2,3,-5,-5,5,-3,-3,-3
1511884001343408,-1,-6,-4,7,27,4,-1,3
1511884001343408,11,7,-1,-6,-6,4,8,2
1511884001359013,-3,4,-3,-1,-9,0,-2,0
1511884001359013,-2,-10,-2,-1,-6,-11,-14,-8
1511884001360497,1,-5,-3,1,-2,5,10,3
1511884001360497,0,1,2,27,9,0,-2,-2
1511884001372504,6,4,1,-8,-10,4,5,2
1511884001372504,-4,0,-1,-7,2,-6,-9,-2
1511884001381082,-3,-5,-3,-9,-4,2,0,1
1511884001381082,4,8,1,8,4,0,2,-3
1511884001395121,-5,-6,2,0,5,0,2,-1
1511884001395121,2,2,3,20,-10,4,6,-4
1511884001404151,0,1,1,-11,-9,-7,-13,8
1511884001404151,5,1,-2,9,21,-4,-6,-4
1511884001418221,-5,3,-1,0,11,-3,-4,-7
1511884001418221,-3,-8,-7,-10,-20,-3,-2,-5
1511884001420193,0,-3,-1,-6,-23,3,13,0
1511884001420193,6,5,5,12,11,7,5,12
1511884001432222,1,-2,-3,0,-12,-1,0,3
1511884001432222,3,2,-1,-7,3,-4,-4,-1
1511884001441241,-2,-4,-2,-4,-3,-2,-2,-2
1511884001441241,-1,-4,-1,0,-1,-5,-7,-5
1511884001455345,-2,5,1,-3,-12,-1,2,-1
1511884001455345,0,-15,-6,-2,-1,2,-1,1
1511884001463802,-3,4,6,29,-7,-1,2,0
1511884001463802,0,0,0,2,-2,-1,-1,-1
1511884001478915,1,-5,-4,-11,6,1,1,1
1511884001478915,1,6,4,-2,13,-4,-3,-1
1511884001479949,-1,-4,0,3,12,0,-2,-4
1511884001479949,-1,-1,0,1,-5,2,5,-1
1511884001491949,-1,2,0,-9,0,-1,-2,1
1511884001491949,-2,1,2,-6,-23,-8,-9,-3
1511884001500973,1,-4,-7,-29,-13,1,3,0
1511884001500973,-1,0,2,16,10,-1,-3,-2
1511884001515014,-2,-1,-1,-10,8,0,-1,-4
1511884001515014,-2,-6,-4,-27,-6,-3,1,-1
1511884001522052,2,0,1,3,8,3,4,2
1511884001522052,-3,-1,1,-4,0,-5,-6,-4
1511884001538071,2,3,-1,1,-10,4,6,5
1511884001538071,-1,-2,-7,-15,-17,-3,-2,1
1511884001540077,-1,2,10,27,-1,-2,-2,-3
1511884001540077,0,0,-1,-17,5,2,2,1
1511884001561163,-2,-4,-1,2,-5,-3,-3,-2
1511884001561163,-6,-14,-10,-3,-8,-3,0,-1
1511884001562652,4,4,3,11,10,2,5,5
1511884001562652,-3,-3,-5,-3,-21,-5,-3,-3
1511884001575803,-2,-1,-10,9,1,-1,-3,-2
1511884001575803,5,9,15,33,18,6,1,3
1511884001581819,-3,-4,-10,-43,0,2,2,2
1511884001581819,-6,2,15,52,10,-4,-6,-7
1511884001598869,4,8,-5,-14,9,2,3,4
1511884001598869,-6,-5,0,19,9,0,0,-2
1511884001599844,2,1,-3,7,24,6,2,3
1511884001599844,3,0,-9,-37,11,3,4,6
1511884001620926,0,3,10,4,38,4,-2,0
1511884001620926,3,4,-1,-12,-16,-4,1,5
1511884001622932,-2,-1,2,-12,43,10,2,-4
1511884001622932,-2,-3,-10,-26,-26,-2,0,-1
1511884001634937,-6,-9,-6,5,-63,-15,-7,-8
1511884001634937,1,9,3,-15,-11,-5,-1,-2
1511884001643985,3,-5,-12,-38,49,10,0,5
1511884001643985,0,1,0,24,-18,-5,-1,-1
1511884001658502,-2,-4,-1,-21,-5,-2,1,-1
1511884001658502,-2,0,4,15,-5,1,-1,-4
1511884001660507,1,8,-11,-49,-83,-18,-7,-4
1511884001660507,-2,-2,13,19,-25,-4,-5,-4
1511884001680691,3,-6,-22,-59,50,8,2,2
1511884001680691,0,4,2,-1,17,2,2,2
1511884001682668,-5,0,5,33,-7,-4,-3,-4
1511884001682668,1,3,-7,-24,7,0,-4,-3
1511884001694699,1,1,11,21,-15,-2,3,1
1511884001694699,2,2,-1,0,10,1,1,-1
1511884001703736,-5,-13,0,8,-10,-4,-1,-2
1511884001703736,0,-2,2,3,0,-1,-1,2
1511884001718763,-4,-3,4,3,-12,0,1,-7
1511884001718763,3,0,-3,2,6,5,1,5
1511884001719766,-3,-2,6,38,-29,-8,-5,0
1511884001719766,-2,-5,-4,-20,-36,-6,-1,-4
1511884001740840,-1,0,7,27,5,4,4,0
1511884001740840,0,0,-7,-25,-9,-3,-4,-2
1511884001742846,0,0,4,28,-20,2,4,-1
1511884001742846,2,1,-5,-48,-13,2,15,7
1511884001754882,-2,-5,-5,0,9,-7,-17,-2
1511884001754882,-3,0,5,36,-16,-6,1,-3
1511884001763942,1,-2,-5,-21,-29,-6,0,3
1511884001763942,-1,-1,3,17,30,1,-3,-7
1511884001778983,-3,-4,-4,-34,-27,1,5,0
1511884001778983,-2,1,2,-1,23,2,0,-2
1511884001779985,-1,-2,-4,-4,12,-1,-2,-1
1511884001779985,4,3,1,19,4,2,1,3
1511884001801041,1,-2,-3,21,6,-2,-1,0
1511884001801041,-3,-6,3,10,5,4,-1,-2
1511884001803047,-2,1,-5,-23,-13,-8,-5,-5
1511884001803047,-1,-2,0,7,-5,0,-2,-1
1511884001815106,1,-2,0,9,23,3,2,4
1511884001815106,-1,0,-1,-35,-5,-5,-3,-2
1511884001824104,0,2,3,-3,44,6,5,2
1511884001824104,3,5,-5,-9,21,5,1,5
1511884001838171,-3,-1,7,55,-57,-15,-7,-6
1511884001838171,1,5,-8,20,13,5,4,1
1511884001840146,-6,-12,2,14,0,2,0,-2
1511884001840146,-1,-3,-6,-8,29,0,-7,-2
1511884001861203,0,3,1,-7,7,8,4,1
1511884001861203,-1,3,-2,-38,-7,-6,-3,-3
1511884001862707,-2,-1,2,5,-3,1,-1,-2
1511884001862707,0,-1,8,14,-11,-1,1,2
1511884001874265,-4,-4,-15,-13,-7,-1,-1,0
1511884001874265,1,-3,3,7,10,5,1,-1
1511884001883333,1,2,-10,-22,12,6,3,1
1511884001883333,-3,-8,0,-29,-25,-7,-5,-2
1511884001898360,4,9,9,10,31,4,4,2
1511884001898360,-1,-5,-2,7,2,-7,-11,1
1511884001900365,2,4,6,-6,-5,1,5,2
1511884001900365,-1,3,-4,37,0,-7,-12,-5
1511884001921417,-4,-6,6,29,-32,-8,-8,-4
1511884001921417,-2,3,1,5,8,7,2,-2
1511884001922393,0,-9,3,20,0,-2,-2,0
1511884001922393,-3,0,5,1,8,-3,-6,-5
1511884001934453,3,5,1,-14,-13,2,2,0
1511884001934453,-3,-9,-2,-5,8,0,0,-4
1511884001943450,2,3,-1,13,-3,5,5,-2
1511884001943450,-1,-4,-15,-23,24,5,-5,2
1511884001958490,0,-3,-1,14,-22,-1,4,-3
1511884001958490,1,2,1,7,-12,-1,1,4
1511884001960497,-4,-4,-6,-30,13,2,-1,-3
1511884001960497,-2,-5,3,31,7,-6,-7,-2
1511884001981458,1,3,-9,-38,-3,-1,1,2
1511884001981458,2,3,1,9,-11,3,5,4
1511884001982433,-3,-5,4,14,-12,-3,-2,-5
1511884001982433,-4,-1,-4,-19,0,-2,4,-1
1511884001994465,0,-1,4,-25,16,-4,-5,0
1511884001994465,-4,-5,0,0,-12,-1,1,-4
1511884002003489,4,5,0,16,-14,0,-2,3
1511884002003489,-1,-2,2,9,-16,0,5,-1
1511884002018528,0,1,0,1,24,2,-3,-2
1511884002018528,-4,-5,-9,5,8,5,1,0
1511884002020534,0,7,0,-19,4,-6,-6,-4
1511884002020534,0,0,1,11,-4,4,6,1
1511884002040588,-2,-9,-1,2,4,-1,-2,-1
1511884002040588,2,3,-1,-10,0,-3,-3,-1
1511884002042594,-2,-2,5,30,8,2,0,0
1511884002042594,-1,4,-5,-12,-10,-2,0,-1
1511884002054652,-2,-2,4,10,7,1,-1,0
1511884002054652,1,-3,0,-4,-6,2,4,-1
1511884002064179,-1,-1,-7,-15,-17,-2,0,-2
1511884002064179,0,-2,5,20,16,2,1,2
1511884002078324,-1,-1,1,6,8,0,-3,-4
1511884002078324,-1,2,-7,-10,23,3,0,1
1511884002080329,0,1,3,17,-2,-1,3,0
1511884002080329,2,-2,2,2,-23,7,14,0
1511884002101381,-4,0,1,5,0,-17,-23,-3
1511884002101381,-3,2,6,9,-19,-18,-7,-6
1511884002102360,-1,-9,0,39,39,4,-4,2
1511884002102360,-1,-2,1,7,-2,-1,0,-2
1511884002114421,-1,3,-3,-14,-3,15,14,2
1511884002114421,-2,-6,5,-2,-5,-8,-8,0
1511884002123441,1,6,-2,-8,-10,-2,-2,0
1511884002123441,0,8,5,-4,-9,0,-3,-2
1511884002138456,-2,-16,-8,-8,-7,1,2,0
1511884002138456,3,3,-1,18,-4,3,-1,1
1511884002140462,-2,0,1,-15,-13,-2,4,-1
1511884002140462,-2,-1,2,13,-1,-2,-5,1
1511884002161037,2,13,7,9,-10,-13,-10,-6
1511884002161037,-1,-8,1,16,25,12,6,0
1511884002163042,0,1,-5,-30,19,-1,-6,1
1511884002163042,1,2,7,2,-10,-3,-1,-1
1511884002174604,-3,-3,-2,-16,2,0,1,-2
1511884002174604,-1,1,2,-12,-10,0,1,1
1511884002183628,-3,-7,-1,13,9,0,-2,-6
1511884002183628,-3,-1,0,-7,-3,0,0,-2
1511884002198700,2,4,-1,11,15,2,2,2
1511884002198700,1,4,-1,-4,-21,-1,2,0
1511884002200674,-2,-10,-10,-40,1,4,5,1
1511884002200674,-2,-8,-5,14,3,1,0,-1
1511884002220750,0,-9,-3,-5,-6,-11,-7,1
1511884002220750,0,5,-7,-29,1,1,2,-1
1511884002222732,1,4,7,21,-13,-5,-3,-2
1511884002222732,-2,1,-7,-20,14,2,2,-1
1511884002234787,3,4,1,3,-7,4,5,3
1511884002234787,-5,-3,0,-12,7,-5,-9,-4
1511884002243789,3,6,3,-4,22,-1,1,3
1511884002243789,-3,-3,0,4,8,6,5,-3
1511884002258855,0,-1,0,-2,-15,1,1,-1
1511884002258855,0,2,-1,0,1,1,-6,0
1511884002260388,-2,0,0,22,-22,-13,-7,-6
1511884002260388,-5,-10,-4,-1,-1,-17,-19,-7
1511884002281089,-2,-1,0,-12,0,0,-2,-3
1511884002281089,-1,-1,-2,4,31,16,17,5
1511884002282971,1,8,6,5,-9,-3,-5,-1
1511884002282971,2,-5,-7,-16,-7,1,2,4
1511884002295123,-1,2,-6,2,14,2,3,1
1511884002295123,2,2,6,17,-28,-5,0,1
1511884002304056,-3,1,-2,-8,-2,7,6,-1
1511884002304056,2,1,6,-7,-5,-19,-13,-1
1511884002318067,3,-1,-4,22,8,10,6,4
1511884002318067,0,-4,-3,-4,-7,-9,-3,1
1511884002325086,3,9,6,-3,-10,0,4,-1
1511884002325086,4,2,-6,10,-23,2,2,6
1511884002341303,-6,-10,0,-4,7,-4,-3,-5
1511884002341303,3,6,-1,26,12,2,-2,0
1511884002342129,-4,-9,-12,-25,-4,4,3,-1
1511884002342129,1,3,4,-2,11,-4,-3,1
1511884002355324,2,10,5,4,-9,-6,-5,-3
1511884002355324,-2,-4,2,11,0,1,2,0
1511884002364196,0,4,-1,-2,-4,-1,-1,-4
1511884002364196,-4,-6,-12,-36,-9,6,8,-2
1511884002378239,0,-7,9,37,1,-5,-6,-1
1511884002378239,-3,0,-3,-28,-2,-3,-3,-4
1511884002384255,1,5,7,18,-7,-4,-4,3
1511884002384255,-1,-2,0,24,2,1,2,-2
1511884002401300,-1,2,-5,-30,-4,-1,0,-4
1511884002401300,1,2,1,5,-11,2,0,2
1511884002402299,1,-11,-10,-1,-5,-2,0,2
1511884002402299,0,7,4,23,8,13,8,-1
1511884002414336,0,-2,-2,-43,2,-9,-3,-3
1511884002414336,-2,1,0,2,-10,-24,-22,-2
1511884002423516,-5,-5,2,-1,-8,2,-1,-1
1511884002423516,-1,-7,-9,-43,18,3,4,-1
1511884002438442,-1,2,-5,-2,-15,3,3,2
1511884002438442,-1,-8,-8,-15,19,7,5,0
1511884002444436,-3,3,7,6,20,0,-2,0
1511884002444436,2,0,0,10,-20,-1,2,3
1511884002461462,0,-1,0,16,2,7,8,0
1511884002461462,2,0,-2,-7,7,-1,4,0
1511884002462963,-2,-3,8,26,-17,-2,-6,-3
1511884002462963,0,-1,1,2,22,-3,-2,0
1511884002474493,1,6,-3,7,-9,-7,-6,1
1511884002474493,-3,-14,-8,0,-10,3,3,-3
1511884002483575,1,0,-6,-10,11,7,6,3
1511884002483575,-3,6,2,-28,-20,-25,-18,-5
1511884002497803,0,-1,-6,-21,17,7,6,1
1511884002497803,-3,-7,-6,-21,13,4,-1,-3
1511884002504799,2,1,-7,-11,5,-6,-3,1
1511884002504799,-1,-2,-2,0,0,6,5,2
1511884002520677,-3,1,2,32,11,-2,-3,-2
1511884002520677,0,2,2,17,-12,6,9,0
1511884002522681,-1,0,-7,-29,-1,-11,-9,-2
1511884002522681,-1,-1,-2,5,-6,2,-1,0
1511884002543774,-1,-4,-2,-1,8,3,1,-4
1511884002543774,2,4,2,7,0,5,9,3
1511884002544739,0,-3,-6,-38,-23,-6,0,-1
1511884002544739,0,2,2,-1,-2,2,-2,0
1511884002557797,3,-3,0,-8,-10,2,3,2
1511884002557797,-2,3,1,0,-8,-7,-10,-2
1511884002564817,3,4,8,20,-3,-1,7,5
1511884002564817,-3,-8,-9,-4,13,8,3,-3
1511884002580865,-4,-10,-9,-27,-38,-3,0,0
1511884002580865,3,8,8,23,3,-3,1,2
1511884002582871,-4,-12,-11,-20,5,-10,-13,-3
1511884002582871,-2,1,1,13,0,5,2,-2
1511884002603926,0,2,5,20,-4,8,7,1
1511884002603926,-2,-2,-2,-17,-7,-13,-10,-4
1511884002604902,3,0,-4,8,-3,0,1,1
1511884002604902,-1,3,2,3,19,1,0,-2
1511884002617963,-1,7,3,10,-2,3,0,-1
1511884002617963,-2,-17,-4,7,-5,7,6,-1
1511884002624955,1,7,1,6,20,-1,-5,-2
1511884002624955,-1,1,0,-9,-1,0,-2,-2
1511884002640998,-1,-1,5,14,-1,-1,1,0
1511884002640998,1,7,2,9,-3,-7,-6,0
1511884002643027,-2,-2,-2,5,6,3,-2,-3
1511884002643027,0,-5,1,12,16,-3,-3,-2
1511884002663560,-1,4,1,-2,14,3,2,0
1511884002663560,-1,-2,-1,3,23,16,17,3
1511884002665565,-3,-1,4,3,-34,-15,-19,-4
1511884002665565,1,2,-7,-43,-21,-1,2,-3
1511884002676746,-2,-6,-2,14,7,0,-2,0
1511884002676746,-3,0,-2,-3,-10,-6,-9,-4
1511884002685749,-1,-4,3,10,12,14,14,3
1511884002685749,1,1,0,22,-8,-3,0,2
1511884002700816,-2,4,1,-21,-7,-8,-8,-1
1511884002700816,4,-1,-7,-18,-17,7,8,2
1511884002702795,-2,1,0,3,-3,-1,1,-2
1511884002702795,-3,-1,1,8,-5,-6,-5,-2
1511884002723850,-1,2,-7,-22,0,-7,-7,-2
1511884002723850,-3,-7,-4,2,-15,0,1,2
1511884002724853,-1,1,-3,3,17,7,2,-2
1511884002724853,0,2,0,-1,-15,1,5,3
1511884002736886,3,9,0,6,22,19,22,5
1511884002736886,-2,-6,5,23,9,-18,-26,-5
1511884002745920,-4,-5,5,-5,-9,-19,-10,-6
1511884002745920,3,-5,-4,-17,18,4,4,2
1511884002761480,-3,-5,-4,6,-22,1,-1,-3
1511884002761480,0,3,4,-11,-5,14,11,2
1511884002762984,-2,-4,-1,0,37,0,-2,-2
1511884002762984,-2,0,-2,-2,-18,-12,-8,-3
1511884002783597,-1,-5,4,18,2,-2,-3,0
1511884002783597,-4,2,-1,-15,-2,-4,-2,-2
1511884002784597,1,-6,-3,0,-19,1,3,2
1511884002784597,-4,-4,0,-5,3,1,-2,-4
1511884002796635,1,-2,-1,9,21,-1,-4,0
1511884002796635,-2,0,-3,-3,-13,-9,-4,0
1511884002805657,0,1,2,12,31,7,3,2
1511884002805657,-2,-2,-7,-19,-19,2,0,-2
1511884002821699,-3,-2,0,-16,-17,-12,-9,-2
1511884002821699,1,-7,-4,19,33,9,6,3
1511884002822704,0,3,0,-21,-22,-2,2,-1
1511884002822704,-1,2,6,19,15,-4,-6,0
1511884002843754,1,3,-6,-19,9,-4,-10,-3
1511884002843754,-2,1,8,-5,-30,0,5,-2
1511884002844757,3,8,3,28,14,9,6,1
1511884002844757,-2,-10,1,6,-5,-10,-2,0
1511884002856793,-4,-2,3,26,-14,-8,-5,-5
1511884002856793,1,7,6,4,3,-5,-4,1
1511884002866341,-2,-7,-10,-6,4,14,13,-1
1511884002866341,2,8,2,-1,-8,8,0,-1
1511884002880469,1,-2,6,15,19,-3,-1,5
1511884002880469,-6,-8,-11,-5,-18,-5,-4,-6
1511884002882476,2,7,2,4,-13,3,2,0
1511884002882476,1,-5,1,12,-1,7,3,4
1511884002903558,0,1,-6,-29,-85,-31,-14,-2
1511884002903558,-2,1,-7,-31,33,2,-3,-4
1511884002905563,0,-2,7,24,15,4,1,2
1511884002905563,0,5,7,30,-13,5,7,0
1511884002917595,-2,-3,-2,-18,6,4,-2,-3
1511884002917595,0,2,8,21,-5,-6,-5,-1
1511884002926621,2,0,-6,5,-14,-1,3,0
1511884002926621,0,0,0,-26,8,-3,-5,-2
1511884002940660,0,2,1,26,22,-4,-3,-1
1511884002940660,-1,-4,-9,0,19,9,4,-2
1511884002942637,-2,5,1,-20,-5,-3,-2,-1
1511884002942637,-1,-18,-6,-11,13,3,4,2
1511884002963694,-1,4,-2,3,20,9,6,-1
1511884002963694,2,0,1,-5,-7,-10,-9,0
1511884002965198,0,-4,0,-3,6,4,5,1
1511884002965198,-2,0,-9,-40,-20,0,2,-1
1511884002976731,-1,2,0,-2,-11,-8,-9,-3
1511884002976731,-2,-6,-3,-7,-6,-9,-7,0
1511884002985755,-1,-2,-5,-22,-18,-4,-4,-2
1511884002985755,0,7,3,31,7,0,-1,-3
1511884003000823,0,-9,-8,-36,9,18,12,2
1511884003000823,0,8,6,14,-5,-2,-2,0
1511884003002800,-1,-13,-2,-14,-3,-1,-4,-1
1511884003002800,-1,5,-2,22,-17,-5,2,0
1511884003023855,-1,-1,-6,-20,4,4,3,0
1511884003023855,-1,0,-2,-2,-5,-11,-4,0
1511884003024858,0,5,3,-1,-7,-2,-7,-2
1511884003024858,1,-4,2,22,20,-1,-2,0
1511884003036917,-2,-8,2,-2,0,-1,1,-2
1511884003036917,1,3,4,6,7,7,6,-1
1511884003045929,-3,-14,-3,24,7,-6,-8,-2
1511884003045929,1,5,0,-11,0,1,1,2
1511884003061011,-2,-6,-1,5,16,4,5,-2
1511884003061011,2,3,3,13,13,1,1,2
1511884003063016,-1,2,-3,-27,-50,-8,0,-4
1511884003063016,1,-4,2,5,-7,2,-1,3
1511884003083113,-2,3,5,29,20,1,-5,-4
1511884003083113,-7,-14,1,-4,-22,-2,1,-4
1511884003085102,-2,0,-6,-31,-27,-5,-5,-1
1511884003085102,2,5,-1,-5,-12,-15,-4,-1
1511884003097148,1,7,8,3,31,9,6,3
1511884003097148,2,-2,3,-10,-27,-5,-5,-3
1511884003106148,-3,1,-4,11,16,3,3,-1
1511884003106148,-1,2,1,5,13,2,0,-1
1511884003121232,1,-1,-2,2,11,8,5,2
1511884003121232,-1,-6,-7,-13,14,4,3,3
1511884003122218,-1,2,3,15,1,-7,-12,-4
1511884003122218,-3,-4,-6,-18,-37,-10,-4,-4
1511884003143274,0,-3,3,8,-16,-3,-3,-2
1511884003143274,2,1,-7,-21,20,10,8,2
1511884003145279,-1,4,0,-8,4,10,10,4
1511884003145279,-5,-6,-1,-3,17,-6,-8,-4
1511884003157285,-2,1,-6,-21,-27,-9,-6,1
1511884003157285,2,-5,-3,3,8,5,1,-1
1511884003166362,-2,-1,-2,-25,-8,-4,5,4
1511884003166362,-1,3,3,16,-11,3,-2,-3
1511884003180964,-2,-3,-9,5,16,-9,-5,-1
1511884003180964,2,7,1,5,15,7,5,-2
1511884003182970,-3,-15,-8,-11,9,3,3,2
1511884003182970,1,3,3,-6,-6,-17,-18,-3
1511884003203024,2,-2,5,36,-1,11,11,2
1511884003203024,4,12,3,-1,11,-7,-8,1
1511884003205027,0,-1,0,21,2,-1,-2,-2
1511884003205027,0,7,1,1,8,5,4,-2
1511884003217090,-2,-16,-6,1,0,1,-1,0
1511884003217090,-3,0,2,4,0,-6,-5,-3
1511884003226083,1,9,-5,-11,1,1,0,-1
1511884003226083,-2,-4,-8,-17,15,0,-3,-1
1511884003240148,-2,3,6,-29,-25,1,8,-1
1511884003240148,-1,1,-4,-19,-22,-1,2,1
1511884003247168,-1,-2,5,18,-5,-17,-18,-4
1511884003247168,-1,-6,-6,-3,-20,6,9,0
1511884003263684,-2,0,-4,-10,15,-1,-2,-2
1511884003263684,1,-2,5,13,-2,-4,1,0
1511884003265188,-4,-2,-3,-3,12,0,-6,-4
1511884003265188,2,-1,0,-5,23,5,2,1
1511884003277269,1,0,0,14,-11,7,4,2
1511884003277269,-3,-2,-2,-15,-6,-5,-4,-3
1511884003286293,-1,-1,3,8,-5,-2,2,-1
1511884003286293,0,-1,0,22,35,7,7,1
1511884003300362,0,4,-2,-44,-12,-7,-7,-3
1511884003300362,-2,-7,2,16,-25,0,-5,-3
1511884003307351,-3,-3,-4,14,14,-7,-2,1
1511884003307351,-1,0,-1,-16,1,3,0,0
1511884003323430,1,3,5,9,4,-6,-3,0
1511884003323430,-2,1,-5,19,10,2,0,-1
1511884003325397,1,1,9,43,-5,10,9,1
1511884003325397,-3,-2,-1,-15,-41,-17,-8,-1
1511884003337586,1,3,3,5,4,-3,-7,2
1511884003337586,-3,-10,-2,0,-3,-3,-3,-1
1511884003346421,4,4,1,2,12,9,7,2
1511884003346421,2,3,2,-11,3,-4,-5,-3
1511884003360465,0,-14,-7,-19,-32,-6,-4,-3
1511884003360465,0,0,-5,-5,-6,5,3,1
1511884003367486,0,2,-4,-16,19,1,-2,0
1511884003367486,-2,1,-3,4,1,1,0,-3
1511884003384043,-1,3,2,19,16,-2,3,2
1511884003384043,0,1,2,3,-7,5,-3,-3
1511884003385046,0,-1,-8,-29,-16,-5,8,5
1511884003385046,1,-4,1,14,10,4,-2,-1
1511884003397177,-3,3,1,3,-2,9,6,0
1511884003397177,0,1,-2,3,0,-2,-3,-1
1511884003406102,-3,3,-5,-15,-7,-15,-11,-5
1511884003406102,-3,-9,-5,-25,9,9,7,1
1511884003420140,-2,-2,0,18,-14,-7,-5,-2
1511884003420140,1,4,-3,-17,4,4,6,1
1511884003427285,0,0,4,10,10,6,1,-1
1511884003427285,3,-1,-5,-14,-5,-7,-5,1
1511884003443315,-3,-2,-3,-6,-14,5,-1,-3
1511884003443315,1,2,-4,-7,10,8,12,7
1511884003445206,-4,-4,-1,6,-17,-16,-14,-8
1511884003445206,-3,10,-3,-3,1,-3,-3,0
1511884003466424,-2,-17,-4,1,7,2,-4,1
1511884003466424,2,5,2,-1,-1,-10,-6,-1
1511884003467905,-1,-3,5,-12,-30,1,0,-1
1511884003467905,-3,-2,-5,2,7,5,3,-1
1511884003479960,-4,1,2,-2,-6,-8,-4,-3
1511884003479960,-3,-1,-3,14,5,8,0,-4
1511884003486982,3,-1,2,-16,0,-2,1,1
1511884003486982,-3,0,-2,7,33,3,-3,-2
1511884003504096,1,3,0,-42,-2,10,12,-1
1511884003504096,0,-13,-8,-4,20,-15,-16,2
1511884003505027,0,-7,-7,15,14,15,10,3
1511884003505027,2,-1,8,24,-14,-10,-1,2
1511884003526085,-2,4,-9,-11,-13,-7,-4,-3
1511884003526085,-3,4,3,4,17,4,2,-2
1511884003528088,-1,-2,1,-8,-3,-2,-5,0
1511884003528088,-4,-5,-4,-2,-8,8,7,-4
1511884003540120,0,-1,7,15,12,0,-1,6
1511884003540120,-3,0,0,-6,-27,-4,7,-2
1511884003547169,3,3,3,13,-6,0,0,3
1511884003547169,-3,-2,4,9,-14,1,-1,-4
1511884003563685,-1,2,-6,-21,9,-3,-5,-4
1511884003563685,-2,-1,-1,-4,-9,6,5,1
1511884003565189,-3,4,3,0,12,-4,-1,-2
1511884003565189,1,0,-2,5,6,2,-2,-1
1511884003585786,-1,-4,-5,20,2,-4,-4,-3
1511884003585786,1,6,8,8,-4,-2,-5,0
1511884003587792,-2,-2,-1,-4,8,3,5,-1
1511884003587792,3,3,-1,-10,-15,-2,4,2
1511884003599823,-3,-3,-5,-9,0,-1,-4,-4
1511884003599823,-1,-1,-2,-3,-15,-13,-8,0
1511884003608848,0,-2,1,6,10,7,1,0
1511884003608848,-2,0,-1,-5,-4,-5,-2,-1
1511884003623917,2,2,3,7,2,4,3,2
1511884003623917,-3,-3,1,-7,3,11,4,-6
1511884003624891,2,1,-3,-4,-1,-7,1,10
1511884003624891,0,-3,-1,8,1,0,-4,-2
1511884003645976,-2,2,0,5,6,-2,2,1
1511884003645976,-2,-4,-4,-1,-6,-2,1,0
1511884003647983,0,1,0,4,3,5,-2,-6
1511884003647983,1,-2,-2,-3,-4,-2,2,1
1511884003659985,0,-3,-1,8,0,-7,-6,-3
1511884003659985,0,-1,1,1,2,-13,-8,-4
1511884003669009,-2,-4,-6,-12,-3,0,-3,-3
1511884003669009,-1,-2,1,3,-8,5,8,3
1511884003683549,-1,0,-2,2,-7,-12,-9,1
1511884003683549,0,-2,-1,5,18,12,6,0
1511884003685555,0,-2,-4,-2,-18,-5,3,-1
1511884003685555,-1,3,1,2,12,-5,-6,-2
1511884003705635,1,2,4,9,-10,0,0,-3
1511884003705635,-1,0,0,-9,-3,-3,-2,-1
1511884003707614,-1,0,4,17,5,2,-2,1
1511884003707614,1,-3,-1,-2,1,4,0,1
1511884003719647,1,1,-4,-6,17,4,12,4
1511884003719647,0,0,-4,-25,10,-1,-8,-1
1511884003728672,-2,-9,-1,7,-6,-6,-12,-3
1511884003728672,1,2,2,-5,-6,-1,1,-1
1511884003743736,0,3,4,8,6,6,1,-2
1511884003743736,1,-2,-2,15,-6,-5,-6,2
1511884003744719,-2,0,-4,0,12,14,16,-2
1511884003744719,1,-1,0,3,16,-12,-15,0
1511884003766322,0,-1,1,2,0,-5,-5,0
1511884003766322,4,4,2,47,5,10,7,3
1511884003767803,2,-1,-7,-8,5,-7,-1,2
1511884003767803,-2,1,7,7,-17,5,3,1
1511884003779949,-3,-1,-1,-13,43,3,-3,-5
1511884003779949,-1,1,2,15,-2,-1,2,-1
1511884003788947,1,2,3,-5,5,-2,-4,1
1511884003788947,-3,-3,-3,-4,-2,8,3,-4
1511884003803989,-1,-2,2,-8,1,-11,-8,-1
1511884003803989,-2,1,3,-1,5,-2,-6,-2
1511884003804989,0,2,0,-22,-40,-2,-1,0
1511884003804989,-3,-5,-2,6,12,-1,-4,-2
1511884003826072,2,-1,-7,-37,-14,8,7,2
1511884003826072,-4,-3,0,15,-1,-4,-1,-3
1511884003828082,-2,-1,0,-7,-14,-4,-3,-2
1511884003828082,1,-1,-5,-9,-14,-3,0,1
1511884003840083,-2,-1,2,27,-5,3,1,-1
1511884003840083,3,7,3,-13,1,-5,-1,1
1511884003849107,-8,-18,-11,-12,-18,-8,-11,-6
1511884003849107,0,-1,2,13,-5,-4,0,3
1511884003864177,0,0,-1,10,7,6,3,1
1511884003864177,-2,4,-3,-21,-10,-11,-5,-2
1511884003865653,-1,1,4,11,13,-1,-2,-1
1511884003865653,3,-3,-1,-13,2,5,-1,-2
1511884003886211,-1,0,3,19,-11,-2,3,2
1511884003886211,1,-3,-7,-32,-13,-4,-12,-1
1511884003887239,3,6,7,20,9,4,6,1
1511884003887239,-4,-7,-4,-11,-2,2,5,0
1511884003899271,-2,-3,-1,0,-4,-2,-2,-3
1511884003899271,-1,-3,-2,-3,7,9,8,1
1511884003908295,1,7,5,12,8,-8,-9,-1
1511884003908295,2,-6,-3,-15,-10,2,5,4
1511884003923335,1,1,0,-3,-28,-6,-5,0
1511884003923335,-2,-8,-3,-8,-4,0,-1,0
1511884003929353,-10,0,1,8,-1,12,10,4
1511884003929353,2,8,2,3,17,-6,-2,-1
1511884003946396,-2,-6,-6,9,-17,1,2,-1
1511884003946396,-1,3,4,-21,-16,-14,-7,-4
1511884003947371,1,-2,-3,-9,2,1,-2,-5
1511884003947371,1,5,-2,-10,0,-2,1,1
1511884003959907,-1,-8,-8,-39,0,-4,-6,-2
1511884003959907,0,7,-1,9,1,7,7,-1
1511884003968936,0,-3,-3,-7,15,-2,-1,-1
1511884003968936,-3,0,-2,11,-2,-3,-2,-5
1511884003983047,0,1,-2,-14,-3,-5,-4,-1
1511884003983047,0,0,3,17,-3,7,6,3
1511884003985022,1,0,0,-17,-21,-15,-7,1
1511884003985022,-2,2,-2,-2,0,1,-2,-2
1511884004006078,0,-1,-1,8,25,8,4,0
1511884004006078,-3,-1,-2,-6,-9,1,-3,-3
1511884004008084,3,4,0,10,7,1,3,2
1511884004008084,1,-4,3,-10,0,-4,2,1
1511884004020122,2,2,4,18,15,-3,-4,2
1511884004020122,-3,-2,-1,0,1,3,5,1
1511884004029148,-1,-1,-3,-18,-19,-19,-16,-6
1511884004029148,-2,0,-3,-3,-10,1,3,0
1511884004043178,-1,0,-2,-1,14,4,-1,1
1511884004043178,-1,-6,-3,-23,7,4,5,-1
1511884004045183,2,-4,2,10,2,6,1,-1
1511884004045183,0,2,5,29,2,0,0,0
1511884004066243,-2,1,-6,-42,-6,0,-2,-2
1511884004066243,2,0,2,4,7,-6,-7,0
1511884004067746,-3,0,-1,4,12,6,8,2
1511884004067746,-1,-1,-1,-14,8,-2,-1,0
1511884004079899,3,14,11,13,-22,6,4,1
1511884004079899,-4,-21,-7,6,8,4,7,0
1511884004088923,1,5,0,-7,-9,-3,-6,-3
1511884004088923,4,1,0,5,9,10,3,5
1511884004103962,-3,-6,-3,11,5,-13,-10,-3
1511884004103962,1,4,-2,-4,22,4,-2,-1
1511884004104965,-2,-1,1,19,7,4,3,0
1511884004104965,-7,-5,0,10,8,-1,-2,-2
1511884004126047,-1,5,1,17,8,0,0,-3
1511884004126047,0,0,-2,-22,-17,-3,3,2
1511884004128026,2,-4,-2,-2,8,6,2,0
1511884004128026,-2,-1,-1,-2,-8,-5,-5,-3
1511884004140077,0,-4,0,6,-1,-1,-1,2
1511884004140077,0,3,4,21,1,-1,-1,2
1511884004149084,3,-1,-3,6,3,4,2,1
1511884004149084,-2,0,-6,-22,-1,-3,-1,0
1511884004163656,-4,-2,-3,-14,-10,8,9,-4
1511884004163656,0,-2,-2,5,-12,-28,-25,-3
1511884004165130,-3,1,-1,6,11,5,-2,-2
1511884004165130,4,2,2,30,-3,-4,5,5
1511884004186189,-1,-2,-1,4,14,4,2,-2
1511884004186189,-2,-1,-6,-14,-29,5,7,-3
1511884004187221,2,-1,2,-2,13,-2,-1,-1
1511884004187221,-1,0,2,-1,-12,-3,-1,-5
1511884004199223,-1,0,-2,-9,-5,-2,-4,-1
1511884004199223,1,4,4,17,-10,-6,-3,2
1511884004208246,0,6,4,-9,7,-5,-4,-1
1511884004208246,-2,-2,-3,0,-12,0,-3,-3
1511884004223287,1,-4,-2,9,-2,0,0,2
1511884004223287,0,-9,1,-3,4,8,2,-1
1511884004229303,-3,6,-2,15,34,-1,0,0
1511884004229303,1,-1,-1,-34,-11,0,-3,0
1511884004246374,-1,-1,4,15,-8,-7,-3,-1
1511884004246374,-3,0,1,-16,3,4,3,-2
1511884004247351,3,-1,-8,-20,7,-2,-3,0
1511884004247351,-1,5,0,6,-5,-5,-4,-3
1511884004259894,-1,-11,-4,7,-5,-5,-4,-1
1511884004259894,-1,6,0,3,11,4,1,-3
1511884004268917,-3,-6,-6,-23,-38,2,6,1
1511884004268917,-2,0,-2,12,-5,-4,-5,-4
1511884004282972,1,3,3,-4,-9,5,10,4
1511884004282972,0,-1,-4,-3,15,-8,-10,2
1511884004289990,0,2,5,3,-4,1,0,-5
1511884004289990,-1,-4,-6,-6,-18,-5,0,0
1511884004306062,-2,3,1,18,25,6,3,-2
1511884004306062,0,0,3,-4,-14,6,8,-5
1511884004308035,0,0,-3,23,-6,2,8,7
1511884004308035,1,2,0,-23,0,-16,-17,-1
1511884004320073,-2,-18,-1,0,4,1,-1,-1
1511884004320073,2,6,4,25,-8,2,4,0
1511884004329092,-3,-4,1,14,15,7,4,0
1511884004329092,-3,2,-5,-17,-23,0,4,-1
1511884004343130,1,4,2,0,4,-9,-6,0
1511884004343130,-1,3,-2,7,-1,-1,-1,-1
1511884004350149,1,-4,5,5,-18,-1,0,0
1511884004350149,1,1,5,25,11,3,0,-1
1511884004366281,-2,-1,-10,-50,-12,-5,-4,-2
1511884004366281,-1,-1,-2,-11,-14,-2,-4,-4
1511884004368234,1,2,0,0,14,-5,-5,1
1511884004368234,-1,-3,-3,2,23,7,9,1
1511884004388960,-1,3,1,9,-24,-1,-4,0
1511884004388960,-1,-1,0,5,1,4,2,-4
1511884004389937,-3,-4,-3,-14,-21,-20,-20,-4
1511884004389937,-1,-4,-4,6,10,2,-1,1
1511884004402972,1,7,5,3,-24,0,0,0
1511884004402972,-2,-16,-14,-30,-2,-3,-3,0
1511884004409986,-2,4,1,0,3,7,4,-2
1511884004409986,-1,-3,0,-7,-12,-1,-2,-4
1511884004426032,1,2,-4,-29,-7,-4,-3,0
1511884004426032,1,-1,0,1,0,-3,-2,0
1511884004428034,-1,-2,-1,-7,3,2,3,-2
1511884004428034,-2,1,0,-2,1,-3,-5,-3
1511884004449118,0,1,3,20,12,11,9,2
1511884004449118,0,1,-1,-19,28,4,0,2
1511884004450097,-2,0,1,1,-1,0,1,2
1511884004450097,1,1,2,-3,-6,-3,-2,-2
1511884004463691,-1,3,4,10,4,-4,-4,-4
1511884004463691,-1,-1,2,16,-6,8,5,2
1511884004465175,-4,-5,3,-3,28,0,-4,-5
1511884004465175,-1,6,4,14,-11,-5,-2,0
1511884004486071,-2,-5,-11,-24,-6,-3,-7,-2
1511884004486071,1,-3,4,17,-1,0,0,0
1511884004488080,2,-2,1,-2,-34,-2,7,3
1511884004488080,-1,-6,-5,-2,5,1,-2,-4
1511884004509159,0,2,2,9,15,0,-2,0
1511884004509159,0,1,-1,3,5,0,2,3
1511884004510135,-1,1,-7,-13,-33,-6,-3,-1
1511884004510135,-4,-18,-8,-18,22,4,1,-1
1511884004523228,1,3,4,32,-4,-1,2,2
1511884004523228,1,3,2,0,8,-6,-6,0
1511884004525214,0,-5,1,2,-1,2,1,0
1511884004525214,-1,1,0,-4,22,4,3,0
1511884004546230,-2,-3,-4,-11,-5,-1,3,0
1511884004546230,-1,2,-1,2,-12,-3,-2,-3
1511884004547232,1,1,-1,6,4,-3,1,1
1511884004547232,-1,1,-3,-7,-5,1,0,1
1511884004568820,1,-2,-3,-10,-1,0,6,2
1511884004568820,-2,-5,-5,-3,17,0,-1,-4
1511884004570324,0,0,-4,-2,-9,-9,-13,-5
1511884004570324,1,4,3,2,7,6,3,3
1511884004582965,2,1,5,25,5,-6,-6,2
1511884004582965,-3,-1,-2,-3,-13,3,0,-3
1511884004589983,0,-1,-4,-20,-17,3,5,2
1511884004589983,-2,2,0,-7,0,-4,0,-2
1511884004605999,-3,-2,-2,-4,-7,-1,-4,-1
1511884004605999,2,8,0,-22,-15,-4,3,1
1511884004608006,-6,-29,-11,4,27,4,-2,-3
1511884004608006,-3,3,1,19,2,-1,-3,-1
1511884004628085,1,-4,-4,-6,-9,-1,1,-1
1511884004628085,3,1,0,11,3,-3,-2,2
1511884004630076,4,11,6,4,-11,0,3,1
1511884004630076,-2,-7,-3,-3,8,-1,-2,-2
1511884004643098,-5,-9,-3,-3,20,-1,-2,-4
1511884004643098,-5,2,-2,0,-11,-3,-1,-2
1511884004649113,1,7,5,9,-1,3,3,0
1511884004649113,1,-4,4,-1,-11,-2,-2,-2
1511884004666163,4,6,5,-11,9,-3,-2,1
1511884004666163,-3,-4,-5,-12,-4,8,5,-5
1511884004667669,0,0,-2,-26,-3,-13,-12,-1
1511884004667669,-4,0,1,12,13,-10,-9,-2
1511884004688250,2,6,0,15,0,3,1,1
1511884004688250,1,-4,-4,-13,-2,1,-1,-1
1511884004690229,-3,-1,2,5,4,6,8,-1
1511884004690229,7,17,3,-3,-10,2,4,3
1511884004703296,-10,-22,-6,-1,-14,-3,-4,-6
1511884004703296,-2,-2,-2,13,15,-2,-1,-1
1511884004709306,-3,5,4,2,-4,1,-1,-4
1511884004709306,0,-10,-1,4,-6,-2,-4,-2
1511884004726348,1,8,0,8,-7,0,2,1
1511884004726348,-1,0,2,-18,-21,-6,-7,-4
1511884004727327,0,-1,-4,-5,-4,-1,2,5
1511884004727327,4,2,0,3,14,11,10,3
1511884004748410,-2,1,-1,-2,7,-14,-18,-4
1511884004748410,-2,-6,-5,-9,-6,-2,-2,-2
1511884004750416,1,4,6,18,10,4,0,-1
1511884004750416,-2,0,-6,-24,-5,12,8,-3
1511884004762951,6,5,1,0,-15,-9,-1,8
1511884004762951,-2,-11,2,1,4,-8,-6,-3
1511884004769966,-1,3,-2,-10,-56,-8,0,1
1511884004769966,-3,-12,-8,4,19,1,1,-3
1511884004785509,0,-1,-1,5,26,10,8,-1
1511884004785509,0,2,2,5,-2,0,-1,1
1511884004787513,-1,5,-3,-3,7,2,1,-2
1511884004787513,-2,-9,-2,-2,-16,-5,-1,1
1511884004808570,0,5,6,4,-2,-1,0,-3
1511884004808570,1,3,-3,14,6,-1,1,3
1511884004809603,-2,-7,-5,-11,8,5,-1,-4
1511884004809603,0,5,0,-3,-7,-9,-9,-1
1511884004822607,0,-4,1,12,7,-1,2,-1
1511884004822607,4,5,2,17,1,-1,-4,3
1511884004829625,2,-4,-2,-15,5,0,1,-1
1511884004829625,-1,2,0,0,-7,3,9,1
1511884004845699,-3,-4,-3,-9,-12,-6,-10,-1
1511884004845699,0,2,5,14,2,0,2,1
1511884004847674,-4,-11,-10,-5,10,5,0,-4
1511884004847674,0,8,6,5,-3,-3,-1,0
1511884004868733,-5,-17,-13,-32,-6,-5,-4,-7
1511884004868733,0,3,6,5,4,-2,1,3
1511884004870237,2,5,5,-3,5,1,-1,1
1511884004870237,-7,-10,-8,-9,-9,2,1,-3
1511884004882565,-4,7,2,16,-2,7,3,4
1511884004882565,2,1,-7,-27,4,3,-2,-3
1511884004891562,2,-2,1,4,18,7,8,3
1511884004891562,2,0,3,1,-34,-18,-12,3
1511884004906629,0,1,5,12,6,4,7,-1
1511884004906629,-4,-2,-3,-23,-30,-1,-2,-5
1511884004911644,1,3,2,14,4,1,4,0
1511884004911644,5,1,-2,0,7,3,-3,-3
1511884004935680,-2,3,5,-4,-4,1,-1,0
1511884004935680,-2,-6,-1,12,5,-3,-2,1
1511884004937685,-3,5,-3,-15,-6,2,-1,-6
1511884004937685,0,3,9,27,-1,-5,-5,2
1511884004941696,-3,-17,-5,0,-6,0,-2,-2
1511884004941696,0,5,2,28,6,-8,-4,-1
1511884004950720,0,-3,-3,-15,-10,-4,0,-1
1511884004950720,-2,-5,-4,6,4,1,-4,-5
1511884004966316,5,13,5,1,12,6,5,2
1511884004966316,-2,-8,-6,-3,10,7,4,4
1511884004967820,1,-3,-1,14,3,0,4,1
1511884004967820,-1,4,-4,-18,-2,-9,-11,-1
1511884004988901,4,1,-3,-10,2,-2,-2,-2
1511884004988901,-1,0,0,-9,-3,-1,1,-4
1511884004989876,-1,2,2,-11,2,3,-4,0
1511884004989876,-3,-8,-3,1,21,5,7,-1
1511884005001910,-3,1,-7,-23,-26,-1,1,3
1511884005001910,-1,-2,-4,19,27,-14,-12,-5
1511884005010933,1,5,2,3,-10,-2,-3,-1
1511884005010933,-2,-12,1,10,-14,2,5,2
1511884005025996,-2,0,-3,6,15,-2,-1,-2
1511884005025996,2,2,-3,-15,-6,7,3,3
1511884005028002,-2,3,4,12,-3,-4,-4,1
1511884005028002,3,1,3,-9,14,-4,-8,-1
1511884005048058,-3,-2,-1,16,-1,0,4,-1
1511884005048058,2,4,6,0,2,7,7,2
1511884005050036,0,-8,-11,19,11,-4,-4,1
1511884005050036,0,7,-1,-34,-27,0,1,-3
1511884005062127,0,1,0,4,2,1,-4,-3
1511884005062127,-1,1,-2,-29,-3,-7,-6,0
1511884005071122,3,-2,-1,-5,-2,-2,2,2
1511884005071122,-3,1,-2,3,3,4,2,-4
1511884005085734,-1,-11,-1,1,5,-1,-3,-1
1511884005085734,-1,2,-6,-6,-16,5,8,-1
1511884005087738,0,0,0,-1,0,-10,-9,-3
1511884005087738,-1,2,5,-8,-3,0,4,4
1511884005108821,1,2,-4,-2,-4,-2,-2,-3
1511884005108821,-3,-3,6,23,7,6,2,-4
1511884005109798,0,-3,-1,-6,2,-7,2,7
1511884005109798,2,4,-3,8,7,2,0,-1
1511884005121858,-2,1,6,4,-1,4,4,0
1511884005121858,0,0,-2,-10,-8,-11,-8,-2
1511884005130852,-1,-4,0,5,-12,-2,-1,-3
1511884005130852,-1,2,-5,-29,-4,-3,-5,0
1511884005144890,3,3,2,-4,-4,1,1,1
1511884005144890,-3,1,0,17,4,4,3,1
1511884005151938,-3,2,3,-4,-3,4,-1,-3
1511884005151938,0,-6,-5,-3,1,-2,-1,-2
1511884005168479,-1,1,-7,-10,-5,-3,-7,-1
1511884005168479,2,7,6,4,-2,2,5,3
1511884005170485,-1,-2,0,28,5,0,-3,-2
1511884005170485,-4,-11,-3,6,-5,1,3,0
1511884005181993,0,3,1,-21,-4,-9,-5,-1
1511884005181993,-3,1,2,14,-1,5,7,-1
1511884005191018,1,5,3,-13,-9,-10,-6,0
1511884005191018,-2,-8,-3,8,2,15,12,1
1511884005205082,2,6,7,19,-14,-9,-7,3
1511884005205082,-4,-13,-9,-1,-55,-13,-3,-5
1511884005212073,-4,-6,-5,-28,18,5,5,-5
1511884005212073,0,0,3,20,6,-1,-2,0
1511884005228115,-2,-2,0,-13,-13,-6,-1,-3
1511884005228115,2,2,1,17,33,13,4,2
1511884005230123,-1,1,1,27,22,0,-3,0
1511884005230123,3,1,-4,-24,-19,-5,-3,-1
1511884005242154,-3,-2,-8,13,10,2,1,-4
1511884005242154,0,-5,-2,-31,3,-3,-2,1
1511884005251178,1,5,2,5,-1,-2,-5,-3
1511884005251178,0,-1,6,8,15,0,-2,1
1511884005264777,0,-11,-7,11,-4,6,6,2
1511884005264777,2,1,-5,-26,24,-3,-5,-3
1511884005273775,0,-5,-2,10,-22,-1,0,-1
1511884005273775,1,11,0,-6,-6,-7,-9,-3
1511884005288250,1,-1,0,-35,15,10,10,4
1511884005288250,-1,3,2,12,15,-3,-4,3
1511884005290135,-3,-4,-1,-4,11,4,-3,-3
1511884005290135,2,3,-2,7,0,-7,-3,-2
1511884005311323,-5,-3,-6,-30,-11,-3,-3,-3
1511884005311323,5,3,3,25,27,6,2,0
1511884005312193,4,2,5,2,12,4,10,5
1511884005312193,-1,2,-10,-24,-27,-15,-13,-5
1511884005325353,-8,-10,2,16,10,0,-3,-6
1511884005325353,2,4,3,-6,-19,-10,-8,0
1511884005332372,-2,-3,-2,-18,-8,2,0,-1
1511884005332372,3,6,5,27,10,8,8,3
1511884005348419,-3,-1,1,8,9,-1,0,0
1511884005348419,-3,-6,-7,-25,-12,-2,0,-2
1511884005350294,-3,-4,2,23,-11,-1,1,-3
1511884005350294,0,-1,0,-13,21,3,0,2
1511884005371476,3,8,0,-4,-7,-5,-2,1
1511884005371476,-1,-1,5,14,-20,1,1,0
1511884005372980,1,3,-2,-14,-2,-6,-6,-3
1511884005372980,-3,-12,-3,5,-1,3,4,0
1511884005385515,3,4,3,-4,0,1,-1,0
1511884005385515,0,0,-7,-12,-2,-8,-5,-2
1511884005392534,-1,-9,0,-2,-21,1,4,-2
1511884005392534,-1,2,2,0,-2,-1,-4,-1
1511884005408576,-1,0,-1,8,2,-8,-4,-2
1511884005408576,-3,5,1,-20,-23,2,4,-2
1511884005410587,-5,-21,-9,6,1,-5,-5,-1
1511884005410587,-4,0,-4,-27,-2,2,4,-1
1511884005430832,1,0,4,12,10,3,-4,-1
1511884005430832,1,-3,-1,-3,-1,3,4,1
1511884005432640,0,10,0,14,-3,-1,-2,-3
1511884005432640,-5,-4,0,10,-6,-7,-8,-6
1511884005445678,-1,2,-2,-1,-5,1,-1,1
1511884005445678,-1,-2,1,5,2,1,0,0
1511884005451694,-4,-14,-6,2,3,8,16,1
1511884005451694,1,1,4,21,8,-11,-19,-3
1511884005468746,2,17,3,-3,-18,-4,-3,-3
1511884005468746,-2,-25,-9,1,3,0,1,-1
1511884005470246,-2,13,2,-16,-5,1,0,-3
1511884005470246,-2,0,1,-2,-17,2,8,2
1511884005491314,-2,-12,-7,6,-5,-5,-5,-3
1511884005491314,0,1,-2,0,23,-1,-3,-2
1511884005492313,1,4,2,-9,9,-3,-4,2
1511884005492313,-1,4,2,8,0,6,4,0
1511884005504393,-1,-8,-2,-12,1,3,4,1
1511884005504393,0,1,6,10,6,-1,-2,0
1511884005513371,0,-1,1,-4,-7,-2,-2,1
1511884005513371,2,7,-6,-12,7,1,1,1
1511884005528430,-2,-8,4,21,6,2,2,-1
1511884005528430,0,5,-1,-13,-16,-1,-1,0
1511884005530416,0,-5,-1,-15,-29,3,11,1
1511884005530416,0,-2,-2,9,10,-13,-15,0
1511884005550470,1,8,3,-8,11,2,-1,4
1511884005550470,-2,-2,0,7,20,0,-2,-2
1511884005552474,3,21,9,15,14,4,1,0
1511884005552474,0,-15,-6,-13,-70,1,9,1
1511884005565012,1,-3,-4,7,17,0,1,0
1511884005565012,3,10,5,11,17,0,0,3
1511884005574036,-2,-5,-7,-10,-6,-1,-5,1
1511884005574036,-2,2,4,12,20,2,0,-1
1511884005588922,-3,-4,-4,0,-18,-4,-1,-2
1511884005588922,0,-1,-3,-33,-31,-1,1,-2
1511884005589925,1,-2,-3,-1,14,-1,-5,0
1511884005589925,2,2,3,2,3,1,0,2
1511884005610982,-1,2,2,8,-14,5,7,0
1511884005610982,-4,-6,-2,-4,11,-1,-3,-2
1511884005612987,-2,-1,-4,1,-11,-6,-7,-2
1511884005612987,0,6,4,-6,7,-3,0,0
1511884005625018,-1,-8,-2,-11,26,4,4,-2
1511884005625018,2,0,0,16,-1,-16,-12,3
1511884005634072,-3,1,-5,-22,6,5,0,-1
1511884005634072,3,5,1,0,-2,-3,4,3
1511884005648080,0,-5,-4,5,7,8,9,-1
1511884005648080,-2,-2,3,12,-14,-4,-3,-2
1511884005650086,-1,-2,-1,0,-8,-7,-8,-3
1511884005650086,2,12,5,0,32,8,8,3
1511884005671164,-7,-23,-11,-4,-40,-4,-5,-3
1511884005671164,1,0,-5,-24,-3,-4,-3,-3
1511884005672669,-1,3,1,-6,-3,-5,-1,-3
1511884005672669,-1,-5,-2,1,14,7,5,-1
1511884005684228,1,5,6,-2,-12,-5,-7,-1
1511884005684228,-2,-5,-5,-13,-16,4,1,0
1511884005693279,-1,1,0,5,1,-10,-7,-2
1511884005693279,-1,-5,-3,4,51,3,1,-2
1511884005708320,-3,4,2,1,3,0,0,-2
1511884005708320,-2,3,0,15,-14,4,0,-4
1511884005710322,3,1,-1,-9,5,1,4,2
1511884005710322,-2,-6,0,13,-3,4,1,-2
1511884005731386,2,4,-3,9,23,-2,-3,-1
1511884005731386,-3,0,1,-5,5,5,4,0
1511884005732356,0,0,1,5,21,-3,-11,-3
1511884005732356,0,-2,-2,12,-7,2,7,3
1511884005744389,1,5,2,-17,-2,-2,-2,2
1511884005744389,0,-2,-6,-3,2,-4,0,-1
1511884005753413,2,4,8,6,-16,0,2,0
1511884005753413,-2,-10,-5,15,-8,-8,-6,-4
1511884005768957,2,9,-4,-24,-2,2,-2,0
1511884005768957,-3,-5,2,15,40,10,8,-1
1511884005770488,4,2,2,2,7,-3,-6,3
1511884005770488,-1,5,-3,-17,-26,-2,-6,-4
1511884005791120,-4,-5,-4,3,-17,-7,-2,-3
1511884005791120,1,4,2,-1,8,6,4,2
1511884005792105,-3,-4,-1,32,-65,-7,3,-2
1511884005792105,0,1,0,-20,-22,0,8,2
1511884005805159,5,1,2,10,-46,-4,-3,1
1511884005805159,0,-1,1,-10,-30,-19,-11,-2
1511884005813151,0,1,-3,0,16,9,6,2
1511884005813151,-4,-20,-10,-2,4,3,1,1
1511884005828219,-2,5,4,-12,-12,-4,-2,-7
1511884005828219,-2,-3,-2,-5,1,6,3,0
1511884005830198,1,-2,3,28,20,4,5,2
1511884005830198,2,6,2,-6,5,-5,-9,-3
1511884005851253,-3,-5,-2,-18,23,1,0,3
1511884005851253,-4,-11,-5,4,-9,-11,-14,-6
1511884005852256,-1,-3,-14,-53,4,-1,2,2
1511884005852256,1,1,-1,-4,-10,2,0,-3
1511884005864841,1,1,6,10,9,1,-1,0
1511884005864841,1,-2,0,11,-5,1,4,1
1511884005873842,-4,-14,-5,-9,-8,-2,-6,-2
1511884005873842,-2,0,0,-2,7,-5,-3,-4
1511884005888004,1,2,1,2,0,3,1,0
1511884005888004,2,7,5,14,-4,3,10,4
1511884005889982,-1,-2,-10,-29,-1,-5,-6,-1
1511884005889982,-2,-1,0,-12,-2,-3,3,-1
1511884005911067,-2,1,-1,-2,21,0,-6,-2
1511884005911067,2,2,2,13,8,7,6,1
1511884005913043,-2,2,7,13,4,-17,-15,-4
1511884005913043,0,-12,-3,9,10,12,10,3
1511884005925087,-3,-2,-6,-1,7,-1,-1,0
1511884005925087,2,-2,-1,-12,10,-5,-11,-1
1511884005934123,2,14,10,31,14,3,5,-1
1511884005934123,-8,-20,-11,-31,-14,-5,-3,-2
1511884005948165,3,2,3,42,-7,2,6,1
1511884005948165,0,1,-2,-7,-11,2,-1,-2
1511884005950143,-1,2,-3,-20,10,12,6,-3
1511884005950143,1,6,2,28,0,-14,-17,0
1511884005971199,-3,-3,-6,-23,-24,-6,3,-3
1511884005971199,0,1,-7,-13,-22,2,3,-2
1511884005972704,-3,-3,4,18,-6,-4,-3,-2
1511884005972704,-1,6,2,-10,-9,4,2,-1
1511884005984797,3,3,3,13,18,0,-3,3
1511884005984797,-3,1,-6,-6,-4,-9,-8,-3
1511884005993820,-3,-16,-8,-16,-29,9,11,0
1511884005993820,-1,7,2,-8,3,-21,-19,-6
1511884006008860,-4,-10,-2,12,5,0,-3,-2
1511884006008860,1,5,5,-6,23,17,13,2
1511884006009877,-3,-4,-5,-6,-27,-7,-3,2
1511884006009877,-5,-4,-1,-19,-12,-10,-9,-6
1511884006030920,1,-7,-8,-8,-27,6,3,2
1511884006030920,0,0,4,11,-5,-15,-9,-2
1511884006032925,-3,1,-3,-14,0,9,6,-3
1511884006032925,4,4,3,7,-8,2,3,0
1511884006044956,-1,6,3,-10,13,-3,-1,-2
1511884006044956,-2,-7,-11,-16,-17,3,8,-1
1511884006053981,3,0,1,-6,-22,-9,-8,-1
1511884006053981,0,3,6,10,23,2,-5,-1
1511884006068077,1,1,2,-3,21,1,-1,2
1511884006068077,-2,3,-1,-21,3,-2,-7,-4
1511884006075065,-1,-4,3,7,-16,-1,6,3
1511884006075065,-2,-3,-6,0,6,3,2,-2
1511884006091172,4,5,7,-11,42,10,6,5
1511884006091172,7,-1,-6,31,37,10,4,7
1511884006092143,-2,6,2,-3,-24,-6,-5,-5
1511884006092143,-9,-12,-9,-40,-38,-14,-1,-3
1511884006104204,6,4,2,43,45,8,5,2
1511884006104204,6,7,11,55,50,-7,-1,1
1511884006113226,1,2,-2,11,42,6,-1,2
1511884006113226,3,12,9,30,-4,9,3,4
1511884006128239,-4,-11,-4,-15,-70,-24,-9,-8
1511884006128239,-7,-13,-7,-21,-19,7,4,-4
1511884006134256,0,-2,-3,-6,2,5,2,-2
1511884006134256,2,2,-10,-17,11,-7,-1,4
1511884006151331,2,11,15,-1,-29,-4,2,2
1511884006151331,-5,-8,-11,-5,-54,-22,-18,-8
1511884006152305,-1,0,6,24,13,7,6,-2
1511884006152305,-1,-2,1,20,-5,8,1,-2
1511884006164866,-1,3,5,19,-6,-14,-14,-4
1511884006164866,-5,-4,-3,-8,-16,5,5,-1
1511884006173863,-1,-3,-6,-32,7,-5,-4,0
1511884006173863,3,2,-1,0,21,9,8,2
1511884006187481,-8,-12,-13,-21,-15,-3,-3,-5
1511884006187481,3,7,1,-19,3,1,-3,3
1511884006194472,1,0,0,7,23,0,-4,-2
1511884006194472,-2,-2,-2,14,54,10,4,1
1511884006210515,2,7,-2,-21,-23,-13,-5,-2
1511884006210515,-4,-9,-1,0,-16,0,-4,-3
1511884006212521,-3,-3,-5,-2,-1,-6,-7,-3
1511884006212521,1,1,-7,-41,-23,-5,-2,0
1511884006224561,-2,-5,-9,29,6,16,12,2
1511884006224561,-1,8,6,14,46,8,8,0
1511884006233578,-1,-12,1,4,-12,-29,-26,-5
1511884006233578,1,5,0,-1,-10,5,0,-2
1511884006247640,-1,-3,-1,-15,0,2,1,1
1511884006247640,1,3,4,-7,18,6,0,-3
1511884006254659,-1,1,0,7,5,14,14,6
1511884006254659,0,0,3,-4,-61,-12,-5,-1
1511884006271205,1,-2,-1,23,53,9,-1,0
1511884006271205,0,-4,-3,-10,-23,-6,0,3
1511884006272709,-2,-2,-4,9,30,7,1,-2
1511884006272709,-1,1,12,36,-19,0,0,-3
1511884006293793,-2,-1,-10,-34,24,6,3,-2
1511884006293793,-4,-6,5,15,-60,-11,-8,-3
1511884006294798,2,4,5,36,4,0,3,3
1511884006294798,0,0,0,3,5,4,6,0
1511884006307828,-2,2,3,1,1,-7,-7,-4
1511884006307828,-2,4,1,-24,-20,-10,-4,-2
1511884006314982,0,-5,0,4,-1,10,4,-1
1511884006314982,3,-2,1,23,33,-1,-3,3
1511884006331014,-3,-1,2,-17,-43,-3,5,-1
1511884006331014,3,2,-1,-20,-11,-1,-1,0
1511884006332895,-1,4,-1,-1,3,0,-2,0
1511884006332895,-4,-7,-3,6,6,-2,0,-2
1511884006354005,1,6,1,0,-13,-8,-9,-4
1511884006354005,-2,-5,2,20,10,5,5,3
1511884006354953,0,1,-3,-1,29,10,10,0
1511884006354953,-1,-4,4,34,12,-2,-4,2
1511884006367997,0,-2,-4,-34,-6,-5,-8,-4
1511884006367997,-1,-1,-6,-3,13,3,1,-2
1511884006375012,-2,-3,2,-4,-18,-8,-5,-2
1511884006375012,1,2,-6,1,-5,7,9,3
1511884006390826,-2,-3,0,20,14,4,1,2
1511884006390826,-1,0,-1,2,-6,-1,0,0
1511884006392644,2,4,-1,3,-1,3,1,1
1511884006392644,-3,-4,1,-3,-16,-8,-6,-1
1511884006413826,-1,-3,-6,-20,7,-1,-2,0
1511884006413826,-1,0,2,11,42,1,-2,-2
1511884006414711,2,9,4,-1,-24,-3,-1,0
1511884006414711,-2,-15,-8,-25,2,2,3,-2
1511884006427749,0,4,-1,3,15,3,3,1
1511884006427749,-3,-4,1,-6,-9,-2,-3,-1
1511884006435770,-2,3,2,-3,-1,1,1,-1
1511884006435770,6,11,9,45,37,1,-4,1
1511884006450920,-1,-1,0,3,-14,-5,0,1
1511884006450920,2,1,-2,18,0,2,2,1
1511884006452807,-4,-5,-11,-45,-16,-10,-10,-6
1511884006452807,-4,-4,-7,-31,-25,0,3,0
1511884006473878,-1,-2,2,10,22,1,-3,-2
1511884006473878,1,1,-2,-2,-4,1,3,2
1511884006475385,0,0,3,-2,-23,-4,-3,-1
1511884006475385,0,4,-1,-12,8,-2,-4,-2
1511884006486705,-5,-5,-6,-7,5,1,3,-1
1511884006486705,0,-2,-2,-12,-17,-1,-2,-1
1511884006495765,0,-1,0,1,4,2,2,-1
1511884006495765,-1,0,8,-8,8,6,7,-2
1511884006510880,0,1,-3,6,36,6,-5,-2
1511884006510880,5,12,8,18,9,5,5,1
1511884006512774,-7,-12,-3,-8,5,-8,-4,0
1511884006512774,0,-5,5,22,-21,-2,-7,-1
1511884006533846,-2,0,-1,5,-18,2,9,0
1511884006533846,1,1,0,-5,4,-1,-4,-2
1511884006534829,4,11,5,5,6,3,3,1
1511884006534829,-3,-4,-1,2,4,1,4,0
1511884006546897,0,-4,-5,-18,-23,-4,-1,0
1511884006546897,-4,0,2,8,-1,-4,-6,-4
1511884006555882,0,-1,-1,-21,-11,-1,1,1
1511884006555882,0,0,-4,11,-6,-1,0,0
1511884006570977,-1,-3,-2,-4,-19,-5,-2,-1
1511884006570977,-1,1,2,10,26,-2,-2,0
1511884006572983,0,-6,1,10,2,3,2,-1
1511884006572983,0,4,1,13,21,3,-2,0
1511884006593634,0,0,-3,-12,-11,-3,-2,0
1511884006593634,0,-1,-2,-14,14,9,7,4
1511884006594637,-2,-7,-9,-25,-14,-18,-11,-2
1511884006594637,4,13,-3,-6,16,-5,-1,0
1511884006606669,-2,-7,1,25,28,7,-1,0
1511884006606669,-1,-2,-9,-52,-70,-10,-3,-2
1511884006615666,-2,-13,-2,7,17,7,2,0
1511884006615666,-1,6,0,-21,2,-1,3,-1
1511884006630706,-3,-5,2,-27,-24,-6,-5,-3
1511884006630706,-2,-10,-24,-43,-36,-3,-1,-3
1511884006632711,-2,2,-9,-7,-19,-17,-5,-4
1511884006632711,-2,-7,-8,-34,-54,-6,-1,-3
1511884006653794,0,2,6,5,-43,-8,-4,-2
1511884006653794,-1,0,1,11,13,0,-1,1
1511884006654784,7,9,-4,20,31,11,4,4
1511884006654784,-3,-12,0,28,47,9,1,-3
1511884006667364,2,4,-4,-14,-25,-6,3,2
1511884006667364,-4,-1,-3,-64,-51,-18,-11,-6
1511884006676395,0,-9,-19,31,77,30,9,5
1511884006676395,2,5,12,25,4,3,-1,2
1511884006690459,0,5,0,-1,0,4,2,-1
1511884006690459,-3,-3,5,10,6,-4,-3,-3
1511884006692436,2,0,4,-8,-8,0,1,-1
1511884006692436,-5,-1,-2,-22,-3,-3,-3,-1
1511884006713526,-2,-11,-4,23,19,2,1,1
1511884006713526,2,5,5,33,13,3,3,3
1511884006715528,-2,2,8,-3,-19,-8,-4,-3
1511884006715528,-1,-4,-11,-10,-3,-1,-2,-2
1511884006727557,1,6,10,11,-4,-2,-1,0
1511884006727557,-4,-5,2,14,7,1,-1,-2
1511884006735551,1,0,5,7,-7,0,0,-1
1511884006735551,-2,0,-2,-4,-6,-9,-7,-1
1511884006750625,0,1,-4,4,21,4,3,0
1511884006750625,0,-3,0,20,14,1,-2,-1
1511884006752596,-1,6,1,-10,-31,-6,5,1
1511884006752596,-10,-9,-3,-63,-37,-27,-10,-11
1511884006773712,-2,0,-3,-25,28,-12,-15,-3
1511884006773712,1,3,2,11,38,8,4,5
1511884006775186,-3,3,5,-1,-32,-8,-2,-4
1511884006775186,-1,1,9,-19,-22,-1,-2,-5
1511884006786589,6,6,3,34,22,18,20,8
1511884006786589,1,-2,-5,-43,-5,-7,-7,1
1511884006795612,-3,-3,-8,-20,1,-1,-4,0
1511884006795612,1,5,-1,24,11,10,3,3
1511884006810679,-2,-4,0,-27,-5,-4,-4,-3
1511884006810679,2,2,-1,-12,14,3,3,0
1511884006812657,5,2,1,50,23,13,8,5
1511884006812657,2,-5,-12,-6,41,12,4,6
1511884006834716,-2,2,7,13,-31,-3,-3,-1
1511884006834716,-2,0,2,6,-4,-3,0,-2
1511884006836722,-5,-11,1,-17,-8,-6,-6,-3
1511884006836722,2,1,2,6,0,-1,0,1
1511884006846775,-1,-2,-1,-1,-10,2,0,-2
1511884006846775,-2,-2,4,14,-18,-6,-4,-4
1511884006855803,-2,-2,-3,13,17,-1,-2,-1
1511884006855803,-2,3,-3,-5,-24,0,2,1
1511884006871362,-2,-4,1,-10,-6,-2,-3,-3
1511884006871362,1,-1,2,13,4,-10,-9,-2
1511884006872867,4,12,7,-3,-9,-2,4,3
1511884006872867,-6,-26,-18,-23,-30,-11,-1,-3
1511884006892939,-2,-2,-3,17,9,-4,-15,-6
1511884006892939,0,0,2,17,9,4,2,1
1511884006894925,-4,-2,-1,-16,-5,-5,-9,-6
1511884006894925,0,8,-3,-39,4,8,9,1
1511884006906979,-7,-19,-16,-48,-37,-12,-6,-1
1511884006906979,-2,0,-1,11,15,0,-1,2
1511884006915977,2,8,2,3,-8,-2,-4,-1
1511884006915977,-2,-6,-2,24,2,5,0,-2
1511884006931044,1,8,0,4,2,0,2,-2
1511884006931044,1,-9,1,4,3,2,-1,0
1511884006933045,-3,2,-3,9,-2,-1,-1,-3
1511884006933045,0,4,5,7,3,-1,-2,0
1511884006953102,2,3,2,14,8,2,2,2
1511884006953102,-2,0,-2,-22,-9,1,1,-1
1511884006955081,-2,-5,1,12,1,2,3,-1
1511884006955081,2,5,-3,64,69,4,-4,1
1511884006967616,1,2,1,-30,-2,0,1,-1
1511884006967616,1,4,6,11,1,2,6,2
1511884006976138,-4,-7,3,43,-6,2,1,-4
1511884006976138,4,11,2,5,3,5,2,4
1511884006991210,-7,-23,-7,-33,-42,-17,-9,-5
1511884006991210,-1,2,4,40,7,2,0,-1
1511884006992188,-1,-5,-3,-27,3,-3,-3,2
1511884006992188,1,4,5,14,-32,-5,-2,-1
1511884007013239,2,-3,-1,13,25,8,7,2
1511884007013239,-6,-8,-5,-29,-36,-8,-6,-6
1511884007015244,1,2,4,7,12,2,2,-1
1511884007015244,0,3,4,-2,-11,-4,-1,0
1511884007027276,1,5,-3,-5,8,1,1,3
1511884007027276,0,-5,-1,14,-11,-1,-2,-4
1511884007036314,3,7,-2,-36,-8,0,2,2
1511884007036314,0,-2,1,8,28,0,-5,-2
1511884007050337,-1,-1,-1,-4,1,0,1,-1
1511884007050337,4,8,4,8,46,9,3,2
1511884007057356,2,4,3,4,13,3,0,1
1511884007057356,-5,-4,-3,-7,-13,-4,-2,-2
1511884007073901,0,2,0,-14,-9,0,2,-2
1511884007073901,2,4,-2,3,10,3,4,4
1511884007075406,-1,-5,-2,-12,2,-4,-4,-1
1511884007075406,-2,-1,4,4,9,2,0,-3
1511884007087439,2,11,9,68,20,6,5,3
1511884007087439,-4,-13,-6,-22,-9,-1,-4,-1
1511884007096463,1,-1,-3,9,-8,-12,-5,1
1511884007096463,-3,-1,-5,-17,8,5,3,0
1511884007110500,0,-1,5,31,17,5,1,0
1511884007110500,2,2,0,3,-8,2,4,1
1511884007117519,-1,2,-5,-10,2,2,-1,0
1511884007117519,-1,-12,-1,5,-5,-5,-3,-1
1511884007133563,-2,1,-9,0,1,-1,3,2
1511884007133563,-4,-1,4,18,-1,-3,-3,-1
1511884007134565,0,12,9,19,6,-1,-3,-3
1511884007134565,-2,-10,2,-1,-2,-2,-3,-4
1511884007146597,-2,-1,-2,-6,-9,-3,-3,-2
1511884007146597,0,1,-2,-6,-1,-1,-1,0
1511884007155622,-4,-10,0,-7,-7,-2,1,0
1511884007155622,5,6,5,24,-6,-2,0,-1
1511884007170665,-1,-5,-7,-24,-43,-5,-4,-1
1511884007170665,1,1,-5,-23,2,-4,-3,0
1511884007176682,-2,1,4,12,-10,0,0,-1
1511884007176682,-1,2,-5,-32,-3,3,2,1
1511884007193756,1,5,4,8,14,4,2,-1
1511884007193756,2,-4,-5,3,-7,1,4,0
1511884007195756,-2,-7,-7,-13,2,1,-7,-3
1511884007195756,0,1,3,-10,-24,-14,-11,-2
1511884007215813,0,4,-1,29,40,3,-2,-1
1511884007215813,-2,2,1,-1,11,4,3,1
1511884007217819,0,-4,-4,-2,17,0,1,-1
1511884007217819,-1,2,-9,-27,-14,1,4,3
1511884007229847,-1,2,4,-4,4,-3,-3,1
1511884007229847,-5,-6,0,4,-15,-3,-5,-6
1511884007236869,1,-4,-9,-20,28,7,6,0
1511884007236869,2,1,-2,5,-10,-4,-2,0
1511884007253887,-5,-9,-6,-18,-7,1,3,-2
1511884007253887,-1,0,-3,20,-4,1,-1,-2
1511884007254896,0,0,4,-28,-14,-2,0,-2
1511884007254896,-2,1,0,12,-1,-1,-1,-2
1511884007275949,0,-1,2,-20,1,2,0,3
1511884007275949,1,0,-1,19,12,0,1,0
1511884007277468,-1,0,1,6,-3,-5,-6,-2
1511884007277468,0,6,5,9,5,5,3,-1
1511884007290540,0,-1,5,12,-14,-4,-3,-2
1511884007290540,-2,0,-4,-25,-11,-4,3,-2
1511884007297580,1,-12,-7,9,-1,-5,-5,2
1511884007297580,-3,-4,2,6,12,2,0,-2
1511884007313582,-3,-1,-1,3,8,8,10,-1
1511884007313582,3,6,0,-2,4,-6,-7,1
1511884007315574,-2,-4,-5,-11,-10,-3,1,-2
1511884007315574,1,2,-4,12,3,2,0,1
1511884007335628,0,-4,2,-7,-1,-4,-4,0
1511884007335628,-1,-5,0,8,8,5,6,1
1511884007337663,-3,7,0,-7,-14,-1,-4,-4
1511884007337663,2,2,3,-3,5,1,1,2
1511884007349702,0,1,-3,-10,12,5,5,0
1511884007349702,0,-1,-1,3,1,-7,-8,-1
1511884007358687,0,-2,6,21,15,4,5,0
1511884007358687,-2,-1,-1,-10,-18,-2,3,1
1511884007373791,0,-1,-2,0,17,-11,-11,0
1511884007373791,-2,-2,-1,-8,-3,1,2,-2
1511884007375280,-1,0,-1,-5,-7,2,0,-1
1511884007375280,0,-1,-3,9,12,-4,-5,-1
1511884007395868,0,-3,0,16,-14,3,0,0
1511884007395868,1,-2,2,-15,1,-2,-1,-1
1511884007397850,1,2,-5,-1,-5,8,14,0
1511884007397850,-2,-3,3,-7,-9,-13,-22,-5
1511884007409869,-2,-1,1,5,-4,0,0,-4
1511884007409869,1,1,0,-5,0,0,-1,1
1511884007416924,-3,-1,7,11,-9,5,8,1
1511884007416924,-1,-2,-4,-28,-6,-9,-11,-2
1511884007433948,0,1,-3,-1,32,4,1,0
1511884007433948,1,5,8,25,-1,-6,-5,2
1511884007434934,-3,-2,5,-1,-6,0,-1,-1
1511884007434934,1,-3,-8,-9,7,3,10,3
1511884007456100,-1,3,6,0,-11,1,4,-3
1511884007456100,-7,-7,-17,-22,-6,8,1,-2
1511884007458019,0,0,-8,11,1,-18,-17,-3
1511884007458019,-2,-1,-1,3,-1,-11,-12,-2
1511884007470562,5,-1,-4,3,0,4,5,6
1511884007470562,-2,-3,4,5,11,8,9,-3
1511884007477657,2,1,4,1,-3,5,3,-1
1511884007477657,-1,0,-11,-38,7,12,-1,-1
1511884007493679,4,6,2,35,-16,-10,1,5
1511884007493679,-6,-8,-3,-20,-1,0,7,-3
1511884007494684,2,1,7,72,-3,-9,-22,-4
1511884007494684,1,3,19,-87,-3,12,21,6
1511884007515789,1,-3,-17,-7,-4,1,0,-1
1511884007515789,5,6,0,27,-6,-20,-12,2
1511884007517775,-5,-5,-13,45,21,10,8,-3
1511884007517775,-8,-12,-22,-60,-26,-20,-12,-11
1511884007529817,2,3,8,-7,1,1,-3,1
1511884007529817,-5,-3,3,3,-2,8,0,-2
1511884007538796,2,-2,-21,-29,-2,-3,18,5
1511884007538796,-1,0,5,51,7,-11,-18,-4
1511884007553870,2,1,5,9,-15,-1,-3,-2
1511884007553870,-3,-6,-13,-39,-2,-6,-8,-5
1511884007554840,2,2,14,-23,-17,9,3,2
1511884007554840,4,4,-5,31,11,13,10,1
1511884007575895,-5,-6,-3,-24,-9,-6,-6,-4
1511884007575895,2,2,5,13,2,7,5,4
1511884007577415,-3,-1,-1,-35,6,-3,-5,-5
1511884007577415,1,1,8,29,7,5,7,-1
1511884007590476,-3,-2,-7,-12,23,0,-4,-2
1511884007590476,0,-1,0,-8,-15,-3,-2,-2
1511884007597492,-3,-4,-5,-18,-20,-5,-3,1
1511884007597492,1,-1,-1,22,-18,-1,2,1
1511884007613537,-2,-2,-1,-10,3,6,-1,1
1511884007613537,0,0,-5,-3,4,1,-1,-1
1511884007615543,1,1,8,-8,-7,-9,-5,1
1511884007615543,1,2,6,33,-3,5,7,0
1511884007635570,-4,-3,0,13,-15,-6,-4,-3
1511884007635570,2,2,2,-1,-9,-5,-4,-1
1511884007637574,3,4,4,3,6,-1,-1,1
1511884007637574,-3,-4,-4,1,2,1,2,-1
1511884007650632,-4,0,2,-14,-7,-6,-6,-6
1511884007650632,1,0,3,7,5,-1,0,1
1511884007656648,0,-6,-11,-15,14,11,4,2
1511884007656648,-2,-4,2,16,4,-2,0,-1
1511884007673696,4,2,-6,-8,-3,-2,-2,1
1511884007673696,-2,-2,-4,-4,-5,-5,-5,-3
1511884007675199,-3,-2,-6,-8,10,-2,-3,-2
1511884007675199,-2,-2,18,9,-5,-1,-1,0
1511884007696377,-1,-5,-20,-1,2,2,2,-1
1511884007696377,2,5,9,23,30,12,2,1
1511884007697356,1,0,-9,3,-29,-2,-2,1
1511884007697356,-1,3,-1,-10,27,-8,-3,-3
1511884007709416,5,20,14,51,6,-9,-2,2
1511884007709416,-2,-24,-17,-19,24,18,8,6
1511884007718412,-8,0,-6,-16,-43,-10,-9,-10
1511884007718412,0,3,0,-16,16,18,5,-2
1511884007733479,16,89,30,21,3,-3,6,5
1511884007733479,-2,-29,-17,-9,-13,-23,-19,-8
1511884007735459,-7,-45,-10,84,43,11,12,9
1511884007735459,-23,-81,-57,-56,-46,-16,2,-2
1511884007757515,25,80,69,58,3,-8,-4,2
1511884007757515,-3,-61,-42,-84,15,2,16,7
1511884007758542,-24,-16,15,51,5,1,-25,-16
1511884007758542,0,38,-3,2,-6,17,-7,-8
1511884007769549,-2,15,3,-24,-10,-10,-19,-10
1511884007769549,14,60,15,-108,-40,-34,-1,3
1511884007778575,18,3,34,84,43,11,26,17
1511884007778575,18,57,31,14,1,-12,24,17
1511884007792619,-42,-119,-48,-17,-15,-20,-36,-20
1511884007792619,-6,54,-20,-7,-12,48,-16,-20
1511884007799661,-5,-21,-39,-98,-16,-2,4,0
1511884007799661,15,40,24,49,17,-5,7,13
1511884007815703,8,-17,-1,-29,24,40,52,24
1511884007815703,-13,-28,5,73,-80,-81,-25,-10
1511884007817679,-1,7,-1,-1,45,-15,-17,-12
1511884007817679,11,-4,-22,-98,-9,16,11,9
1511884007829738,-20,-32,-25,6,4,34,-27,-22
1511884007829738,3,7,12,94,31,41,27,16
1511884007838735,13,30,12,-36,-14,45,16,11
1511884007838735,-11,-6,14,62,8,-50,-25,-17
1511884007853802,2,-22,-29,41,-15,10,4,0
1511884007853802,-6,-34,-45,8,31,27,0,-6
1511884007854777,14,28,22,-90,-42,-5,6,8
1511884007854777,-1,-2,4,81,46,44,11,-1
1511884007876339,0,-7,-7,-63,11,6,14,7
1511884007876339,2,12,-3,-57,-57,-82,-43,-20
1511884007877845,1,-9,-14,35,29,30,5,0
