timestamp,emg1,emg2,emg3,emg4,emg5,emg6,emg7,emg8
1512354116522839,-1,1,1,1,0,-14,-29,3
1512354116522839,-3,-2,-1,-5,-13,3,1,-5
1512354116527839,2,0,-2,0,21,-7,-18,1
1512354116527839,3,1,-1,1,-4,27,74,15
1512354116528839,-2,-1,-1,-3,-6,-6,-36,-9
1512354116528839,-2,-1,-1,1,-1,-12,-8,-5
1512354116530839,-1,0,-1,-4,-3,12,9,2
1512354116530839,-1,-1,1,0,-2,-7,-26,-8
1512354116540839,1,-1,0,-1,6,8,30,23
1512354116540839,-2,-2,-2,-1,-3,-6,-2,-1
1512354116552839,-3,-1,-2,1,-2,-8,-20,-10
1512354116552839,0,-1,-2,-10,-17,-10,-15,1
1512354116555839,-3,0,-1,0,1,23,26,-5
1512354116555839,-1,1,1,0,4,-4,-2,2
1512354116572839,-1,-1,0,1,-1,-1,5,1
1512354116572839,-3,-4,-2,2,4,-1,-13,-8
1512354116579839,1,1,0,0,0,-12,3,1
1512354116579839,1,0,-1,-1,-8,6,2,1
1512354116601839,-2,-1,0,0,2,3,1,-4
1512354116601839,0,-2,0,-1,-2,-10,-1,-2
1512354116602839,2,-3,-1,-2,4,-5,-4,-3
1512354116602839,2,0,1,5,1,6,1,3
1512354116615839,0,-3,-2,-3,-11,-7,5,4
1512354116615839,-3,-1,-1,-11,-18,-5,-13,-4
1512354116657839,1,1,2,0,8,0,11,9
1512354116657839,-1,-1,0,4,15,1,-14,-7
1512354116658839,0,0,-2,-8,-14,11,19,12
1512354116658839,2,-2,-3,-3,-4,-19,3,-3
1512354116661839,-1,2,1,1,-5,1,-31,-15
1512354116661839,0,0,-2,-3,-13,2,20,11
1512354116662839,-3,-2,-2,-1,3,-10,-9,-4
1512354116662839,-1,-1,-1,3,8,16,7,1
1512354116668839,0,-2,-5,-9,-17,-2,6,3
1512354116668839,0,-2,-2,-5,-11,-5,-8,-3
1512354116675839,2,-1,1,7,20,21,44,1
1512354116675839,-1,0,-1,-6,-17,-4,-5,1
1512354116691839,-2,-2,-3,0,-1,-8,-7,-3
1512354116691839,2,2,0,2,7,24,6,1
1512354116698839,-2,-1,0,-1,1,-9,-9,2
1512354116698839,-1,1,-1,2,6,-1,-4,-1
1512354116706839,-1,0,-1,2,-2,2,11,1
1512354116706839,-1,-1,-2,-1,-5,-16,-15,0
1512354116729839,-1,-1,-2,-1,-1,-10,-17,-7
1512354116729839,0,0,2,-6,-7,3,0,-3
1512354116730839,-2,-2,-1,8,3,-14,-4,1
1512354116730839,-2,1,1,1,5,13,-2,-2
1512354116743839,0,0,-1,-1,-6,1,-3,-3
1512354116743839,0,0,-2,-2,7,10,6,0
1512354116751839,0,-1,1,-1,2,-6,5,2
1512354116751839,-2,-2,-1,-3,-4,-4,2,-5
1512354116767839,-1,2,0,5,-2,-8,-3,10
1512354116767839,0,-1,-2,-2,1,-1,1,1
1512354116767839,0,-1,0,-2,2,5,1,0
1512354116767839,-2,-4,-1,0,5,-7,-1,-4
1512354116796839,-3,-2,-2,-1,11,3,-12,-17
1512354116796839,0,-1,1,-2,-17,-4,1,11
1512354116797839,0,0,-3,-1,-2,2,-4,-5
1512354116797839,-1,-1,1,-3,-4,-8,1,0
1512354116804839,-1,-2,-1,-3,0,3,-2,-2
1512354116804839,-3,-1,-1,8,15,-2,-9,-6
1512354116811839,-1,-2,0,0,0,3,1,0
1512354116811839,1,0,-2,-2,-4,0,4,1
1512354116827839,-1,1,0,2,-4,-2,-1,-2
1512354116827839,-1,-1,-2,-2,-3,-3,-4,-5
1512354116828839,1,0,1,-4,-9,2,2,12
1512354116828839,-2,-2,-2,14,37,-7,-6,-5
1512354116849839,0,0,1,-10,-16,-3,-4,1
1512354116849839,1,0,0,1,-1,0,0,11
1512354116851839,0,-2,-1,4,17,-1,-1,-5
1512354116851839,0,1,-1,-8,-12,-6,2,4
1512354116863839,1,1,-1,3,1,7,-1,-7
1512354116863839,0,0,-1,-3,-17,-3,4,1
1512354116872839,-1,0,-1,-2,17,4,3,-3
1512354116872839,-1,0,-2,-6,-18,-8,-5,2
1512354116887839,0,-2,-1,-1,1,-5,-2,-2
1512354116887839,-1,-1,0,1,7,1,-1,3
1512354116888839,-4,4,-3,-5,-10,7,-2,-2
1512354116888839,-1,-8,1,2,-6,3,4,2
1512354116909839,1,0,-3,1,1,-4,-2,1
1512354116909839,-1,-2,-3,-1,9,-2,-3,-5
1512354116911839,0,-2,-2,-4,-7,-3,-1,-1
1512354116911839,-1,6,2,-8,-19,2,4,6
1512354116933839,1,-1,1,-2,1,-1,-3,0
1512354116933839,-2,-1,0,-4,-1,-2,-2,-4
1512354116935839,0,-3,-1,2,5,2,1,2
1512354116935839,2,-1,-1,1,-14,-1,-1,-2
1512354116947839,-2,-2,1,1,7,-1,-4,-2
1512354116947839,3,1,-2,1,16,6,0,5
1512354116948839,0,0,1,-7,-28,1,2,-4
1512354116948839,-3,-5,-6,9,37,3,0,12
1512354116969839,2,0,-2,-12,-20,2,6,10
1512354116969839,-6,0,-3,5,5,-7,-6,-14
1512354116971839,1,-2,-1,-1,5,3,1,8
1512354116971839,1,1,2,0,-10,-2,-5,-11
1512354116983839,1,2,-3,-5,-11,-3,0,4
1512354116983839,-1,0,3,2,-4,-3,0,-4
1512354116992839,-1,5,7,3,8,-2,-1,-2
1512354116992839,-1,5,0,-1,-6,0,-2,-2
1512354117006839,-4,-10,-5,6,10,-4,-3,-1
1512354117006839,0,0,1,-7,-25,-12,0,-3
1512354117013839,-2,-3,15,12,10,3,-1,-2
1512354117013839,2,5,-9,-4,0,-1,1,-5
1512354117029839,-1,3,-2,-2,-6,-1,0,-2
1512354117029839,1,2,7,9,6,1,-3,-2
1512354117031839,7,0,-3,-5,-6,-3,6,22
1512354117031839,-1,3,4,-6,-3,0,0,-4
1512354117052839,-5,-11,-6,-5,2,-2,-2,-1
1512354117052839,0,2,-5,5,16,6,2,0
1512354117053839,-1,4,17,2,-29,-7,-5,-7
1512354117053839,3,4,3,-1,0,-6,1,9
1512354117065839,4,15,13,4,37,18,3,-1
1512354117065839,-10,-34,-27,-7,2,-4,-2,0
1512354117074839,-6,-15,-46,9,40,1,-1,-6
1512354117074839,-1,-9,-7,-9,-13,-6,-5,-3
1512354117089839,1,7,8,-2,-9,-10,1,-1
1512354117089839,-2,3,6,-4,-12,-5,-4,-7
1512354117091839,-2,4,9,1,-8,3,1,1
1512354117091839,-5,-13,-9,2,1,1,-1,-3
1512354117112839,1,5,0,-5,-14,-7,-6,-3
1512354117112839,6,21,42,9,13,26,8,15
1512354117113839,-10,-32,-56,-15,-27,-10,-4,-13
1512354117113839,5,4,1,5,10,6,3,5
1512354117125839,-3,-5,-1,7,4,-3,-3,-3
1512354117125839,-1,-1,-3,-6,-38,-9,1,-2
1512354117134839,4,14,27,-5,-35,-4,-4,-2
1512354117134839,-3,2,5,9,13,-5,-3,-5
1512354117149839,-2,0,35,7,11,1,-1,-2
1512354117149839,0,2,-34,1,8,0,0,1
1512354117151839,-1,-5,0,-6,3,-6,-1,-1
1512354117151839,-1,0,1,-8,-11,10,3,-1
1512354117172839,1,0,-4,4,-35,-8,-1,0
1512354117172839,0,10,22,4,-1,-7,-5,-4
1512354117173839,-1,2,4,1,22,1,-1,-1
1512354117173839,-1,-6,-9,-2,7,-6,-3,-3
1512354117185839,-3,-2,-5,0,5,22,7,4
1512354117185839,-3,-8,-7,-9,-30,-10,-4,-11
1512354117194839,3,6,3,2,30,-3,0,4
1512354117194839,-1,-1,6,10,14,4,0,-2
1512354117209839,0,-3,-9,0,8,-7,-5,0
1512354117209839,0,-5,-8,-3,2,1,0,1
1512354117211839,1,2,5,-1,-6,-5,-1,0
1512354117211839,-1,4,8,6,11,1,0,-2
1512354117232839,0,0,-4,1,-12,-11,1,3
1512354117232839,-1,-5,-6,-6,-22,-7,-2,0
1512354117233839,-1,3,7,-1,-10,3,0,-3
1512354117233839,-3,-2,-1,-5,11,5,2,1
1512354117245839,-2,-7,-14,-1,6,-2,-2,-3
1512354117245839,2,0,3,-1,5,1,-3,5
1512354117254839,1,2,1,-1,-5,-2,2,-3
1512354117254839,-1,-2,-2,4,-17,-8,2,1
1512354117269839,2,0,-3,-8,-17,-2,0,9
1512354117269839,-2,1,-1,-1,35,5,-3,-1
1512354117271839,1,0,4,11,2,1,-4,0
1512354117271839,0,0,-2,-6,-11,-4,-1,-3
1512354117292839,-1,-2,-3,-1,3,-1,-2,-10
1512354117292839,0,0,-3,-9,-20,4,6,9
1512354117293839,-3,0,-3,-6,-32,-11,-5,-3
1512354117293839,1,-1,3,2,43,8,2,-1
1512354117305839,-2,-3,-5,0,-8,7,1,-1
1512354117305839,0,-1,-3,-5,-7,-6,3,-4
1512354117314839,1,2,3,3,7,-7,-11,1
1512354117314839,1,4,5,10,5,1,0,3
1512354117329839,-2,-4,-8,-6,6,-4,-5,-2
1512354117329839,-1,-4,-2,6,20,4,5,-4
1512354117331839,-3,0,2,-4,-1,2,2,-6
1512354117331839,-1,-1,1,12,11,1,-1,1
1512354117352839,1,1,0,2,45,7,-1,2
1512354117352839,-1,1,3,2,-6,-2,-4,-2
1512354117353839,1,1,0,-6,-23,0,2,2
1512354117353839,-4,-5,-6,-6,-6,0,-2,-5
1512354117365839,-1,0,8,-4,-6,-8,-2,1
1512354117365839,0,6,-2,9,-9,-1,5,16
1512354117374839,0,-11,-17,-4,54,13,-5,2
1512354117374839,2,2,2,-13,-37,-8,5,1
1512354117389839,-1,-1,1,10,1,10,3,1
1512354117389839,-4,-1,7,-2,6,-24,-6,-11
1512354117391839,3,6,4,1,-1,-6,1,18
1512354117391839,3,6,6,2,11,3,0,0
1512354117412839,-4,-10,-13,-3,-19,-3,-4,-6
1512354117412839,-3,-10,-15,2,16,10,0,-6
1512354117413839,2,6,7,-8,-26,0,3,-1
1512354117413839,-4,-4,-3,1,30,8,-12,-9
1512354117425839,0,3,0,-7,-28,-17,-4,-4
1512354117425839,-1,4,6,5,17,10,-6,-1
1512354117434839,-3,4,14,-6,-32,16,16,3
1512354117434839,-4,-19,-33,13,35,-11,-6,-5
1512354117449839,1,4,5,2,39,5,4,-11
1512354117449839,3,-3,-8,-8,-8,2,1,3
1512354117451839,-4,-2,3,3,29,8,-7,-19
1512354117451839,3,7,8,-4,-28,-27,4,11
1512354117471839,-2,-1,-1,-9,-5,22,-10,-3
1512354117471839,-1,-5,-9,-1,-12,-15,-2,3
1512354117473839,-3,-4,-8,0,25,14,3,-6
1512354117473839,0,1,6,-9,-16,-5,3,0
1512354117485839,-1,4,23,23,4,-10,-4,3
1512354117485839,-3,-10,-30,-13,-17,-14,2,5
1512354117494839,-2,-1,9,1,-1,-5,-4,-5
1512354117494839,-1,1,-22,-10,-8,6,-1,-4
1512354117509839,-4,-13,6,5,-9,-21,-5,3
1512354117509839,2,5,10,-5,48,21,0,1
1512354117511839,-5,-5,-9,11,-28,-12,-4,1
1512354117511839,4,-3,-1,-14,-44,1,9,4
1512354117532839,4,17,18,2,-21,2,4,5
1512354117532839,-5,-17,-24,-10,-42,-11,-1,-10
1512354117533839,4,3,-1,-10,-3,-7,-3,15
1512354117533839,-2,9,33,-1,-17,19,9,6
1512354117545839,5,7,-32,-2,20,-1,-1,3
1512354117545839,-1,-4,18,10,6,-9,-1,0
1512354117554839,-3,2,-5,-6,-7,21,3,2
1512354117554839,-4,-14,-33,-6,-22,-24,-8,-4
1512354117569839,0,2,5,-8,-18,-13,0,-3
1512354117569839,1,13,28,9,-1,11,-1,2
1512354117571839,1,-1,-3,17,-1,-39,5,0
1512354117571839,6,10,20,-19,53,8,-6,-3
1512354117592839,0,-3,-7,1,43,5,1,0
1512354117592839,0,-1,-4,2,17,10,2,3
1512354117593839,-1,-3,4,2,34,0,-2,-6
1512354117593839,-3,-7,-6,23,6,2,-2,-1
1512354117605839,-4,-5,-4,-4,-8,-5,3,0
1512354117605839,4,8,20,3,-15,-3,-1,3
1512354117614839,0,-2,-12,11,5,-3,-3,-1
1512354117614839,2,4,14,0,14,12,-2,0
1512354117637839,-4,-11,-20,1,33,11,1,1
1512354117637839,-3,3,9,25,49,8,-2,-4
1512354117638839,2,4,21,-12,-19,16,5,1
1512354117638839,2,-3,-24,-19,-23,-19,-5,4
1512354117651839,2,3,4,-16,-94,-11,-2,-2
1512354117651839,-2,-1,-12,-16,-30,-6,2,-1
1512354117658839,5,6,30,20,11,1,-1,2
1512354117658839,-4,-9,-41,14,35,-11,-3,-5
1512354117674839,-2,-2,4,5,-1,-6,2,0
1512354117674839,0,-4,11,17,5,2,2,6
1512354117676839,-4,-3,-16,-29,-27,6,-2,-5
1512354117676839,-2,7,16,-24,-31,-4,0,-5
1512354117704839,0,-1,0,0,10,0,0,2
1512354117704839,-1,0,-13,-12,-14,-8,-11,-10
1512354117706839,0,-4,11,40,31,-1,-1,1
1512354117706839,-1,-2,17,10,-19,5,-1,1
1512354117711839,-2,-9,-29,-20,17,1,3,-3
1512354117711839,0,9,28,22,27,6,3,-3
1512354117718839,-4,-10,-35,-32,-9,-16,-5,-9
1512354117718839,0,0,10,0,-31,-9,0,15
1512354117734839,-2,-2,7,5,-21,16,4,-1
1512354117734839,4,1,0,4,-12,-5,-2,4
1512354117736839,0,-2,-3,6,5,-3,-4,-1
1512354117736839,-6,-5,3,15,-28,6,-5,-5
1512354117757839,2,2,4,-7,-12,-11,-3,2
1512354117757839,7,8,-31,-85,-29,-6,6,1
1512354117758839,-4,-2,-5,-22,-4,-1,0,0
1512354117758839,-2,-1,5,15,-5,3,3,-3
1512354117770839,-5,-4,5,32,-14,-5,-4,-3
1512354117770839,-3,-4,5,17,2,19,3,-1
1512354117779839,-3,-2,6,11,-20,-28,-9,-1
1512354117779839,-3,0,-14,-42,-37,51,12,-8
1512354117794839,0,-7,-3,9,26,-6,-5,1
1512354117794839,-6,-7,-5,9,35,-5,-4,-9
1512354117796839,1,-2,-5,2,12,0,2,10
1512354117796839,1,1,7,14,26,8,3,-3
1512354117817839,1,4,2,-8,-4,2,0,-4
1512354117817839,1,0,-1,-4,-6,3,-5,9
1512354117818839,-2,-4,-1,23,29,0,1,-6
1512354117818839,3,5,12,-3,-2,-19,-5,0
1512354117830839,1,1,-15,-15,16,-3,-3,-6
1512354117830839,-2,-4,-2,-1,-12,-7,1,6
1512354117839839,1,1,10,39,-21,6,3,-1
1512354117839839,1,3,-9,-37,18,-10,-7,-1
1512354117854839,0,1,6,-8,6,3,0,-1
1512354117854839,-2,0,1,-6,-14,-4,0,0
1512354117856839,1,1,-7,-6,-5,-3,1,-3
1512354117856839,-4,-4,3,14,0,1,0,-3
1512354117877839,-3,-1,4,7,18,0,4,4
1512354117877839,1,0,-1,2,5,-1,1,-1
1512354117878839,-2,1,1,-7,-16,-8,-1,-2
1512354117878839,2,0,-1,8,16,5,-6,0
1512354117890839,2,0,-5,-9,9,17,6,2
1512354117890839,3,0,3,5,-27,-7,-6,-3
1512354117899839,-1,-1,-6,-15,21,3,-2,-8
1512354117899839,0,-2,2,10,7,-11,4,10
1512354117914839,-3,-1,1,2,0,1,-7,-11
1512354117914839,3,-1,3,2,4,-10,0,4
1512354117916839,-2,-2,-5,-11,-5,-7,-6,-10
1512354117916839,0,1,0,6,-3,-4,-1,-2
1512354117937839,-3,-1,2,1,-10,2,1,2
1512354117937839,-4,-2,-2,0,8,-3,-3,-5
1512354117938839,-1,-1,1,-2,-30,-9,-8,-1
1512354117938839,2,-1,-3,-11,16,8,2,2
1512354117950839,1,0,-3,-3,-8,-6,1,-1
1512354117950839,-2,-1,-1,3,11,1,0,-4
1512354117959839,0,-1,-4,-8,-23,-5,0,5
1512354117959839,-2,-2,2,2,-11,8,-3,-9
1512354117981839,3,0,-1,-4,-10,7,8,8
1512354117981839,-3,-1,-4,-8,-7,4,-2,-5
1512354117983839,0,1,1,4,19,0,1,5
1512354117983839,0,-1,-2,5,-7,-10,-4,-9
1512354117996839,-3,-1,2,4,4,7,-1,-8
1512354117996839,0,-2,-2,0,-8,-14,-4,3
1512354117998839,-4,-1,-3,-1,6,12,1,-4
1512354117998839,0,1,0,0,14,-3,1,-1
1512354118010839,-2,0,-1,0,-13,-2,-4,-2
1512354118010839,-2,-1,0,-1,-1,-2,-3,-5
1512354118019839,4,-1,-4,-3,15,12,2,8
1512354118019839,-1,0,-1,-1,-3,-6,0,2
1512354118034839,-2,-1,2,2,2,-23,-6,-5
1512354118034839,1,0,-2,-3,7,22,6,2
1512354118036839,1,-1,-3,-14,4,-5,1,1
1512354118036839,0,-1,-4,-11,-22,16,3,2
1512354118057839,0,-2,-1,0,9,-5,-1,7
1512354118057839,-2,-1,-1,7,-2,-11,-1,-2
1512354118058839,-4,-3,-4,-5,-1,10,-3,-3
1512354118058839,0,-2,1,7,19,8,6,2
1512354118070839,1,2,1,-7,-33,-21,-11,-7
1512354118070839,-2,-3,0,7,4,2,1,-5
1512354118079839,1,-1,0,2,17,12,4,10
1512354118079839,-3,-1,0,4,1,-20,-2,1
1512354118094839,3,2,-2,-6,5,-3,-1,10
1512354118094839,0,-1,2,6,-4,-9,-2,-3
1512354118096839,3,5,0,-11,-9,6,0,-3
1512354118096839,-1,-2,-2,1,-5,3,-1,2
1512354118116839,1,-1,-3,-12,-4,1,-3,2
1512354118116839,1,-1,9,17,6,3,3,2
1512354118118839,-3,-3,-5,4,-2,-12,-3,-8
1512354118118839,-2,1,-3,-9,-10,-14,1,8
1512354118130839,-4,3,1,4,1,0,1,-5
1512354118130839,-4,-6,-9,-16,-5,2,-6,-5
1512354118139839,2,-2,4,12,13,3,2,-1
1512354118139839,0,0,3,5,1,-12,-4,-4
1512354118154839,-1,-1,-1,7,32,10,-4,-4
1512354118154839,-1,3,-4,-7,11,-7,-1,3
1512354118156839,-2,0,2,2,17,5,4,-2
1512354118156839,-3,-1,1,5,3,-3,-10,-15
1512354118177839,2,-1,4,8,-7,7,6,25
1512354118177839,-2,-1,-1,-1,-8,7,-1,-10
1512354118178839,1,4,6,-10,-32,-23,-1,3
1512354118178839,-4,-9,-13,2,-2,-10,-3,-3
1512354118190839,3,2,-6,-10,-1,-6,2,-2
1512354118190839,-3,-7,-6,3,-22,14,0,-2
1512354118199839,-1,1,0,-13,-14,1,-4,2
1512354118199839,4,9,14,12,16,-4,0,2
1512354118214839,-4,-4,-1,5,-12,22,0,-7
1512354118214839,1,4,2,-8,-3,-4,-12,-2
1512354118216839,-1,-4,-2,-8,-14,-6,12,1
1512354118216839,-2,-1,-2,-18,-6,15,-5,0
1512354118237839,-1,3,8,8,-6,-12,-5,-11
1512354118237839,4,5,1,-1,38,2,5,11
1512354118238839,0,-2,-6,0,-3,-2,-3,-5
1512354118238839,-2,-1,0,4,10,-7,0,1
1512354118250839,-1,-4,1,-7,-1,1,0,-5
1512354118250839,-4,-2,-1,8,-6,-11,-2,-5
1512354118259839,2,1,4,1,-22,7,-5,-6
1512354118259839,0,0,9,-2,31,8,5,3
1512354118274839,-1,-2,-14,-6,-22,-6,-5,-2
1512354118274839,-4,-7,-11,-11,2,-6,0,1
1512354118276839,4,10,10,-13,9,-5,-1,8
1512354118276839,1,-4,-7,7,-10,5,-1,-9
1512354118296839,-3,-7,3,5,-1,-11,1,10
1512354118296839,2,6,2,-8,-1,-11,1,0
1512354118298839,0,0,-11,-4,9,17,-6,-5
1512354118298839,0,3,-2,-5,-27,-7,-6,-2
1512354118310839,1,-4,4,7,30,-6,5,10
1512354118310839,-1,-2,0,16,-4,4,5,0
1512354118319839,0,-1,-2,-15,5,4,2,-1
1512354118319839,-1,7,27,-17,-12,-5,-2,1
1512354118333839,-5,-4,-32,2,-7,8,-4,-13
1512354118333839,0,0,4,-7,3,7,5,7
1512354118340839,3,-1,-4,2,22,-15,-1,6
1512354118340839,-2,-4,-13,-11,21,-6,-3,-2
1512354118357839,0,8,38,5,-8,-6,4,1
1512354118357839,0,-1,-15,-6,-16,-4,-1,-2
1512354118358839,-8,-6,-2,14,7,0,-5,-13
1512354118358839,5,14,9,-13,-31,-6,2,8
1512354118370839,1,1,11,23,40,2,-6,-6
1512354118370839,2,-2,-16,-26,-15,-13,3,6
1512354118379839,-4,-8,12,11,-27,22,4,-2
1512354118379839,-1,-5,-13,5,-18,-4,3,3
1512354118393839,3,15,16,-21,0,3,-2,0
1512354118393839,-1,-2,0,11,-6,3,-3,-3
1512354118400839,-8,-15,-17,-18,-41,-23,-2,0
1512354118400839,-2,2,13,29,37,24,2,-4
1512354118416839,0,-7,-11,2,-31,-10,-5,-2
1512354118416839,3,2,0,-12,19,2,1,-2
1512354118418839,1,0,1,7,6,3,0,5
1512354118418839,-3,-8,-4,7,-16,-8,-7,-7
1512354118439839,-2,-4,-4,-15,-22,-3,6,6
1512354118439839,2,5,-2,16,9,6,2,8
1512354118441839,-3,-9,-13,4,17,-4,-5,-3
1512354118441839,1,-3,-8,-4,-5,-11,4,4
1512354118453839,-1,-5,-11,2,23,16,5,-3
1512354118453839,3,10,25,-3,-6,-9,-4,-1
1512354118460839,-3,6,1,1,14,11,-5,-5
1512354118460839,-5,-15,-6,4,5,-6,7,16
1512354118477839,1,-4,-11,-6,-5,-6,-4,-4
1512354118477839,-6,-6,-2,-6,-8,-3,0,-2
1512354118478839,3,22,47,18,12,-1,-3,-7
1512354118478839,-3,-20,-46,-7,-1,7,2,1
1512354118499839,-1,-2,1,2,-6,0,2,-4
1512354118499839,-3,-1,1,-4,2,7,-2,-1
1512354118501839,-1,-5,-12,-11,-7,-15,0,2
1512354118501839,2,13,28,2,-1,3,-1,-4
1512354118513839,-1,2,-12,-1,-32,5,-2,-2
1512354118513839,-6,-22,-16,-1,61,3,-3,-3
1512354118520839,2,8,8,-2,-9,-6,0,2
1512354118520839,0,-4,-7,-8,-5,-3,0,-2
1512354118537839,-1,3,-5,-5,1,-2,-1,1
1512354118537839,1,21,72,11,-16,4,-2,-9
1512354118538839,-6,-32,-79,-2,-10,-7,-2,0
1512354118538839,2,7,7,-12,10,-4,0,3
1512354118559839,-3,-5,-5,-7,-4,24,1,-1
1512354118559839,-2,-2,-1,-2,-13,-1,0,-4
1512354118561839,1,12,27,8,7,5,4,3
1512354118561839,0,7,-6,-1,-3,-2,-5,-5
1512354118573839,1,-15,2,0,23,-11,-5,6
1512354118573839,-2,-7,-22,-6,2,1,3,-2
1512354118580839,5,12,7,-7,-20,0,8,4
1512354118580839,-1,1,-12,-2,-37,-3,-3,-4
1512354118597839,-2,-19,-15,12,89,5,1,3
1512354118597839,3,4,0,3,-1,-1,-1,4
1512354118598839,-1,-1,17,-1,-8,-6,-2,0
1512354118598839,0,16,41,3,-6,3,-1,-3
1512354118619839,0,1,-32,6,39,-5,4,0
1512354118619839,-7,-26,-44,1,-31,-9,-4,-4
1512354118621839,-1,5,12,23,83,0,-3,-4
1512354118621839,1,3,20,-29,-56,1,1,0
1512354118633839,1,14,18,-3,-21,-1,-2,-1
1512354118633839,0,-2,-5,-2,-29,-11,-3,-2
1512354118640839,1,2,6,3,32,6,1,-1
1512354118640839,-2,-6,-11,0,1,-19,-4,-2
1512354118656839,-2,13,12,4,-12,14,-1,-2
1512354118656839,-2,-13,-16,4,-16,-17,-4,-4
1512354118658839,1,-2,1,-23,-17,10,5,0
1512354118658839,1,-6,-12,2,10,-3,-4,-5
1512354118679839,-1,5,10,-17,-37,-14,-3,-2
1512354118679839,3,11,10,14,27,15,0,-1
1512354118681839,-1,-1,-6,-2,-20,-4,-3,-5
1512354118681839,-4,-11,-11,-3,11,0,2,0
1512354118693839,-2,-6,-7,7,0,-4,-2,-1
1512354118693839,-2,3,5,7,27,17,2,3
1512354118702839,1,-5,-12,2,9,-7,-4,-2
1512354118702839,-1,6,4,6,12,14,-2,-2
1512354118716839,-1,1,2,-4,-11,-11,-3,1
1512354118716839,1,2,-1,-8,-9,-5,-2,-3
1512354118718839,1,1,-5,-7,-5,-1,4,4
1512354118718839,0,-2,1,6,2,28,4,1
1512354118739839,-1,-3,1,-6,-27,-17,-4,-2
1512354118739839,-1,5,29,-5,-4,0,2,-2
1512354118741839,0,-6,-36,-6,1,0,1,2
1512354118741839,0,-4,0,4,-17,-7,-4,-6
1512354118753839,-1,-1,2,-1,-3,7,4,5
1512354118753839,-1,3,5,-3,-9,1,-1,-1
1512354118762839,-2,1,15,2,-4,-4,0,0
1512354118762839,1,-2,-18,-5,-12,-12,-3,-2
1512354118777839,-1,-3,-3,2,13,13,5,3
1512354118777839,-1,2,2,-6,-24,-8,0,3
1512354118778839,-1,-4,-1,-5,-26,-1,-4,-3
1512354118778839,0,0,0,3,19,-2,-9,1
1512354118799839,2,7,11,9,2,-9,9,-2
1512354118799839,-2,-9,-16,7,31,8,-4,-2
1512354118801839,-3,-6,0,-12,-10,-7,-6,-5
1512354118801839,-1,0,3,8,22,8,3,0
1512354118813839,0,-7,-8,-9,-5,-9,-3,-1
1512354118813839,-3,3,2,9,36,12,-4,-9
1512354118822839,-3,-9,-10,5,-8,-6,1,4
1512354118822839,-1,7,16,6,22,-9,-1,0
1512354118837839,-4,-5,-25,-6,-5,0,-1,-6
1512354118837839,2,0,-1,-10,-50,-9,0,2
1512354118838839,0,4,11,5,-1,-14,-1,-1
1512354118838839,0,-2,-2,-3,10,39,4,-1
1512354118859839,2,4,13,3,-18,-5,-5,-1
1512354118859839,2,3,-4,3,-10,-4,-2,-3
1512354118861839,-1,-2,1,3,19,-17,-6,4
1512354118861839,-3,-5,-6,-5,-26,-11,-1,-1
1512354118873839,0,-4,-13,-3,8,1,-3,-3
1512354118873839,1,1,2,-6,-1,-4,-2,2
1512354118882839,1,5,5,1,-22,2,4,0
1512354118882839,0,2,-4,4,26,-7,-5,-1
1512354118904839,-3,-11,0,1,-4,12,-2,-2
1512354118904839,-2,-3,-6,1,-1,1,-1,-5
1512354118906839,-1,-2,0,-8,4,11,2,6
1512354118906839,-2,-5,-14,-1,5,-5,-1,-3
1512354118919839,5,10,19,-1,-7,-7,0,3
1512354118919839,1,2,11,1,13,9,2,3
1512354118921839,-2,-3,-21,-7,-17,11,0,-8
1512354118921839,0,1,14,3,2,-4,1,4
1512354118933839,1,5,2,1,0,-7,-2,-1
1512354118933839,-2,-11,-30,-15,15,-12,0,-1
1512354118942839,0,1,7,-3,-13,3,-2,-2
1512354118942839,1,-3,-4,5,2,-13,-1,1
1512354118956839,-4,-1,9,1,5,7,-3,-7
1512354118956839,-1,4,5,-1,-7,-4,4,11
1512354118958839,0,-1,0,1,0,-6,-1,1
1512354118958839,-2,-1,-4,0,2,4,2,2
1512354118979839,2,-1,0,-8,-15,-6,-1,-2
1512354118979839,-1,1,2,8,20,7,-1,-3
1512354118981839,-3,-6,-7,1,1,-3,-3,-2
1512354118981839,0,-3,0,-3,20,-12,-2,-1
1512354118993839,-2,1,-2,-1,3,15,-2,-5
1512354118993839,-1,0,-3,-4,-1,8,1,3
1512354119002839,1,0,6,8,13,5,0,-1
1512354119002839,2,4,12,-5,-5,5,3,-1
1512354119016839,-2,-8,-28,-2,-2,-12,0,-1
1512354119016839,0,2,6,-4,-5,-10,-2,-3
1512354119018839,1,0,4,13,13,4,0,1
1512354119018839,-1,-1,-3,-8,-65,-11,-3,0
1512354119039839,1,4,7,-11,-1,6,1,10
1512354119039839,-1,3,3,-3,-32,-11,-3,-1
1512354119041839,-2,-6,-3,5,21,4,-1,-1
1512354119041839,1,1,-4,5,-8,-8,-2,-2
1512354119053839,0,0,5,-1,2,6,-1,4
1512354119053839,-1,1,-2,-5,-2,1,-1,-3
1512354119062839,-2,-4,-7,-12,-3,-10,-2,-3
1512354119062839,0,-4,5,16,29,20,2,1
1512354119077839,2,8,-6,8,31,3,0,-1
1512354119077839,-2,-10,-11,6,12,-10,-3,1
1512354119078839,1,2,-5,-6,-10,2,5,-1
1512354119078839,-3,-5,-5,-2,-1,-14,0,-6
1512354119099839,-1,-1,6,1,9,11,1,2
1512354119099839,0,3,8,10,-14,-12,-1,-2
1512354119101839,2,5,8,-4,-7,20,1,0
1512354119101839,-2,-3,-4,7,9,-9,-1,2
1512354119113839,-1,-1,1,-3,-18,-9,-3,-2
1512354119113839,1,0,-6,-2,-10,-5,1,-1
1512354119122839,1,-2,-3,-8,-7,-1,-1,-1
1512354119122839,2,-3,-7,-8,14,9,4,8
1512354119137839,0,-3,2,-1,-8,-6,-3,-6
1512354119137839,-1,0,4,0,0,-5,-5,1
1512354119138839,1,1,1,2,10,21,1,-3
1512354119138839,1,0,-1,-5,-12,-8,0,-1
1512354119159839,-3,-1,2,-3,-4,-6,1,1
1512354119159839,1,-1,-3,-1,5,5,1,-1
1512354119161839,-1,2,5,-9,-22,-10,-5,-1
1512354119161839,1,-1,-3,-6,-20,-7,-4,-6
1512354119173839,1,1,-4,-6,-8,0,-1,12
1512354119173839,0,0,17,2,4,-7,2,-2
1512354119182839,-4,-2,-16,-1,-1,2,-3,0
1512354119182839,-2,-4,-7,-3,5,-2,0,-4
1512354119196839,-2,-1,2,-2,4,-4,1,-7
1512354119196839,1,2,11,-4,-20,9,1,2
1512354119198839,1,-1,-11,5,24,-3,-1,2
1512354119198839,-2,2,4,8,3,4,1,2
1512354119219839,-2,1,0,0,1,-6,-1,-7
1512354119219839,0,-1,-2,-2,-9,1,2,1
1512354119221839,-2,0,6,3,-11,-6,-1,0
1512354119221839,-1,-1,-5,0,2,-3,-3,-3
1512354119233839,-1,-3,-1,-2,-6,-3,0,-4
1512354119233839,2,1,-4,-6,-11,7,0,-1
1512354119242839,-2,-2,1,7,2,-6,3,0
1512354119242839,-1,0,-4,-8,1,-3,0,1
1512354119256839,0,-1,5,2,-9,-4,-2,-1
1512354119256839,-1,-1,-9,-16,2,-3,-3,-5
1512354119258839,2,2,1,-3,-18,6,2,5
1512354119258839,-1,-3,4,0,-11,-5,-3,-3
1512354119279839,-1,-3,0,7,22,16,-1,-1
1512354119279839,1,0,-7,5,5,-10,-5,-2
1512354119281839,-2,0,3,-4,-4,-28,-1,-3
1512354119281839,0,2,3,3,7,23,-1,-2
1512354119293839,-2,3,-4,-9,-13,1,-2,-2
1512354119293839,1,-6,-7,7,15,-2,-1,0
1512354119302839,-2,4,19,-1,-11,-2,-4,-3
1512354119302839,-2,-4,-19,2,11,-9,-2,0
1512354119316839,1,1,1,-6,-11,-1,0,-2
1512354119316839,-3,-1,6,3,11,-9,1,1
1512354119323839,0,-2,-2,-8,-23,12,0,-5
1512354119323839,1,10,24,-3,-16,-7,-1,4
1512354119339839,-3,-16,-28,-4,25,5,-2,-9
1512354119339839,-2,-3,-3,5,18,-2,1,0
1512354119341839,2,3,1,-1,-11,-2,-1,0
1512354119341839,-2,3,26,10,16,9,-1,-1
1512354119369839,-1,-3,-24,-1,7,-10,1,4
1512354119369839,-2,-2,-2,-7,-18,-2,-3,-2
1512354119371839,-1,-1,1,2,-22,-16,-5,-5
1512354119371839,2,-2,-12,-6,5,36,10,9
1512354119376839,2,5,20,6,-20,-22,-4,4
1512354119376839,-1,-1,-7,-7,21,16,-1,-1
1512354119383839,0,0,-1,1,12,-8,-1,2
1512354119383839,0,1,-1,-3,-6,4,0,-3
1512354119399839,0,-2,4,-4,-23,-5,1,5
1512354119399839,0,-2,-6,3,6,5,0,-1
1512354119401839,2,1,0,-1,8,4,0,-3
1512354119401839,-4,-6,-7,-4,1,-14,-1,-4
1512354119429839,0,0,1,-1,-3,0,-1,5
1512354119429839,-1,2,1,5,7,-3,-5,-2
1512354119431839,-4,-3,0,8,22,13,0,-1
1512354119431839,1,-4,-9,-6,-6,-13,-4,-7
1512354119436839,2,3,5,4,-11,4,1,3
1512354119436839,0,1,3,-4,-13,-8,-3,1
1512354119450839,1,-4,-4,-6,-17,-1,1,1
1512354119450839,-1,-1,-3,-6,-10,-2,0,-3
1512354119459839,-1,7,15,12,31,9,-3,-5
1512354119459839,-1,3,-3,4,-13,2,2,0
1512354119461839,-3,-13,-23,0,4,-7,-4,1
1512354119461839,2,-1,-4,6,22,2,0,0
1512354119481839,-1,-1,4,3,-6,-19,-2,-2
1512354119481839,1,2,4,-10,5,15,3,-1
1512354119483839,-2,4,7,9,10,-5,-2,-1
1512354119483839,0,-2,-3,-2,-23,-10,-1,-4
1512354119496839,1,1,2,-6,-7,11,1,10
1512354119496839,2,1,-3,-4,-9,-7,-1,3
1512354119503839,-1,1,3,4,17,2,-2,-2
1512354119503839,-1,-3,-3,0,-1,11,1,0
1512354119519839,-2,-1,-1,-1,-2,-1,-2,-6
1512354119519839,-2,-4,-2,-5,-22,-9,0,2
1512354119521839,2,2,2,-5,-60,-7,-1,-1
1512354119521839,-1,-4,-6,-11,63,15,7,3
1512354119541839,0,-2,-3,-2,-5,-1,-3,-9
1512354119541839,1,0,3,5,0,-7,1,0
1512354119543839,-3,-4,-1,-2,36,18,1,-3
1512354119543839,-1,4,9,10,3,0,-3,0
1512354119556839,-3,-7,-16,-2,-3,2,0,0
1512354119556839,-3,-1,17,3,10,11,0,1
1512354119563839,-2,-1,-18,-3,8,-1,0,-1
1512354119563839,-1,-1,6,-3,-28,-11,-1,2
1512354119579839,-2,4,5,7,42,3,-3,-7
1512354119579839,0,-3,-6,-7,-17,6,2,6
1512354119580839,0,1,5,0,9,-6,0,-1
1512354119580839,-1,0,-5,-5,-23,1,-1,-2
1512354119602839,-4,-3,1,-1,-4,4,0,-3
1512354119602839,-1,-3,-6,-2,12,-3,0,-6
1512354119603839,0,2,6,-3,-17,-3,-1,5
1512354119603839,0,1,-10,-2,-2,-7,-4,2
1512354119616839,0,-6,-2,7,27,16,1,1
1512354119616839,-2,1,-2,2,1,-5,1,-1
1512354119623839,2,8,0,-2,39,27,1,-1
1512354119623839,-2,-8,-5,17,15,-20,-5,-3
1512354119646839,-4,-5,1,-8,-31,-15,-4,1
1512354119646839,4,4,5,-5,-13,7,1,-2
1512354119648839,3,-1,-3,-1,-11,-14,-1,12
1512354119648839,0,2,2,-4,-2,1,0,2
1512354119662839,-1,-1,0,-1,-10,-8,-2,-2
1512354119662839,-3,-4,1,4,9,0,-3,-3
1512354119663839,-4,0,7,8,8,-5,1,-4
1512354119663839,-1,2,1,-6,-24,-1,-3,-1
1512354119676839,-1,-4,-8,5,-10,0,1,2
1512354119676839,0,2,2,3,30,0,-3,-6
1512354119683839,0,-1,0,4,33,11,2,-1
1512354119683839,2,-1,-3,-5,-9,7,-1,0
1512354119699839,2,4,5,-3,-21,-8,0,-3
1512354119699839,-1,-3,-9,-4,-24,-9,-3,-1
1512354119701839,1,-2,2,6,4,9,5,8
1512354119701839,1,2,6,-9,9,-2,-4,-3
1512354119721839,2,3,-15,-10,-16,-9,1,2
1512354119721839,-2,-5,-5,4,6,17,2,2
1512354119723839,-3,-2,2,-4,-17,-20,-6,-10
1512354119723839,-1,0,0,-1,-6,-3,6,13
1512354119736839,0,4,8,-5,-3,10,-1,0
1512354119736839,-1,-2,-2,-3,-24,-12,-1,0
1512354119743839,-3,-14,-13,6,10,6,-2,-1
1512354119743839,1,1,0,3,16,-7,-2,-2
1512354119759839,-4,-6,-4,2,17,0,1,0
1512354119759839,2,7,9,-1,-24,-4,-1,-1
1512354119761839,-1,2,-4,0,9,3,-1,-4
1512354119761839,-2,-2,-3,3,-6,-3,1,-3
1512354119781839,-2,1,12,-7,12,-9,0,-1
1512354119781839,-1,-4,-18,-5,-45,6,-4,-1
1512354119783839,2,7,10,10,7,-21,-2,-2
1512354119783839,-5,-7,-10,1,15,1,2,-1
1512354119796839,-1,0,5,12,13,-2,-3,-3
1512354119796839,-2,0,6,-1,10,-5,-1,0
1512354119803839,0,0,-1,-3,29,1,2,-1
1512354119803839,-2,-1,-1,-2,-15,8,-3,-5
1512354119819839,2,-2,1,1,-4,-9,-2,3
1512354119819839,-2,-3,3,3,13,1,0,-1
1512354119821839,-3,0,-3,-10,-26,4,0,1
1512354119821839,0,-1,-1,2,-21,-6,-3,-4
1512354119841839,1,1,0,-4,10,10,3,-4
1512354119841839,1,-3,-3,-1,3,-9,-1,4
1512354119843839,-1,1,3,2,-16,2,-1,-2
1512354119843839,0,2,2,-31,-22,-13,-7,0
1512354119855839,0,3,2,9,19,27,5,1
1512354119855839,-5,-12,-11,3,10,-6,-3,-6
1512354119864839,-1,-5,-10,-12,-11,-14,-1,5
1512354119864839,1,1,-1,12,35,5,-2,-4
1512354119879839,-2,-1,-3,-9,-15,-5,-1,-2
1512354119879839,1,-3,-1,-4,9,2,1,1
1512354119880839,-1,2,6,-7,-38,4,-2,-3
1512354119880839,2,-1,0,4,-6,-8,1,1
1512354119901839,-1,-1,-4,-2,-12,0,-3,-4
1512354119901839,1,2,-1,-1,7,6,1,5
1512354119903839,0,0,2,-6,-17,-9,-1,-3
1512354119903839,-3,1,-4,2,6,-8,0,1
1512354119915839,-1,0,2,17,3,16,0,-2
1512354119915839,1,4,3,-14,-2,-1,-1,0
1512354119924839,-1,-9,-13,-4,1,-4,0,0
1512354119924839,0,5,8,-1,14,-3,0,-1
1512354119939839,-2,-4,-7,1,1,-3,0,2
1512354119939839,1,-1,-9,-16,-15,-9,-2,-2
1512354119941839,-4,-6,10,32,-2,15,1,0
1512354119941839,1,-1,-3,16,47,4,1,-1
1512354119961839,-2,0,0,-13,1,-10,-2,-1
1512354119961839,-1,4,7,8,8,5,1,3
1512354119963839,0,2,-1,-10,-8,-8,-8,-7
1512354119963839,-2,-1,-4,3,-8,4,2,-6
1512354119975839,4,-1,4,-5,-13,-6,2,11
1512354119975839,1,4,-2,-4,34,3,-1,-4
1512354119984839,-1,-1,-5,0,-37,-7,-3,-1
1512354119984839,-2,0,6,1,-1,3,-5,0
1512354119999839,0,3,10,5,1,-6,-1,-2
1512354119999839,-3,-4,-14,-4,-18,17,0,1
1512354120001839,0,0,3,-9,-9,-14,2,3
1512354120001839,1,-2,-1,-5,-26,5,3,-1
1512354120021839,-2,-6,-4,5,11,9,-2,-7
1512354120021839,0,-1,5,12,10,-4,-3,-1
1512354120023839,2,1,-3,-20,13,8,-1,-3
1512354120023839,-2,-1,-1,-11,-8,-2,-4,-3
1512354120035839,-2,-3,-6,-1,-4,-5,0,3
1512354120035839,-3,-2,4,5,-14,-14,1,-7
1512354120044839,1,1,1,6,34,17,0,2
1512354120044839,2,-1,-4,-9,-8,-13,-3,0
1512354120059839,0,1,-2,2,-7,2,-1,-3
1512354120059839,-2,-4,-2,1,19,-6,-1,-2
1512354120061839,-1,0,-1,-12,-5,-2,6,14
1512354120061839,-2,-1,0,-6,1,6,0,1
1512354120081839,-1,-3,-4,3,-9,-15,-4,-2
1512354120081839,2,3,4,-7,32,9,1,2
1512354120083839,-2,-1,-1,7,13,-3,-1,-5
1512354120083839,0,-2,-1,6,-6,-2,1,2
1512354120095839,0,-2,-5,-9,-17,-6,0,0
1512354120095839,-2,-1,1,-19,-38,-2,-2,-5
1512354120104839,0,0,2,3,-8,0,-3,-2
1512354120104839,-2,0,-2,3,2,-1,1,-1
1512354120119839,-2,1,1,-11,-8,-7,-2,-1
1512354120119839,1,0,-2,10,5,-4,-2,3
1512354120121839,-4,-2,-3,12,8,16,-4,-7
1512354120121839,-1,-2,3,-25,-17,-12,4,3
1512354120141839,0,1,-3,6,7,-1,-2,-2
1512354120141839,-1,0,1,10,18,-1,-1,0
1512354120143839,1,1,-3,-1,-7,3,0,-2
1512354120143839,-1,0,-2,6,14,1,-3,1
1512354120155839,1,0,-3,-10,-18,-2,0,0
1512354120155839,-3,0,0,1,6,-2,1,4
1512354120164839,0,0,0,-5,-10,-3,-2,-4
1512354120164839,0,0,0,5,3,4,1,-3
1512354120179839,-1,-3,-4,-4,0,-4,-1,3
1512354120179839,-2,-1,0,8,-17,0,-3,-4
1512354120180839,-1,-2,-3,3,1,-12,1,0
1512354120180839,-1,-1,-1,-12,-9,9,0,-2
1512354120201839,-1,-1,3,14,15,-3,-3,-3
1512354120201839,1,-3,-5,-5,-12,-4,1,2
1512354120203839,-2,-1,1,0,44,12,2,-1
1512354120203839,-2,-2,-1,11,-3,4,-5,3
1512354120215839,-3,-1,-3,-5,-18,-9,-1,-3
1512354120215839,-1,2,0,-2,-10,1,3,1
1512354120224839,3,3,2,-4,1,11,1,-5
1512354120224839,-1,-2,-4,2,-2,3,-2,-2
1512354120238839,0,0,-1,-8,-1,1,-4,1
1512354120238839,-3,-2,3,3,1,4,0,-3
1512354120245839,-2,-1,1,2,-6,-2,0,-1
1512354120245839,2,1,0,-2,0,-9,6,11
1512354120261839,0,0,-2,-2,18,10,0,-6
1512354120261839,-1,-1,-1,2,-7,-8,-4,-5
1512354120263839,-1,-1,-2,-7,-7,-14,-4,2
1512354120263839,0,-3,0,5,10,2,0,-3
1512354120275839,1,-1,0,2,10,-4,3,6
1512354120275839,1,2,1,2,38,9,4,4
1512354120284839,0,-1,0,1,-2,-11,-4,-1
1512354120284839,-1,-2,-7,0,-7,-7,0,-3
1512354120298839,1,2,8,1,-3,0,1,0
1512354120298839,0,-3,-3,-16,-36,-8,2,3
1512354120305839,-2,0,-3,-10,-23,-10,0,-7
1512354120305839,-4,-2,-2,6,19,8,-3,0
1512354120321839,1,1,-2,1,-7,-3,-2,-2
1512354120321839,0,-1,0,10,11,1,-3,-4
1512354120323839,3,4,5,-2,-16,0,-2,3
1512354120323839,-2,-2,-4,-5,16,-6,-1,-1
1512354120344839,-2,-1,-1,-2,-4,-4,-7,-2
1512354120344839,0,0,1,-1,-9,-1,1,-2
1512354120346839,0,-2,-1,12,28,3,-1,-1
1512354120346839,-1,-2,-4,-15,-11,-5,-4,-1
1512354120358839,-3,-1,7,7,11,-1,0,1
1512354120358839,-1,-2,0,9,8,1,-2,-1
1512354120365839,2,1,4,-12,-7,-3,5,13
1512354120365839,-1,-1,0,11,-8,0,-1,-2
1512354120381839,1,-2,-7,-28,-4,8,0,-2
1512354120381839,2,-1,1,17,26,6,1,4
1512354120383839,-1,-2,-2,10,10,1,-1,-7
1512354120383839,1,1,5,6,0,2,1,8
1512354120404839,-3,-3,-4,-7,-15,-1,1,2
1512354120404839,-1,2,2,-5,-12,-15,-4,-3
1512354120406839,-2,-2,-3,1,-1,-1,-2,-3
1512354120406839,0,0,1,-12,-29,7,1,0
1512354120418839,-2,-3,-4,3,4,-2,-1,-3
1512354120418839,0,0,-1,-8,-14,2,-2,-1
1512354120425839,1,-1,-2,-4,-1,-6,1,5
1512354120425839,-2,-2,2,2,-18,-3,2,-2
1512354120441839,3,1,-5,-6,-9,11,2,4
1512354120441839,-2,1,0,-12,3,-14,-4,-6
1512354120443839,-2,1,-2,-4,-14,17,3,-1
1512354120443839,-1,-2,-2,3,5,-3,-5,-2
1512354120464839,0,0,0,-1,4,8,1,-4
1512354120464839,-3,-1,-4,4,1,5,2,4
1512354120466839,-1,-1,1,1,23,-5,-2,-6
1512354120466839,0,1,0,6,5,12,1,-1
1512354120479839,0,-3,2,-7,3,-4,-1,-1
1512354120479839,0,-1,-2,-14,-12,21,2,0
1512354120485839,-2,-3,-2,16,-11,-7,-3,0
1512354120485839,-1,-2,1,8,6,-7,7,1
1512354120501839,0,1,-2,-4,-5,-6,-5,0
1512354120501839,0,-3,-1,-6,-20,2,4,11
1512354120503839,-1,-1,-2,-9,-15,-8,-3,0
1512354120503839,-1,1,0,-2,1,1,-3,-8
1512354120524839,0,0,0,6,-13,-5,-1,-2
1512354120524839,1,0,0,8,1,-14,0,-4
1512354120526839,1,0,-1,-5,-13,0,-1,7
1512354120526839,-2,-3,-4,-5,-7,-9,-4,-3
1512354120538839,-3,-3,0,1,18,-8,-2,2
1512354120538839,2,2,2,0,5,20,3,-3
1512354120545839,-3,-3,0,-3,8,-12,-4,-3
1512354120545839,-1,0,0,-4,-7,7,-2,-3
1512354120561839,0,0,-5,-6,-8,2,1,-1
1512354120561839,-3,-2,0,5,6,-16,-7,-2
1512354120563839,-1,-1,4,1,-18,10,2,7
1512354120563839,-1,0,-1,7,59,12,-4,0
1512354120584839,-2,-2,-8,0,-1,-7,1,-1
1512354120584839,1,-2,-1,8,6,13,0,-1
1512354120585839,-3,-1,-3,-5,-12,-1,1,-6
1512354120585839,0,1,2,-3,-15,-2,-3,2
1512354120598839,1,1,1,11,3,-13,0,-5
1512354120598839,-1,-1,0,-19,18,-9,-10,-2
1512354120607839,-1,1,-2,4,-13,-2,0,-3
1512354120607839,-3,-2,-3,-28,-9,2,-1,0
1512354120621839,1,3,4,10,8,-1,-2,1
1512354120621839,-1,-2,-7,-5,-19,-10,1,0
1512354120623839,0,1,9,-5,10,8,1,4
1512354120623839,1,1,-6,14,-11,-3,-1,-1
1512354120644839,3,-2,-1,6,-27,-4,1,12
1512354120644839,0,1,5,3,2,-12,0,-3
1512354120646839,2,1,-10,-9,12,5,2,0
1512354120646839,-2,-2,1,-3,-9,-8,0,-6
1512354120658839,-5,1,11,1,5,1,-2,-7
1512354120658839,1,0,-6,7,2,17,7,13
1512354120667839,-2,-1,-5,-19,-8,-9,-4,-6
1512354120667839,0,3,14,3,-14,3,-1,-1
1512354120681839,3,3,-8,7,69,3,3,-1
1512354120681839,-4,-9,-7,-16,-38,-10,-3,1
1512354120683839,0,2,3,9,5,-2,-1,0
1512354120683839,-1,0,0,-5,2,-2,-4,-7
1512354120704839,-2,-1,5,0,-14,3,-4,-12
1512354120704839,1,-2,-3,5,19,3,14,9
1512354120706839,3,3,4,6,18,5,2,0
1512354120706839,-2,-2,-2,2,-13,-9,-4,0
1512354120718839,-3,0,2,-9,-7,6,-3,-4
1512354120718839,0,3,-9,-2,-9,-12,-5,-6
1512354120727839,-2,-6,-2,7,2,3,-1,3
1512354120727839,0,-1,-2,-4,13,-6,3,0
1512354120741839,0,0,-4,-4,-8,-9,-4,4
1512354120741839,-3,3,16,-2,-2,-7,-8,-8
1512354120743839,3,1,-10,23,42,-4,-2,5
1512354120743839,-2,-1,0,-8,40,-2,-8,-20
1512354120764839,-3,-10,-8,4,2,20,11,24
1512354120764839,-1,2,6,-5,2,-7,-3,-6
1512354120766839,-1,10,34,4,8,11,1,-1
1512354120766839,1,1,-32,17,44,-9,1,6
1512354120778839,-1,-3,-3,-9,-26,-14,-4,-5
1512354120778839,-2,1,2,-3,-25,0,0,-5
1512354120787839,1,4,19,7,14,6,-1,-2
1512354120787839,3,14,-4,-21,-44,-5,1,5
1512354120801839,-2,-13,1,13,6,7,1,2
1512354120801839,1,-2,-11,9,-3,6,3,-1
1512354120803839,-1,1,0,-22,-15,-11,-1,3
1512354120803839,1,2,12,7,-14,7,0,0
1512354120824839,2,5,-7,-5,-4,10,1,-1
1512354120824839,-1,-3,2,-1,6,-6,-2,2
1512354120825839,-4,-14,-25,1,-5,-2,-1,-6
1512354120825839,-1,0,13,6,-18,2,2,7
1512354120838839,-2,-5,-17,-10,39,4,2,2
1512354120838839,-1,-1,0,7,-3,-3,-7,-9
1512354120847839,1,3,-5,-11,-7,11,5,-1
1512354120847839,-1,0,17,3,-9,10,0,3
1512354120861839,-6,-17,-28,-15,15,-14,-7,-9
1512354120861839,1,15,27,-15,-37,7,5,3
1512354120863839,-6,-28,-51,7,21,-12,-4,-8
1512354120863839,0,-12,-1,-12,-5,6,-1,3
1512354120884839,2,10,8,6,-8,-6,1,-4
1512354120884839,3,17,30,-7,19,-4,0,9
1512354120886839,-3,3,2,-9,-27,8,0,1
1512354120886839,-3,-28,-47,21,29,-6,-1,-4
1512354120898839,2,7,3,-7,-33,-3,-1,-1
1512354120898839,-4,-6,-8,8,5,-11,0,-2
1512354120907839,0,13,21,4,-3,6,-3,-5
1512354120907839,1,15,26,5,5,3,3,4
1512354120921839,1,-3,-7,10,-9,-10,2,-5
1512354120921839,0,-3,-5,2,83,20,-2,0
1512354120923839,1,1,-10,-6,-38,-8,-3,3
1512354120923839,-3,-4,-5,-20,-48,-19,-4,-1
1512354120944839,1,8,19,16,15,12,2,-4
1512354120944839,1,0,1,4,-13,6,3,5
1512354120946839,1,6,33,-1,7,-5,-1,-6
1512354120946839,-1,0,-59,-13,-17,7,2,0
1512354120958839,-5,-7,-3,1,-14,-9,-5,-4
1512354120958839,1,1,-1,1,-5,-1,0,6
1512354120967839,0,-3,-2,-9,2,1,2,5
1512354120967839,3,13,35,12,-6,1,-6,-6
1512354120981839,0,8,20,-3,-5,7,1,-2
1512354120981839,5,25,29,2,13,5,-5,-3
1512354120983839,-13,-53,-78,3,-8,-1,1,1
1512354120983839,2,1,14,-10,-25,-13,-4,-3
1512354121011839,-1,4,3,-7,27,7,8,5
1512354121011839,-5,-8,-2,-13,-20,11,-5,-13
1512354121013839,9,31,52,10,19,-21,1,11
1512354121013839,-6,-22,-34,-7,-7,6,-2,-5
1512354121017839,-2,-8,-9,2,23,12,5,-1
1512354121017839,3,4,-4,1,-28,-10,-2,5
1512354121034839,1,10,12,-7,-1,-3,-5,-4
1512354121034839,-5,-21,-31,5,18,3,4,-1
1512354121041839,3,20,31,3,-3,-12,-6,-4
1512354121041839,-8,-26,-38,-2,6,-2,2,-6
1512354121043839,0,7,4,-5,-10,6,0,-2
1512354121043839,1,9,43,3,9,-1,-1,9
1512354121064839,0,-18,-50,-2,6,4,-1,-1
1512354121064839,2,-2,-5,-22,-49,-22,-1,0
1512354121066839,5,6,29,44,-11,0,-1,-2
1512354121066839,-1,12,3,-4,27,3,-4,-2
1512354121078839,2,19,35,-5,-22,0,-1,7
1512354121078839,-11,-60,-95,-7,-3,-7,-6,-8
1512354121087839,4,4,7,-5,-4,-10,2,12
1512354121087839,0,5,14,2,-11,0,1,-2
1512354121101839,2,4,14,-3,-8,-2,2,4
1512354121101839,-2,3,5,5,10,-2,-4,-3
1512354121103839,-3,-5,-13,-16,-12,14,2,-5
1512354121103839,1,2,10,17,11,-6,0,1
1512354121124839,-4,-5,-5,-6,-27,-10,-8,-3
1512354121124839,3,15,20,11,1,2,7,4
1512354121125839,-7,-17,-39,-15,-1,-9,-5,-13
1512354121125839,2,-8,-2,-5,-26,-11,5,13
1512354121138839,1,1,-5,0,2,10,-1,-2
1512354121138839,-1,12,47,26,26,0,-4,1
1512354121146839,0,-1,-25,-15,-2,-13,-5,1
1512354121146839,-2,1,1,-2,10,10,3,-5
1512354121161839,-1,-4,-8,-1,-2,-9,-3,0
1512354121161839,3,6,4,-8,-13,1,1,3
1512354121163839,-2,1,6,4,14,0,-1,-3
1512354121163839,-3,-1,1,0,3,-3,-1,-4
1512354121184839,0,-7,-10,6,11,9,1,2
1512354121184839,-2,0,-3,-4,1,-5,-10,-4
1512354121185839,-1,-1,7,7,2,1,3,-3
1512354121185839,0,0,-6,-7,0,0,0,-7
1512354121198839,1,3,7,-3,-8,2,1,4
1512354121198839,1,-3,-7,1,2,1,-1,-2
1512354121207839,0,-4,-2,-7,-10,-2,-1,-1
1512354121207839,3,5,9,0,2,3,1,8
1512354121221839,-2,-2,0,-6,-14,-12,0,-5
1512354121221839,-3,-7,-7,6,6,1,-2,-4
1512354121228839,0,2,7,9,13,0,3,6
1512354121228839,-1,-2,-4,-10,-7,0,-4,-5
1512354121245839,1,-3,-4,9,33,14,1,-1
1512354121245839,0,-2,-5,-9,3,-4,2,1
1512354121246839,0,8,24,19,39,-3,-6,-4
1512354121246839,-4,-12,-22,-8,-24,11,1,3
1512354121266839,-4,-14,-22,-5,-1,-15,-6,-3
1512354121266839,0,5,7,2,0,1,1,-2
1512354121268839,-1,-2,-4,1,-14,4,4,-2
1512354121268839,2,10,15,9,10,-9,-4,0
1512354121281839,-4,-1,9,-10,-9,0,-1,-1
1512354121281839,1,0,-5,-3,2,6,2,3
1512354121288839,-3,-6,-8,-11,-8,-11,1,2
1512354121288839,-2,-1,-3,6,-4,9,-1,-2
1512354121304839,-3,-1,-1,-7,-20,-6,-2,-3
1512354121304839,0,1,1,1,-2,-1,-2,-1
1512354121310839,-1,-2,-3,-11,-11,-2,-2,0
1512354121310839,0,-1,-1,-2,10,5,10,11
1512354121326839,0,1,8,7,-11,-9,-6,-4
1512354121326839,-2,-2,-1,5,6,-6,3,2
1512354121328839,0,-2,-7,6,-3,8,-3,-9
1512354121328839,1,2,5,-32,-5,3,2,0
1512354121341839,-1,2,4,-1,-4,0,1,2
1512354121341839,-1,-5,-12,-25,-10,-1,0,-1
1512354121347839,1,2,9,4,-6,3,-2,0
1512354121347839,-3,-13,-23,19,14,-4,-4,-3
1512354121364839,1,3,2,-12,-3,3,3,2
1512354121364839,0,0,0,14,2,15,4,0
1512354121366839,-2,2,4,-11,-12,7,5,1
1512354121366839,2,5,6,-7,-3,-4,-1,1
1512354121386839,-3,-5,-1,14,3,-2,-2,-7
1512354121386839,2,2,-4,-8,7,-7,3,1
1512354121388839,-1,-2,-8,-14,-4,2,-1,-2
1512354121388839,-2,1,9,17,4,-7,-6,-4
1512354121401839,1,3,3,2,-2,-3,0,2
1512354121401839,-3,0,1,4,-1,-6,1,-4
1512354121408839,6,3,-13,-39,-12,-4,3,17
1512354121408839,0,4,18,23,1,2,-5,-6
1512354121424839,0,0,-5,0,-5,-7,-2,-3
1512354121424839,4,1,-1,5,2,3,1,2
1512354121426839,-3,-5,-1,6,-3,-12,-6,-7
1512354121426839,-2,-3,1,14,1,0,0,0
1512354121446839,0,0,-6,-29,-6,2,3,2
1512354121446839,-3,-2,3,10,-2,-19,-6,-6
1512354121448839,0,0,2,17,4,12,0,-2
1512354121448839,1,2,10,5,0,-5,-4,-10
1512354121461839,-2,3,-9,-17,-4,4,-1,2
1512354121461839,-4,-2,-3,-11,-3,-11,-6,-3
1512354121468839,1,1,2,11,5,38,9,4
1512354121468839,-2,2,-4,-10,-11,-4,-6,-3
1512354121484839,0,-10,13,13,-6,-3,1,4
1512354121484839,1,-3,-20,-5,6,34,0,2
1512354121485839,-2,3,6,4,3,-26,-12,-9
1512354121485839,-1,1,-1,-2,-2,25,5,3
1512354121506839,0,-5,-10,6,40,4,-4,-8
1512354121506839,1,0,4,8,1,-9,6,9
1512354121508839,-2,-2,11,25,-4,-15,-22,-17
1512354121508839,-1,-1,-9,-5,1,2,17,5
1512354121520839,3,5,-10,-45,-14,-2,1,0
1512354121520839,0,-3,3,27,9,-4,-3,3
1512354121529839,0,-4,-7,-16,9,16,6,3
1512354121529839,3,3,5,-3,-13,-17,-11,-2
1512354121544839,-3,-2,6,12,-9,-2,4,-6
1512354121544839,-2,1,-3,-4,-5,-4,1,-1
1512354121545839,-3,0,-2,-11,-10,-6,0,-8
1512354121545839,-1,-6,-6,2,14,-1,-1,5
1512354121566839,3,7,11,11,-16,-18,-4,1
1512354121566839,1,0,3,-14,-3,13,0,4
1512354121568839,-2,0,-2,10,7,-3,0,-9
1512354121568839,1,-2,-1,4,21,2,-3,24
1512354121580839,-2,-3,-3,12,6,10,-3,0
1512354121580839,-3,2,4,-10,-17,-11,-4,0
1512354121589839,-1,5,9,15,34,6,8,-3
1512354121589839,-1,-9,-30,-31,-20,-13,-8,-9
1512354121604839,-3,-5,-9,-2,0,-1,1,4
1512354121604839,0,2,8,-1,-16,-9,-6,-3
1512354121605839,-2,-4,-12,-23,-4,4,-4,1
1512354121605839,-4,-1,14,11,-7,-14,-10,-16
1512354121626839,-2,-3,7,22,1,2,4,14
1512354121626839,1,0,-6,-6,15,2,2,-6
1512354121628839,-1,-3,3,-16,-18,5,-1,-7
1512354121628839,2,0,2,3,20,-10,6,5
1512354121640839,1,0,-5,-7,-25,-3,1,5
1512354121640839,-5,-2,1,10,21,22,11,-11
1512354121649839,1,1,11,5,-10,-33,-19,-12
1512354121649839,1,-2,-15,-3,-8,2,-1,4
1512354121664839,-2,-7,-17,-13,-1,12,-2,-8
1512354121664839,2,6,10,6,11,21,3,15
1512354121666839,1,1,-13,-9,2,-20,-2,4
1512354121666839,-5,-4,12,-4,0,25,-2,-19
1512354121686839,2,6,14,18,12,-6,2,0
1512354121686839,-1,-3,-7,0,-12,-23,-7,-13
1512354121688839,-2,1,-1,1,11,9,3,-3
1512354121688839,-4,-3,3,-2,5,-2,4,-1
1512354121700839,0,5,23,-2,-6,-5,-6,-6
1512354121700839,0,-1,-32,-14,-1,-5,-8,-17
1512354121709839,-6,-30,-32,5,-11,7,6,4
1512354121709839,11,11,6,-6,-11,-10,4,22
1512354121724839,1,-3,-9,9,36,10,-3,-6
1512354121724839,1,3,27,-1,-17,-14,0,-8
1512354121725839,-3,6,2,6,40,7,-8,-12
1512354121725839,10,2,-1,-6,-32,0,9,50
1512354121746839,-1,0,-2,-10,18,-1,-4,5
1512354121746839,3,1,3,6,12,5,4,6
1512354121748839,-2,0,-6,-3,-33,-5,1,-5
1512354121748839,-2,0,4,12,25,4,-1,-4
1512354121760839,2,4,1,2,-6,7,7,2
1512354121760839,-5,-5,-5,-13,-4,-9,-5,-6
1512354121769839,1,-3,-1,-3,-2,11,7,12
1512354121769839,-3,1,2,-2,-5,-11,6,-15
1512354121784839,0,5,4,-18,-36,-8,-8,-12
1512354121784839,-4,-14,-25,6,11,1,-1,-3
1512354121785839,1,2,4,2,-3,-3,4,13
1512354121785839,-3,5,4,-11,-9,17,-2,-19
1512354121806839,-4,-7,-2,13,9,-5,-7,-7
1512354121806839,0,1,8,-1,-42,-20,-14,-18
1512354121808839,1,0,1,-12,15,3,19,32
1512354121808839,-10,-6,-18,-6,0,2,-6,-31
1512354121820839,-1,-3,-9,-6,1,-2,0,-3
1512354121820839,3,4,10,7,-13,-3,-2,6
1512354121829839,2,0,-3,-17,-18,8,-4,0
1512354121829839,-1,15,17,2,-39,-23,-12,-8
1512354121844839,-4,-18,-47,-9,24,0,12,5
1512354121844839,-3,-6,2,4,1,-13,-9,-7
1512354121845839,1,7,7,2,-18,-18,-6,-5
1512354121845839,2,5,26,5,25,-3,-3,5
1512354121867839,4,13,24,8,-36,1,-6,-3
1512354121867839,-3,-6,-31,-15,23,-5,-8,-10
1512354121868839,-4,2,18,6,10,5,16,-2
1512354121868839,2,-6,-16,-2,-23,-16,-1,-9
1512354121880839,2,5,5,8,13,-6,-3,-3
1512354121880839,0,3,9,0,28,20,8,14
1512354121889839,-3,-3,-1,3,-2,-2,-15,-11
1512354121889839,-1,-3,-5,7,27,-1,2,-7
1512354121904839,-1,-2,-14,-5,-6,0,4,12
1512354121904839,-1,5,55,-1,-39,-12,1,-3
1512354121905839,2,-12,-58,14,25,-2,-14,-6
1512354121905839,-4,-6,1,2,8,7,4,8
1512354121926839,-1,4,8,-14,-4,5,0,0
1512354121926839,-2,5,38,0,-7,3,-1,-6
1512354121928839,3,3,-28,-4,-22,-5,10,43
1512354121928839,-2,-17,-15,-3,8,5,5,-20
1512354121940839,-2,1,16,15,24,-2,-14,-19
1512354121940839,2,3,-8,-5,-23,2,25,29
1512354121949839,2,9,15,0,18,5,-4,-24
1512354121949839,-2,-2,-15,0,2,4,-8,1
1512354121964839,-3,-2,-3,-10,-10,25,4,2
1512354121964839,-1,1,-3,-2,3,-1,-5,2
1512354121965839,3,3,20,4,2,-6,-6,3
1512354121965839,-2,12,9,-6,-38,-12,-6,-2
1512354121986839,2,-26,-33,7,36,-3,2,30
1512354121986839,2,-2,-16,-4,13,10,4,7
1512354121988839,0,4,9,2,6,6,3,0
1512354121988839,0,3,13,0,7,-2,-5,0
1512354122000839,-2,9,18,0,-27,-12,-1,-7
1512354122000839,-4,-11,-25,-3,18,2,6,3
1512354122009839,-3,-10,2,17,-6,-19,-13,-19
1512354122009839,5,4,-4,-16,47,27,19,21
1512354122024839,-2,-6,-17,-2,-27,-13,0,-4
1512354122024839,0,-2,-9,7,14,0,-2,2
1512354122025839,-5,3,14,-5,-6,0,2,-13
1512354122025839,-1,-5,0,-4,-14,0,-10,2
1512354122046839,-9,3,3,-7,-19,-10,4,-14
1512354122046839,4,4,3,-12,-24,2,-5,-1
1512354122048839,-3,-16,-8,-1,3,-3,-1,-1
1512354122048839,0,1,-6,3,-9,0,-6,-3
1512354122060839,-1,-5,-5,0,3,0,1,4
1512354122060839,-1,6,9,-4,-6,6,-7,-8
1512354122069839,-1,1,-3,-11,-22,-2,4,7
1512354122069839,0,-5,-9,1,-2,-3,-3,-1
1512354122084839,-1,4,12,15,8,1,-2,-3
1512354122084839,2,5,1,-17,1,5,-14,-18
1512354122085839,-2,-16,-25,-4,-18,3,4,17
1512354122085839,-3,-3,-2,4,-1,-15,1,1
1512354122106839,3,8,12,-6,15,25,3,-5
1512354122106839,-2,-4,-5,5,4,-15,7,0
1512354122108839,0,10,15,-10,-20,14,-5,-9
1512354122108839,-1,-2,30,-1,-10,-6,3,9
1512354122120839,1,-6,-37,-7,-13,-18,-2,1
1512354122120839,-1,-2,-6,-13,-22,20,0,2
1512354122129839,1,-4,5,2,4,-1,2,-2
1512354122129839,-2,-6,-4,2,4,-6,0,2
1512354122144839,1,4,16,11,0,-14,-11,-14
1512354122144839,0,-2,-1,-13,-55,-6,4,14
1512354122145839,-2,5,-1,-5,19,-3,0,-2
1512354122145839,1,2,-1,-3,-22,0,-3,-1
1512354122166839,-2,4,5,-1,11,-7,2,4
1512354122166839,-5,-13,-13,15,15,-8,-2,-6
1512354122168839,-2,2,1,-14,-29,7,1,-12
1512354122168839,0,0,-6,4,17,-1,-1,4
1512354122189839,1,0,4,-3,-12,-4,-3,-3
1512354122189839,-1,0,1,11,32,14,4,4
1512354122190839,-2,3,3,-1,-23,-12,-6,-8
1512354122190839,3,-1,-7,3,63,30,9,6
1512354122204839,0,2,8,-1,5,-5,-6,-10
1512354122204839,0,-5,-4,0,-5,1,3,3
1512354122205839,0,0,-3,4,-1,-15,-3,11
1512354122205839,3,2,-6,2,-10,-17,0,0
1512354122226839,0,1,13,-1,-5,3,2,5
1512354122226839,0,-1,-4,0,2,-4,-4,-10
1512354122228839,0,1,5,3,5,-6,0,6
1512354122228839,-1,3,2,-8,-24,-7,-7,-10
1512354122249839,0,-4,-8,5,1,8,3,13
1512354122249839,-2,-8,-13,-10,20,-7,3,-2
1512354122250839,1,-1,-1,7,10,9,-1,8
1512354122250839,2,3,1,-6,-15,-8,-5,-9
1512354122264839,-2,-6,-5,-3,-4,4,0,-2
1512354122264839,0,1,4,6,-1,0,0,5
1512354122265839,0,1,18,-1,-2,3,0,-2
1512354122265839,-2,-4,-3,-4,-18,4,1,0
1512354122286839,-3,-3,-16,-10,-18,-9,-7,-16
1512354122286839,-1,-9,-9,14,17,-12,3,24
1512354122288839,-3,-9,-13,-14,-1,20,3,-14
1512354122288839,4,4,10,16,6,-7,-5,-1
1512354122309839,2,6,9,-1,-4,-8,0,-3
1512354122309839,2,6,3,-2,-4,4,-1,-1
1512354122310839,-3,0,0,1,-1,-3,-5,-7
1512354122310839,-4,-3,-6,-1,6,3,0,-6
1512354122323839,-1,1,14,-1,6,7,3,11
1512354122323839,-3,-9,-22,6,11,-4,-10,-17
1512354122330839,4,6,18,3,0,-7,8,14
1512354122330839,-4,-5,-29,-8,-12,-2,1,2
1512354122346839,-4,-16,0,7,23,6,0,1
1512354122346839,5,6,8,-18,-15,-1,-1,0
1512354122348839,1,2,1,19,20,-6,-1,-1
1512354122348839,1,2,2,-19,12,10,2,-6
1512354122369839,-1,7,12,-8,-15,1,-3,-6
1512354122369839,0,13,-1,-5,-12,1,-1,0
1512354122370839,0,-19,-32,12,18,-7,-6,-7
1512354122370839,-1,3,5,-4,-29,4,5,1
1512354122383839,0,1,-1,-6,10,1,0,1
1512354122383839,3,13,39,12,-9,-1,4,8
1512354122390839,-3,0,-16,-7,-4,8,0,-10
1512354122390839,0,-2,16,18,0,-11,0,17
1512354122406839,-1,-1,-24,-21,-5,6,3,-12
1512354122406839,0,-6,2,2,-6,-8,-3,9
1512354122408839,1,1,-1,-10,-19,-4,3,4
1512354122408839,-2,-3,0,0,5,1,-2,3
1512354122429839,1,-1,-1,-2,19,4,-1,-1
1512354122429839,0,-4,-4,7,10,2,0,3
1512354122430839,0,0,-3,2,7,3,-1,-1
1512354122430839,-4,-1,0,-5,1,-3,-7,-9
1512354122443839,1,3,5,4,-17,-21,1,6
1512354122443839,-2,-11,-28,11,34,12,-2,-6
1512354122450839,-1,6,14,-24,-20,-3,2,7
1512354122450839,-2,-6,-15,-1,-12,-11,-5,-10
1512354122466839,0,1,7,16,2,3,-1,5
1512354122466839,-1,5,-2,-5,4,-1,-1,-3
1512354122468839,0,3,8,-13,-21,13,4,0
1512354122468839,0,-3,-5,8,5,2,-1,-2
1512354122489839,-1,-4,-12,-20,-23,-3,-1,-5
1512354122489839,-1,-2,7,13,-2,-1,-1,3
1512354122490839,2,8,3,-11,-19,-7,-2,17
1512354122490839,-3,-7,-14,-5,-6,1,1,-13
1512354122503839,-1,0,0,-2,1,3,4,14
1512354122503839,1,6,9,9,40,1,-1,-12
1512354122510839,-6,-9,-7,7,20,0,-3,-2
1512354122510839,0,-2,3,-1,7,2,2,1
1512354122526839,-4,-1,-6,11,2,-5,-6,1
1512354122526839,1,2,6,-11,-20,5,0,-2
1512354122528839,-1,-2,6,-8,-2,-6,-6,0
1512354122528839,0,5,-7,12,30,4,0,-11
1512354122549839,-3,-10,-8,3,-10,1,0,10
1512354122549839,-3,-4,-2,-6,-31,-6,1,0
1512354122550839,2,2,4,3,28,1,-3,-3
1512354122550839,-2,5,15,-3,-8,-9,-5,-3
1512354122563839,1,-3,-6,2,-8,21,8,6
1512354122563839,0,-2,-9,-7,25,-1,-5,8
1512354122570839,1,4,7,13,6,-6,0,-5
1512354122570839,-2,0,2,3,-9,4,0,2
1512354122586839,2,-3,-9,-6,8,-3,-5,-7
1512354122586839,3,-3,1,-4,-15,-6,1,7
1512354122588839,0,1,-2,9,8,7,1,-6
1512354122588839,-2,-5,-2,-4,4,-3,-1,3
1512354122609839,-1,5,6,16,-3,-7,-3,-2
1512354122609839,-2,0,-7,-13,9,5,-2,-6
1512354122610839,4,2,5,19,25,-6,-3,6
1512354122610839,-3,0,3,-2,-35,-1,2,-1
1512354122622839,1,3,14,16,12,1,1,-3
1512354122622839,0,0,-18,-24,-28,-6,-2,-8
1512354122631839,-3,-4,-7,3,34,19,3,-3
1512354122631839,-2,-5,1,-13,2,-4,-3,3
1512354122646839,2,5,6,3,2,-4,-3,-1
1512354122646839,-3,-4,6,6,-37,-6,-5,-6
1512354122648839,0,1,-6,-5,4,5,-3,-7
1512354122648839,0,-3,2,5,-1,1,2,11
1512354122669839,0,-7,-16,-10,18,3,3,-6
1512354122669839,-1,-1,4,5,-2,-9,-5,-3
1512354122670839,-2,-1,-6,-5,-20,-2,2,1
1512354122670839,-2,-1,0,4,-4,0,0,-3
1512354122683839,3,4,1,-24,4,-5,-4,1
1512354122683839,-5,-4,4,7,-4,5,2,2
1512354122697839,-2,-2,5,-5,-4,-9,-2,-6
1512354122697839,2,6,-6,8,22,3,-1,3
1512354122706839,-5,-3,-1,-17,-48,-8,-2,-6
1512354122706839,0,-12,-21,-4,15,14,5,11
1512354122708839,-2,4,6,0,-12,-9,0,1
1512354122708839,1,1,-1,-15,-2,0,-3,-6
1512354122729839,2,5,11,30,14,-2,0,6
1512354122729839,0,-2,-4,-25,42,-2,1,-4
1512354122730839,-3,-1,22,-3,-41,7,0,0
1512354122730839,-1,-2,-40,-2,0,-3,-5,-10
1512354122742839,0,-7,1,5,-6,-7,3,13
1512354122742839,1,8,10,8,-5,-3,1,-7
1512354122751839,-3,-8,-20,-8,-5,-6,-2,7
1512354122751839,-1,-1,10,-4,12,0,1,-4
1512354122766839,-3,0,3,-6,-10,-3,-2,-3
1512354122766839,-2,0,-3,4,-15,-3,-1,-1
1512354122768839,4,5,2,-7,-13,-1,2,2
1512354122768839,-1,-2,4,1,-6,-2,0,1
1512354122789839,3,4,-5,-7,3,-2,-1,-6
1512354122789839,0,4,14,-5,2,1,3,3
1512354122790839,-3,-8,-10,-8,-4,-14,-3,-9
1512354122790839,-1,-6,6,15,49,2,-3,0
1512354122811839,0,0,-15,4,3,-3,-3,-6
1512354122811839,3,1,0,3,-14,3,0,7
1512354122812839,-2,5,18,6,-16,-5,-3,-2
1512354122812839,0,-1,-10,-11,-18,5,0,-1
1512354122826839,2,3,5,3,-2,3,1,7
1512354122826839,-7,-13,-12,6,0,-17,-7,-6
1512354122826839,-3,-7,-10,5,15,11,3,-1
1512354122826839,2,7,17,-14,-64,-2,0,3
1512354122848839,-1,2,0,-14,-3,5,-3,-9
1512354122848839,-1,2,4,3,-5,-4,-6,-1
1512354122849839,2,-1,-2,3,-3,-1,0,-2
1512354122849839,-2,-1,-5,1,6,-1,0,-2
1512354122871839,-1,-5,-4,4,10,-1,-2,-1
1512354122871839,3,5,2,-14,-10,6,5,2
1512354122872839,-2,1,0,1,9,-4,-4,-4
1512354122872839,0,1,7,2,7,-2,2,2
1512354122886839,-6,-6,1,-1,-5,0,-2,-1
1512354122886839,2,3,-6,9,8,-6,-3,-10
1512354122886839,1,1,-4,-3,4,-1,2,9
1512354122886839,-1,0,-3,0,4,3,0,0
1512354122908839,-1,12,43,2,4,1,-2,-2
1512354122908839,-5,-18,-46,0,-3,-6,-3,-6
1512354122909839,2,5,-3,9,22,11,2,2
1512354122909839,-2,-10,-6,-7,17,6,1,0
1512354122931839,2,0,7,6,17,6,3,6
1512354122931839,-2,13,23,9,4,-11,-3,-3
1512354122931839,-2,-4,-16,-13,-5,-10,-5,-4
1512354122931839,-3,-10,-5,5,-17,-4,-2,-5
1512354122946839,2,3,-2,-15,-5,2,1,2
1512354122946839,-3,-2,-3,-8,-6,-2,-2,-8
1512354122946839,2,4,10,10,21,1,2,12
1512354122946839,-1,-6,-8,-2,-6,-2,1,-4
1512354122968839,-3,-6,-14,-2,-3,-7,1,-4
1512354122968839,-1,4,3,-1,-16,6,2,2
1512354122976839,-2,-4,6,-3,-2,-5,-3,-8
1512354122976839,0,4,4,3,-21,-5,-3,4
1512354122991839,-3,-9,-13,15,44,10,0,-3
1512354122991839,2,3,10,3,-1,0,0,4
1512354122991839,-5,-3,-4,-3,-19,-3,-1,-11
1512354122991839,0,1,2,-8,-5,-15,0,5
1512354123006839,2,-5,-14,-7,-23,-3,-2,0
1512354123006839,2,2,5,1,-1,2,1,-1
1512354123006839,0,0,1,-7,8,10,-1,0
1512354123006839,-2,4,0,4,7,-14,-1,-2
1512354123028839,0,-2,-4,-7,-35,-11,-5,-1
1512354123028839,-3,-2,1,9,25,-3,-3,-1
1512354123029839,1,2,-1,2,-7,-6,-1,-1
1512354123029839,1,1,-3,0,1,4,1,5
1512354123051839,-4,0,7,7,10,4,2,-2
1512354123051839,0,-3,-12,-9,-12,-6,-3,0
1512354123051839,-4,-3,-6,-3,14,10,-3,-4
1512354123051839,4,8,15,-1,-9,13,3,8
1512354123066839,-2,-7,-20,3,16,6,1,-2
1512354123066839,-2,-7,4,-4,-12,2,4,1
1512354123066839,2,-1,-3,-3,-18,-16,-4,-4
1512354123066839,-2,-1,-2,0,-4,19,-1,-5
1512354123088839,0,0,0,0,2,-6,1,4
1512354123088839,1,2,6,-5,-26,-1,1,0
1512354123089839,-3,-1,-2,-1,12,1,-2,2
1512354123089839,0,-2,0,11,4,2,-1,-2
1512354123111839,1,2,1,2,9,0,0,-1
1512354123111839,-1,-1,14,11,10,6,-1,-6
1512354123111839,-1,-6,-19,-3,-2,-7,5,11
1512354123111839,2,-2,-8,-3,8,-9,-7,-7
1512354123126839,1,2,7,1,12,2,-1,3
1512354123126839,1,3,1,0,11,1,0,3
1512354123126839,-1,1,6,-8,-9,0,-1,-7
1512354123126839,-2,-3,2,-3,8,-3,0,-3
1512354123148839,-1,-1,-1,-4,-12,0,2,7
1512354123148839,1,-3,-3,5,-1,4,0,1
1512354123149839,-1,3,5,4,-8,-5,-1,-1
1512354123149839,0,-2,-4,-5,-1,-9,-1,-3
1512354123171839,2,5,18,1,-17,-6,-2,-1
1512354123171839,0,0,-17,-5,-18,-2,-2,-4
1512354123171839,2,-5,-5,0,25,6,1,4
1512354123171839,-1,2,6,2,15,-2,0,2
1512354123186839,-6,-2,-5,-1,-1,-3,-7,-18
1512354123186839,4,5,6,4,4,7,4,15
1512354123186839,-2,-3,-1,3,-17,-12,-2,-1
1512354123186839,1,2,11,-9,-1,21,3,-3
1512354123208839,-3,-5,-22,-2,5,-1,0,1
1512354123208839,-4,-1,5,-2,6,-4,-5,-15
1512354123209839,3,1,0,2,-4,2,2,9
1512354123209839,-1,-5,-2,-9,-3,-3,-1,2
1512354123231839,3,3,6,-2,-8,-1,0,0
1512354123231839,-4,-3,-2,-4,3,3,-3,-2
1512354123231839,0,3,4,4,2,1,-2,2
1512354123231839,-1,0,-8,-3,-18,-9,-6,-5
1512354123254839,-1,-1,5,11,15,-2,1,9
1512354123254839,2,2,0,-8,8,-5,-2,0
1512354123255839,-2,-3,-6,0,7,-8,-1,-9
1512354123255839,-1,-7,-9,-1,-2,-1,1,3
1512354123268839,-3,1,0,-10,-18,-17,-2,-3
1512354123268839,-2,-3,2,2,-4,22,3,0
1512354123269839,0,3,4,5,12,3,1,-1
1512354123269839,0,4,4,3,8,0,2,2
1512354123291839,-4,-4,-10,0,6,-1,-1,-4
1512354123291839,-3,-2,1,-9,-19,-5,0,-3
1512354123291839,-1,0,0,-11,-10,3,-2,0
1512354123291839,-3,-1,9,7,5,-2,-2,-2
1512354123306839,1,0,-11,-11,-11,-3,-2,-7
1512354123306839,3,1,3,-1,16,1,2,8
1512354123306839,0,0,-2,9,-13,1,1,-7
1512354123306839,-4,-3,3,4,5,-2,-1,1
1512354123328839,-2,-2,1,10,21,7,-2,1
1512354123328839,0,-1,-3,-5,-2,-8,-1,-2
1512354123329839,-1,-1,-3,-3,-14,6,2,2
1512354123329839,-1,2,-1,3,16,-13,-6,-4
1512354123351839,-1,-1,1,0,-13,24,6,5
1512354123351839,-2,-2,-8,1,4,5,-1,-3
1512354123351839,-1,2,4,2,8,-4,-4,-2
1512354123351839,-1,-4,-9,-5,-18,-2,1,4
1512354123366839,2,-2,-2,1,4,-3,-2,-4
1512354123366839,-1,-7,-6,0,8,-5,1,0
1512354123366839,1,2,0,-4,-5,4,1,2
1512354123366839,-1,-3,-4,-3,-5,-2,-1,-1
1512354123388839,-1,1,2,-5,-8,-2,0,-1
1512354123388839,0,0,3,5,13,5,2,0
1512354123389839,1,1,-2,-8,-27,-13,-3,-2
1512354123389839,2,4,0,4,6,10,3,-1
1512354123411839,-2,-2,4,2,-17,1,-3,2
1512354123411839,-1,2,1,0,1,-13,-3,-1
1512354123411839,-3,-4,-4,3,-6,1,-1,-1
1512354123411839,1,4,-2,-11,12,-3,-2,0
1512354123426839,1,-1,0,-5,4,12,2,-3
1512354123426839,0,-2,-3,1,-12,-4,3,1
1512354123426839,-3,-1,2,0,-3,-1,-1,-2
1512354123426839,-1,-3,-2,4,7,6,2,1
1512354123448839,-2,-3,-1,-6,-5,-19,-3,-1
1512354123448839,2,5,16,1,12,30,2,0
1512354123449839,-2,-2,-1,1,18,-2,-2,0
1512354123449839,-1,-15,-24,2,-4,-6,-1,0
1512354123471839,1,1,1,-1,-4,-9,0,0
1512354123471839,-2,2,3,0,-5,-5,-2,0
1512354123471839,-1,2,5,-7,-10,0,-1,-1
1512354123471839,-1,5,10,2,-29,-2,2,-1
1512354123486839,1,-1,-3,7,54,16,2,-2
1512354123486839,-1,-7,-10,-6,-3,-23,-3,4
1512354123486839,0,1,0,4,11,7,1,-5
1512354123486839,-2,1,-1,-3,-22,-6,-4,-1
1512354123508839,1,3,12,-3,-11,-5,-2,-3
1512354123508839,-2,1,-20,3,-1,-2,-1,-4
1512354123509839,-2,-7,-1,1,12,8,1,-1
1512354123509839,3,3,8,1,26,-7,-1,-1
1512354123531839,-1,-1,-8,4,-7,6,-1,-1
1512354123531839,-2,-4,6,4,12,3,-1,-3
1512354123531839,2,6,3,-1,-5,-9,2,3
1512354123531839,-5,-8,-8,6,33,15,1,-5
1512354123546839,1,2,-4,-7,-17,-7,-1,4
1512354123546839,-2,1,-2,-4,-12,-4,0,-1
1512354123546839,1,1,-4,-1,3,-2,-5,-3
1512354123546839,0,2,8,-3,-5,-1,-1,0
1512354123568839,1,4,7,1,-3,2,2,0
1512354123568839,-4,-13,-14,-9,-3,-6,-4,-4
1512354123569839,2,1,-7,3,-15,-1,3,2
1512354123569839,0,-2,-5,8,23,3,0,-2
1512354123591839,0,0,5,-2,-6,-5,-3,3
1512354123591839,2,5,8,-1,-6,-7,0,3
1512354123591839,-3,-2,-1,-2,1,-2,1,-3
1512354123591839,2,5,17,-2,-21,-2,-1,1
1512354123605839,-4,-11,-26,-4,11,-3,0,-2
1512354123605839,2,6,6,3,10,-4,-2,2
1512354123606839,2,1,8,0,0,5,-1,1
1512354123606839,0,-3,-9,-5,-11,-2,-1,-1
1512354123628839,-2,2,12,1,-6,-13,-4,-4
1512354123628839,2,6,15,-3,-14,7,1,0
1512354123629839,-2,-6,-31,-11,-2,-2,0,1
1512354123629839,-1,0,5,9,8,3,0,-2
1512354123651839,-4,-2,-3,-7,-23,3,0,1
1512354123651839,-1,-2,-7,3,7,-1,0,-1
1512354123651839,1,5,18,-7,-30,0,1,-1
1512354123651839,-1,1,-3,-6,-11,-4,-1,-3
1512354123666839,-2,-5,-10,9,35,3,1,-1
1512354123666839,1,6,8,-3,-11,5,0,-3
1512354123666839,-1,-7,-5,4,35,-8,-5,-3
1512354123666839,-1,-3,-8,-4,-5,1,-1,1
1512354123688839,1,6,9,-4,-35,-4,-1,-4
1512354123688839,-4,-16,-15,1,31,-2,-3,-1
1512354123689839,2,1,4,-2,-5,1,1,2
1512354123689839,0,-4,-6,2,3,0,1,-1
1512354123710839,0,4,7,-2,-17,2,1,1
1512354123710839,2,2,2,10,9,-1,1,1
1512354123711839,-5,-6,-9,-7,-6,-1,0,-3
1512354123711839,0,2,5,-3,-1,0,-1,0
1512354123725839,-2,-5,0,0,5,-3,-2,-3
1512354123725839,-1,-1,-1,-2,-22,-6,-3,1
1512354123733839,-2,1,6,5,14,10,0,-1
1512354123733839,0,5,-7,-10,-17,-8,-2,1
1512354123748839,0,0,3,-6,-10,-1,-4,-1
1512354123748839,-4,-9,-20,0,-4,-2,-2,-3
1512354123749839,2,1,6,11,44,1,-1,2
1512354123749839,-5,0,3,-6,-6,6,2,-5
1512354123771839,1,3,2,1,-3,-6,-3,0
1512354123771839,-5,1,4,1,6,3,1,-3
1512354123771839,-6,-8,-4,10,6,-8,-9,-4
1512354123771839,3,1,2,4,14,3,2,2
1512354123785839,1,3,-1,-1,-6,-2,-2,-5
1512354123785839,-1,-7,-6,-5,-74,-14,-1,2
1512354123793839,3,1,1,3,9,8,0,1
1512354123793839,1,2,4,-6,12,1,-3,-2
1512354123808839,1,1,1,3,35,4,2,1
1512354123808839,-12,-2,-9,-7,-16,2,-5,-18
1512354123809839,3,-4,-5,-12,-25,-10,1,5
1512354123809839,2,5,10,17,-16,-7,-1,1
1512354123831839,-3,-6,-13,-4,23,3,3,1
1512354123831839,3,8,14,4,6,7,-2,2
1512354123831839,-2,2,2,-3,-3,2,-2,-1
1512354123831839,-6,-2,-2,-4,-17,-2,-2,-8
1512354123845839,3,-2,3,5,33,4,-1,2
1512354123845839,4,1,-4,3,16,-10,-1,4
1512354123853839,-3,-5,-6,-2,-5,-7,-4,-4
1512354123853839,6,4,1,-6,-19,20,3,6
1512354123868839,-5,-4,1,0,-10,-8,-2,-2
1512354123868839,1,0,-2,0,16,2,1,-1
1512354123869839,-1,3,2,1,-10,-8,-1,0
1512354123869839,-2,-4,4,-4,12,-5,2,1
1512354123891839,-4,-4,-13,-2,-8,9,-1,-5
1512354123891839,6,2,-1,-1,6,-7,-2,7
1512354123891839,-1,2,5,1,13,-4,2,-2
1512354123891839,2,1,11,-10,-23,-4,-1,2
1512354123905839,3,6,3,7,-6,-9,-3,-2
1512354123905839,-3,-4,-9,2,2,10,1,1
1512354123913839,1,-1,2,7,2,2,1,2
1512354123913839,-2,0,5,13,18,-1,-2,1
1512354123928839,-2,-5,-22,-49,-25,-12,-1,3
1512354123928839,3,9,13,-1,-4,-2,0,1
1512354123929839,1,5,3,7,21,12,2,1
1512354123929839,-3,-7,-14,5,5,-1,-4,-3
1512354123950839,1,4,24,38,-12,-7,-3,3
1512354123950839,-2,-4,-14,-17,30,9,3,0
1512354123951839,-6,-5,-3,-10,0,6,3,-9
1512354123951839,0,-4,-4,13,3,-14,-4,1
1512354123965839,-1,-4,-7,-14,6,12,4,1
1512354123965839,3,0,3,12,7,3,1,3
1512354123973839,-6,-2,-2,-10,-41,-9,-8,-9
1512354123973839,1,1,5,-8,4,-2,0,0
1512354123988839,-2,-4,-6,-2,-12,-1,0,-4
1512354123988839,-5,-11,-9,10,21,-4,-1,-2
1512354123989839,4,0,-2,-23,-57,-16,0,2
1512354123989839,2,3,-1,-8,-48,24,5,4
1512354124010839,-2,5,17,-2,38,4,-1,-5
1512354124010839,5,7,9,-6,-16,1,3,1
1512354124011839,4,1,-10,12,-7,4,3,4
1512354124011839,-5,-9,-7,1,20,-11,-6,-4
1512354124025839,0,2,10,39,8,13,6,1
1512354124025839,-3,1,18,0,-27,-1,-3,-1
1512354124033839,1,-3,-42,-62,27,-3,4,2
1512354124033839,0,2,2,1,7,0,-3,-3
1512354124048839,-1,-3,-8,-4,-6,-1,-1,0
1512354124048839,-3,1,18,32,12,0,0,-5
1512354124049839,-2,-2,15,18,-26,0,-6,-2
1512354124049839,4,-2,-21,-11,7,1,3,4
1512354124070839,-8,-4,-2,-9,-7,-5,-5,-4
1512354124070839,1,0,0,-11,22,3,2,1
1512354124071839,4,4,16,17,4,1,3,6
1512354124071839,-1,-1,-13,-20,6,0,-3,0
1512354124094839,2,-2,-3,1,2,-14,-4,0
1512354124094839,2,1,0,1,-2,12,0,-1
1512354124094839,-1,1,2,7,19,-3,-1,-1
1512354124094839,-2,-3,3,7,2,-7,3,3
1512354124108839,-5,-7,5,20,20,5,-5,1
1512354124108839,-1,-1,-12,-32,-16,-13,-1,0
1512354124109839,-1,0,-1,2,10,0,0,-2
1512354124109839,-2,-1,1,1,-11,3,-1,-4
1512354124131839,-1,0,-1,-11,-20,-2,-2,-3
1512354124131839,-3,-3,4,28,27,5,-1,-1
1512354124131839,-1,2,4,-14,14,8,0,2
1512354124131839,-2,-1,-3,20,3,0,1,-4
1512354124154839,3,1,-5,-15,-17,-5,-3,1
1512354124154839,-1,-1,-6,-18,-14,-9,-3,-2
1512354124154839,2,-2,4,14,23,0,-1,3
1512354124154839,-4,0,2,-5,-6,-8,-5,-1
1512354124168839,0,1,-12,-21,-2,-2,2,-1
1512354124168839,-1,-4,0,19,-14,-3,-5,-1
1512354124169839,-4,-3,4,7,-1,1,-1,-2
1512354124169839,-2,-1,-7,-13,11,-3,0,-3
1512354124190839,-3,-1,2,4,0,5,-2,0
1512354124190839,1,2,-8,-26,-5,-6,3,2
1512354124191839,-4,-3,3,21,-4,0,0,-2
1512354124191839,0,0,4,4,-12,-2,-2,-2
1512354124214839,0,2,-2,-1,-1,-3,0,-2
1512354124214839,2,0,-2,-1,-5,-3,-2,-4
1512354124214839,0,-2,3,12,42,-1,-4,-2
1512354124214839,2,4,2,-7,-36,-2,0,1
1512354124229839,0,0,-2,-12,-11,-7,1,3
1512354124229839,-3,-3,0,-7,-19,-16,-6,-4
1512354124229839,1,-1,-5,-4,-16,32,6,4
1512354124229839,-1,-1,-1,-11,38,-1,-3,-2
1512354124250839,-1,-3,4,19,3,4,3,0
1512354124250839,-1,-1,-5,-4,3,-3,-1,2
1512354124251839,1,0,-3,-17,-33,-11,-1,-2
1512354124251839,-2,-1,-2,5,8,2,1,0
1512354124274839,2,-1,2,-6,-6,-1,1,0
1512354124274839,-3,-1,0,8,22,13,0,0
1512354124274839,0,2,-2,0,-11,-17,-5,-3
1512354124274839,-2,-4,0,5,9,5,0,-1
1512354124288839,-1,-1,-2,4,-10,-10,-1,-2
1512354124288839,1,2,0,-8,-2,2,1,-2
1512354124289839,-3,-2,2,11,-1,0,-1,-3
1512354124289839,1,-1,-3,-8,5,-4,0,1
1512354124311839,-1,0,0,1,-11,-5,0,-2
1512354124311839,-2,-1,-1,-1,-2,0,-3,0
1512354124311839,0,0,1,-2,-5,-2,-3,-2
1512354124311839,1,0,1,4,0,-2,-2,1
1512354124334839,-1,0,0,-4,9,4,0,-1
1512354124334839,0,-1,-2,0,1,0,-2,1
1512354124334839,-5,-2,-2,5,3,-10,-1,-2
1512354124334839,-1,0,2,-2,-26,-12,-1,2
1512354124348839,-1,2,-4,-1,32,11,5,-1
1512354124348839,2,2,3,-3,-15,1,1,-2
1512354124349839,-1,-4,-5,-3,-10,-5,-4,2
1512354124349839,0,1,3,4,11,3,-1,-3
1512354124370839,-1,-3,-4,-11,-24,-1,-2,-3
1512354124370839,0,0,-4,8,22,-2,1,1
1512354124371839,1,0,1,-3,-20,-3,-1,0
1512354124371839,-1,-2,1,2,17,9,-2,-1
1512354124394839,0,3,8,-3,-11,-9,-1,1
1512354124394839,-1,6,0,-3,-47,-5,-1,-5
1512354124394839,-6,-23,-28,-7,1,0,-2,-3
1512354124394839,-2,2,0,-1,-4,3,2,0
1512354124408839,2,1,4,14,10,2,-3,3
1512354124408839,-5,-2,0,-3,-10,-3,-1,2
1512354124409839,0,6,9,-4,-8,-7,-1,-1
1512354124409839,-2,-1,0,2,4,8,0,0
1512354124430839,-5,-5,-10,-11,-15,-6,-2,-1
1512354124430839,1,3,5,0,-4,2,-1,-3
1512354124431839,3,3,2,-2,5,3,-1,-1
1512354124431839,-2,-4,-3,-6,-9,-11,-3,-2
1512354124454839,2,0,3,18,55,-2,0,1
1512354124454839,1,-3,-3,0,-7,7,3,1
1512354124454839,-3,1,4,-5,31,8,1,-1
1512354124454839,3,0,-2,3,-21,-6,-2,0
1512354124468839,-1,-3,-3,-4,-19,3,0,-1
1512354124468839,-2,-3,-2,5,13,-6,-3,-2
1512354124469839,2,3,4,2,11,6,1,-1
1512354124469839,-2,0,-1,15,27,-1,-1,-3
1512354124490839,2,0,1,-13,-58,-2,-2,1
1512354124490839,-2,-5,-7,-6,23,0,0,0
1512354124491839,0,3,9,0,-17,0,1,-1
1512354124491839,-3,-2,-3,-3,8,-7,-2,-3
1512354124513839,0,3,-1,-8,-4,1,0,-2
1512354124513839,-1,-5,-2,-1,-7,-1,-2,2
1512354124514839,2,2,12,-2,-11,-5,-3,0
1512354124514839,2,3,-10,-1,11,0,0,-2
1512354124528839,-2,-2,4,3,-5,0,2,1
1512354124528839,-2,-4,-5,-4,-7,-7,-4,-1
1512354124529839,-2,-2,-5,2,18,15,3,0
1512354124529839,0,0,2,-7,-12,-3,-2,1
1512354124550839,1,3,3,-5,-11,-2,-3,0
1512354124550839,1,-2,1,11,54,12,2,2
1512354124551839,0,0,-2,-1,-23,-10,-4,1
1512354124551839,-2,0,3,2,-13,-1,2,0
1512354124574839,-1,-2,-6,-1,11,6,0,-3
1512354124574839,1,-5,-6,-2,2,-6,2,0
1512354124574839,0,4,-2,-4,-8,6,2,1
1512354124574839,-3,-14,-12,-14,-19,-10,-1,0
1512354124588839,1,2,7,3,10,3,-2,-1
1512354124588839,-1,1,0,-8,0,1,1,1
1512354124589839,-4,1,0,2,18,-18,-3,-2
1512354124589839,-4,0,4,-2,-6,29,4,-1
1512354124610839,2,0,-1,0,-8,2,-1,6
1512354124610839,-1,0,2,-6,-17,-3,-3,-4
1512354124611839,-1,0,-2,5,1,-3,-1,-1
1512354124611839,0,-1,-5,-7,-11,-10,-4,1
1512354124641839,-3,-4,-7,-1,13,-8,-2,-2
1512354124641839,0,3,4,8,13,6,2,2
1512354124642839,-2,-4,-3,-7,-17,-1,0,1
1512354124642839,1,1,2,2,-7,-16,-2,-1
1512354124648839,-2,0,1,-4,13,23,1,-2
1512354124648839,3,4,3,4,4,-3,-2,1
1512354124649839,-1,-4,-2,7,8,3,0,0
1512354124649839,-2,-2,1,2,11,-3,-3,-2
1512354124670839,-2,0,-3,-6,-1,0,1,-1
1512354124670839,-1,0,8,-3,-20,6,4,1
1512354124671839,-2,2,-9,-1,2,-10,-6,-1
1512354124671839,-3,-4,-3,-8,-20,6,1,1
1512354124694839,0,-5,-1,4,17,-8,-1,0
1512354124694839,0,0,-3,-5,-26,1,-3,-2
1512354124694839,-1,1,6,-2,3,1,1,-1
1512354124694839,0,2,3,0,7,13,0,-1
1512354124707839,-2,-3,-5,-3,-14,-16,-1,-3
1512354124707839,1,0,2,0,-4,7,1,0
1512354124716839,-1,-1,-3,-1,-3,-8,0,0
1512354124716839,-2,-1,-1,2,2,-3,-1,0
1512354124730839,-2,-3,0,9,9,-2,-2,-2
1512354124730839,-3,0,-1,-2,19,7,2,-2
1512354124731839,-3,-1,0,-1,9,-3,1,0
1512354124731839,1,1,2,5,3,-3,-2,1
1512354124754839,0,-1,-2,-2,-5,15,2,-2
1512354124754839,0,0,0,-2,-12,-14,-2,-1
1512354124754839,-1,-5,-5,2,8,10,-2,-4
1512354124754839,0,0,3,-1,11,-6,-3,0
1512354124767839,0,-1,0,-3,-14,-11,1,0
1512354124767839,-3,-1,-3,4,9,6,0,-1
1512354124775839,-1,1,-2,-9,-6,3,1,-1
1512354124775839,0,0,2,4,10,0,-1,0
1512354124790839,-1,1,-1,3,2,4,-1,0
1512354124790839,-2,-3,-2,3,5,-2,1,-3
1512354124791839,2,-2,0,-14,-33,2,-1,2
1512354124791839,1,1,3,14,58,3,-2,-3
1512354124814839,-2,0,-2,-1,-3,-6,-1,3
1512354124814839,0,-2,-1,0,6,-6,0,1
1512354124814839,-1,-1,-2,-2,-20,5,-2,-1
1512354124814839,-2,2,1,6,22,3,3,-3
1512354124827839,-2,-2,1,1,-20,-13,-1,0
1512354124827839,-1,1,-7,0,9,-1,-3,-3
1512354124835839,-2,-4,0,7,8,-3,-1,-2
1512354124835839,0,1,3,-5,-19,1,1,0
1512354124850839,0,-2,-1,-6,-8,-8,0,0
1512354124850839,-2,-4,-3,-6,-16,-2,-1,-1
1512354124851839,2,2,-2,0,2,3,2,0
1512354124851839,0,-1,-1,-5,-57,-13,-3,-1
1512354124873839,-2,-1,2,-1,12,6,-1,0
1512354124873839,-3,-4,-4,-11,-16,-18,-4,-3
1512354124874839,0,1,4,12,20,19,2,0
1512354124874839,0,0,-1,-2,4,-4,0,1
1512354124887839,1,0,-2,1,0,3,-1,-2
1512354124887839,0,0,1,3,2,-5,-6,3
1512354124895839,-1,-1,0,-4,-2,-13,0,-1
1512354124895839,0,-2,-4,-2,-1,1,-1,0
1512354124910839,-2,-3,-2,-5,-11,-5,-2,-2
1512354124910839,1,0,1,1,13,2,0,-3
1512354124911839,1,1,4,3,8,-1,1,0
1512354124911839,-2,-1,-2,-5,-15,6,-1,0
1512354124933839,-1,0,0,-9,12,0,-1,-1
1512354124933839,-2,0,3,0,8,-1,1,-1
1512354124934839,-1,-1,-2,0,3,-5,-2,-4
1512354124934839,0,-3,-2,2,0,-4,0,0
1512354124947839,0,1,-2,-7,-27,-1,-1,-1
1512354124947839,0,0,-1,-2,-9,15,3,1
1512354124955839,0,-1,-1,-1,6,0,-2,0
1512354124955839,0,-3,-2,-3,-4,-14,1,-3
1512354124970839,-1,-2,-2,-4,2,8,-2,-1
1512354124970839,0,2,5,17,27,0,0,0
1512354124971839,-1,-1,-3,-5,-22,2,1,2
1512354124971839,0,-2,-3,-3,-5,3,1,-3
1512354124993839,0,-1,0,1,7,-2,-2,1
1512354124993839,0,-2,-3,-10,-43,-8,-1,2
1512354124994839,1,0,1,5,15,-2,-3,-3
1512354124994839,1,0,0,-3,1,1,0,0
1512354125007839,-1,-2,1,3,0,3,1,1
1512354125007839,-2,0,-1,-1,1,-4,-3,-3
1512354125015839,0,-2,-2,0,5,-6,-3,-2
1512354125015839,1,1,-1,6,-2,1,-2,0
1512354125030839,0,2,2,7,12,2,1,-3
1512354125030839,-1,0,-1,-1,-5,-4,-1,2
1512354125031839,-3,-1,-2,-1,0,0,1,2
1512354125031839,0,0,0,-4,5,2,-1,-1
1512354125053839,-1,-2,0,2,-17,0,-2,0
1512354125053839,1,-1,0,0,-2,0,1,0
1512354125054839,0,-1,-1,-7,-16,2,2,1
1512354125054839,-1,-3,0,-2,-6,0,-2,-2
1512354125076839,-2,1,-1,2,10,-1,-1,1
1512354125076839,-2,-4,-5,-11,-25,-3,-1,-1
1512354125077839,-1,-1,-2,-3,17,15,2,2
1512354125077839,-1,1,2,-4,0,0,0,0
1512354125090839,0,2,2,2,26,0,-2,-1
1512354125090839,1,0,0,-6,-19,-3,1,1
1512354125091839,1,-2,-1,3,3,0,0,-2
1512354125091839,-1,1,0,-1,-5,-9,-4,-2
1512354125113839,0,-3,-1,1,-9,-2,0,0
1512354125113839,-1,0,-1,2,11,2,-1,-1
1512354125114839,0,0,1,-5,-12,-6,-1,-1
1512354125114839,1,1,-1,2,20,-18,-4,-1
1512354125136839,-1,-2,1,5,-14,18,2,-1
1512354125136839,0,2,1,2,8,11,5,0
1512354125137839,-1,-2,-1,-1,7,-6,-2,-2
1512354125137839,-2,-3,-3,-12,-22,-5,1,3
1512354125150839,-2,-3,-1,3,-1,-8,-2,0
1512354125150839,1,0,0,0,13,-1,-2,-1
1512354125151839,0,1,1,3,-8,-12,-6,0
1512354125151839,-1,0,-1,1,41,25,7,3
1512354125173839,1,-2,-3,-3,-41,-13,-2,1
1512354125173839,-1,-1,0,3,47,11,-3,-2
1512354125174839,0,-1,-2,2,-5,-7,-3,-2
1512354125174839,1,-1,0,3,1,-20,-6,-2
1512354125196839,0,1,2,2,12,-5,1,-1
1512354125196839,-2,-1,0,8,17,2,-4,-2
1512354125197839,-1,-1,-4,-2,-1,-6,-1,0
1512354125197839,-1,-3,-2,-3,7,-5,-4,-2
1512354125210839,0,0,0,3,13,1,3,1
1512354125210839,2,1,2,-6,-14,-7,0,0
1512354125211839,-2,0,1,0,5,-8,2,-1
1512354125211839,0,-1,-1,-1,-21,7,0,0
1512354125233839,1,1,-2,-8,-12,-14,-4,-4
1512354125233839,-1,-1,-2,-4,7,-5,1,1
1512354125234839,0,0,-1,-4,-12,3,0,-1
1512354125234839,-1,-1,-3,-1,-1,-3,-1,1
1512354125256839,-3,-1,-1,-2,13,6,2,2
1512354125256839,-3,-1,-1,-5,-39,5,-4,-2
1512354125257839,0,-2,0,5,-3,3,0,-2
1512354125257839,1,0,1,-3,-3,-5,-1,2
1512354125270839,0,-1,-3,-1,-2,2,1,2
1512354125270839,-1,-2,-1,-5,-10,-15,1,-1
1512354125271839,-2,0,-5,1,7,2,-3,0
1512354125271839,-3,1,3,-1,-10,16,1,-1
1512354125293839,1,-2,-1,6,10,-4,-2,-1
1512354125293839,0,-1,-2,-3,-6,-2,0,1
1512354125294839,-1,0,1,-3,11,4,2,1
1512354125294839,1,1,0,6,7,0,0,-3
1512354125316839,-1,2,-7,-20,-30,-11,-4,0
1512354125316839,-1,-4,2,9,20,32,3,-1
1512354125317839,-1,-2,-1,-2,-4,-4,-2,0
1512354125317839,-2,-1,0,-1,2,1,-1,-1
1512354125330839,-1,3,1,3,8,-1,-3,1
1512354125330839,-3,-2,-5,-7,-12,12,0,-1
1512354125331839,-1,-8,-4,0,-11,4,1,1
1512354125331839,-1,0,-2,-1,-4,-7,-5,1
1512354125353839,-1,-2,-3,-10,8,14,9,-1
1512354125353839,2,3,0,4,12,-21,-1,2
1512354125354839,2,2,2,-5,-22,10,3,0
1512354125354839,-3,-5,-3,-1,-10,-7,-3,-2
1512354125376839,1,-1,-1,3,2,-3,2,-1
1512354125376839,-1,0,0,-3,-13,-6,-2,1
1512354125377839,0,-1,1,-2,1,-16,-4,1
1512354125377839,1,-3,-2,3,18,27,6,0
1512354125390839,-1,-2,0,-3,-5,3,-4,-2
1512354125390839,-4,-1,-2,-6,-16,-15,-1,-2
1512354125391839,-3,-4,-7,5,5,1,0,-3
1512354125391839,1,4,13,12,7,-1,2,1
1512354125413839,-1,-2,-3,0,23,9,0,-2
1512354125413839,1,1,10,3,-4,-9,-2,0
1512354125414839,-1,6,-10,-16,-21,-7,-4,2
1512354125414839,-1,-2,-2,-1,16,17,2,-1
1512354125436839,-2,-4,-4,-3,-25,2,-3,-5
1512354125436839,-1,-1,-1,-2,9,-18,-6,-1
1512354125437839,3,3,7,2,14,22,0,-2
1512354125437839,1,3,5,-10,-38,0,4,2
1512354125450839,-1,-1,0,2,0,-6,-2,-2
1512354125450839,-1,-3,-3,-1,-5,-1,1,1
1512354125451839,-1,3,12,-2,0,-4,-2,-2
1512354125451839,1,0,-12,0,0,2,0,-3
1512354125473839,0,-13,-23,1,8,-3,1,1
1512354125473839,-2,-2,-4,2,-3,0,-3,-6
1512354125474839,0,-1,1,0,5,-1,-1,-2
1512354125474839,-1,3,7,4,2,-12,0,-2
1512354125496839,1,4,7,0,4,18,-1,0
1512354125496839,-2,-3,-10,-9,-15,-5,1,1
1512354125497839,-3,-6,-7,1,-11,-2,1,1
1512354125497839,-3,-5,-5,-8,-17,-14,-1,-1
1512354125510839,1,3,4,3,13,7,0,-2
1512354125510839,0,5,8,2,-1,-3,-3,-1
1512354125511839,-5,-7,-11,0,-16,-6,-4,-3
1512354125511839,-1,-1,-3,-7,-18,-10,-2,1
1512354125533839,0,1,7,9,44,10,0,0
1512354125533839,0,-1,6,-2,-12,4,2,-1
1512354125534839,3,6,-1,12,9,-7,0,2
1512354125534839,-3,3,23,4,9,0,0,-3
1512354125556839,-1,-2,-39,-8,-22,-18,1,11
1512354125556839,1,-7,-7,1,10,10,1,-3
1512354125557839,-3,-3,7,-2,10,-1,2,-3
1512354125557839,-1,-3,-9,-5,6,12,-1,-2
1512354125570839,1,11,35,7,-6,-16,-7,-3
1512354125570839,-2,-6,-13,-1,18,4,1,-1
1512354125571839,2,-2,-10,-4,-12,-17,-1,1
1512354125571839,3,6,0,8,39,12,1,0
1512354125593839,-2,0,10,-9,-17,-8,-3,-3
1512354125593839,-2,6,15,-1,-22,-11,-1,-2
1512354125594839,2,5,-9,1,-15,23,2,-1
1512354125594839,-4,-24,-25,2,75,16,3,2
1512354125616839,-2,-4,-5,-13,-22,-8,1,-1
1512354125616839,1,2,3,3,-1,-1,0,-2
1512354125617839,2,8,17,-3,10,6,3,6
1512354125617839,2,6,-1,-9,-44,-15,-3,-2
1512354125639839,-2,0,-8,6,2,6,1,-2
1512354125639839,-5,-15,-19,-6,-1,3,-5,-4
1512354125639839,-1,-3,4,4,26,-5,0,-2
1512354125639839,-2,-2,-8,-6,-39,-11,-3,-1
1512354125653839,0,0,10,6,15,8,3,-3
1512354125653839,1,8,1,-7,-16,-4,-2,3
1512354125654839,-4,-10,-6,1,-4,7,1,-2
1512354125654839,-2,-2,4,-1,12,-2,-2,-1
1512354125676839,1,2,4,-1,2,-1,-1,0
1512354125676839,3,9,24,1,-1,0,1,-2
1512354125677839,-4,-12,-34,-8,-2,-4,-2,-4
1512354125677839,-1,4,11,9,-10,-7,2,-1
1512354125690839,0,-1,-2,-1,-14,0,-1,-1
1512354125690839,-1,-5,-6,9,35,10,4,4
1512354125698839,3,13,18,-9,-30,-11,-2,-2
1512354125698839,-3,-4,15,14,14,-8,-1,0
1512354125713839,-2,-5,-20,3,38,12,2,-4
1512354125713839,0,4,9,3,-7,-1,-2,2
1512354125714839,0,7,23,4,-5,-5,1,2
1512354125714839,1,0,-33,-11,-13,1,-1,-3
1512354125736839,-1,-3,14,3,-25,-17,-3,-1
1512354125736839,-3,-3,-3,9,16,14,-1,-6
1512354125737839,-1,3,7,-3,10,1,2,8
1512354125737839,0,1,6,-4,-10,8,-1,-2
1512354125750839,2,15,-1,-5,-6,-5,-1,0
1512354125750839,-8,-32,-41,-2,5,-5,-5,-3
1512354125758839,0,-3,2,-3,-4,-6,0,-2
1512354125758839,-1,2,0,0,6,0,-2,1
1512354125773839,-2,-5,0,-8,-17,-2,1,1
1512354125773839,3,9,11,-1,-3,-3,0,2
1512354125774839,-2,-3,-10,4,22,-1,1,-2
1512354125774839,0,6,23,-7,-23,-3,-3,-1
1512354125796839,-4,-19,-57,-17,-17,8,1,-3
1512354125796839,2,5,12,9,-11,-12,-1,1
1512354125797839,-1,-4,-1,-1,1,1,1,-2
1512354125797839,0,-2,15,1,-23,-8,-3,0
1512354125810839,1,10,15,5,-3,3,0,-1
1512354125810839,-2,-24,-31,8,6,-5,0,1
1512354125818839,0,2,4,2,-14,-1,-1,-2
1512354125818839,0,1,-11,-5,-15,-13,0,-2
1512354125833839,1,3,17,-2,-24,-14,-6,1
1512354125833839,-2,4,4,-1,59,26,6,-1
1512354125834839,2,-12,-15,8,6,-4,-3,-1
1512354125834839,2,22,4,-4,-13,2,1,0
1512354125856839,-11,-59,-52,-2,26,-13,-4,-3
1512354125856839,4,13,24,-12,-27,6,8,6
1512354125857839,0,2,12,-9,-19,8,0,6
1512354125857839,2,9,11,-13,36,6,2,0
1512354125870839,5,27,38,9,-28,2,-1,-1
1512354125870839,-8,-18,-34,-7,25,18,-3,-3
1512354125878839,-10,-26,1,-12,-10,-9,-7,-6
1512354125878839,2,7,-20,1,-3,-2,-1,2
1512354125893839,-7,-24,-2,17,22,2,1,0
1512354125893839,2,11,10,-5,-4,-12,-2,-3
1512354125894839,2,13,5,-10,-43,-8,-2,0
1512354125894839,0,-1,21,5,4,5,-1,-1
1512354125916839,1,9,-21,-3,16,-2,0,0
1512354125916839,0,2,10,8,1,-6,-3,-1
1512354125917839,0,-1,-8,-2,18,16,3,-2
1512354125917839,-4,-11,-14,1,-7,-8,-1,-2
1512354125930839,0,9,23,0,3,2,-2,-2
1512354125930839,0,-2,-6,-6,-30,-19,-4,2
1512354125938839,1,6,-1,-2,3,-6,-4,-3
1512354125938839,-2,-11,-6,8,7,4,-2,-3
1512354125953839,1,3,9,1,5,-1,8,4
1512354125953839,-1,6,1,-7,-19,-8,-2,-3
1512354125954839,-2,2,-2,15,26,0,-4,-7
1512354125954839,-3,-8,-5,-2,-3,2,-1,-3
1512354125976839,-2,5,3,-4,1,-3,-1,1
1512354125976839,1,3,1,-7,-25,0,0,-2
1512354125977839,-2,-3,1,5,14,4,4,0
1512354125977839,-3,-9,-9,-5,-14,-7,-2,-4
1512354125999839,1,5,7,-4,-7,4,-3,-1
1512354125999839,1,5,13,5,8,-7,2,1
1512354125999839,0,-2,-17,9,-1,1,-3,-3
1512354125999839,2,4,10,-7,-17,-5,-1,5
1512354126013839,-3,-6,-12,-2,20,13,0,0
1512354126013839,-2,3,3,4,-5,-9,-2,0
1512354126014839,3,10,12,2,-1,3,-4,-1
1512354126014839,-6,-19,-24,-5,-5,4,0,1
1512354126036839,2,9,15,-3,1,-8,-1,-1
1512354126036839,1,-1,-4,-1,-6,-5,0,-3
1512354126037839,-1,-4,-1,-11,-9,-1,2,0
1512354126037839,1,2,0,11,-1,3,2,0
1512354126059839,1,12,26,2,21,6,0,0
1512354126059839,-3,-20,-40,-5,6,0,-3,0
1512354126059839,-3,0,8,3,3,-3,-3,-4
1512354126059839,1,4,-2,2,11,-2,2,0
1512354126073839,0,-5,-8,-2,-27,0,0,6
1512354126073839,2,6,19,-5,0,-1,0,-1
1512354126074839,1,9,3,0,12,7,2,2
1512354126074839,-2,-11,-3,-1,8,-7,-6,-5
1512354126096839,1,8,11,7,-4,-8,-2,-3
1512354126096839,0,1,-14,-5,-4,8,2,1
1512354126097839,0,-2,3,-3,-5,-3,1,-1
1512354126097839,-1,0,4,6,7,1,-1,1
1512354126119839,0,1,-5,-3,-9,-12,-1,0
1512354126119839,-1,-1,1,-3,-7,4,-2,-2
1512354126119839,-4,-3,2,-3,13,-5,-3,-1
1512354126119839,0,2,0,7,2,4,-3,2
1512354126133839,-2,-4,-5,-7,0,-2,1,0
1512354126133839,-2,3,4,3,7,3,2,-3
1512354126134839,0,-6,-11,-1,0,-3,3,-1
1512354126134839,1,-1,-1,-3,8,4,0,0
1512354126156839,-2,-4,-1,2,-8,-8,-4,-2
1512354126156839,0,3,8,5,10,6,-2,-4
1512354126157839,2,0,6,2,4,-5,3,18
1512354126157839,0,-3,-15,-4,-8,-2,-1,-2
1512354126179839,0,0,-11,-11,-1,-1,-1,-7
1512354126179839,0,10,32,3,-13,-5,0,3
1512354126179839,-7,-28,-47,6,9,8,-4,-7
1512354126179839,-1,5,17,0,-2,11,3,-1
1512354126193839,1,-1,-5,1,3,4,-4,0
1512354126193839,-1,-1,1,-9,32,0,0,-3
1512354126194839,1,13,27,15,1,-1,-1,-1
1512354126194839,0,-7,-15,6,13,-6,1,4
1512354126216839,-2,-3,5,-5,-9,-4,1,-3
1512354126216839,0,10,-3,-11,-20,3,2,2
1512354126217839,0,-9,-16,-5,4,-10,-4,-1
1512354126217839,-1,2,0,7,35,3,0,-1
1512354126239839,0,1,3,-1,1,17,1,0
1512354126239839,3,3,9,2,-15,-9,-5,1
1512354126239839,-1,6,2,0,-2,-6,-1,-1
1512354126239839,-1,0,-1,-7,-15,-2,-1,-1
1512354126253839,1,-2,-2,1,6,-10,-1,-2
1512354126253839,0,-2,0,2,-8,17,4,4
1512354126254839,-1,-8,-14,-9,-6,3,5,8
1512354126254839,-1,-3,3,-6,-1,1,-3,-2
1512354126276839,2,3,-3,3,4,-4,0,3
1512354126276839,-4,-11,-13,-1,0,-5,-3,-5
1512354126277839,-1,6,9,-9,-20,-1,-2,-5
1512354126277839,-1,2,7,6,-1,3,3,2
1512354126298839,0,-3,-9,-3,-5,11,1,-1
1512354126298839,-3,-5,-9,2,5,-12,-1,-1
1512354126305839,1,3,7,-7,-3,15,1,2
1512354126305839,-1,1,11,-13,-18,-12,-3,-3
1512354126313839,0,-3,-12,10,-3,2,0,-3
1512354126313839,2,-2,2,8,-3,-6,-2,1
1512354126314839,-1,1,3,-17,-30,-4,-1,-2
1512354126314839,1,4,-1,23,44,-3,-1,0
1512354126336839,0,-5,0,-4,21,11,1,3
1512354126336839,1,2,1,0,0,0,1,0
1512354126337839,1,-1,-3,2,13,-8,-3,-3
1512354126337839,0,-1,0,-3,-5,2,-3,-2
1512354126359839,-5,-4,8,-2,-6,-6,-3,-3
1512354126359839,-1,-4,-10,-6,2,4,1,1
1512354126359839,-1,3,10,14,20,2,0,-5
1512354126359839,-1,-2,-8,-16,-31,-1,1,-2
1512354126373839,2,0,2,6,8,-2,2,13
1512354126373839,-2,-4,-2,-2,-9,3,-2,-2
1512354126374839,1,8,2,3,5,-7,1,0
1512354126374839,2,4,6,0,-6,7,1,-1
1512354126396839,-2,-6,-11,-1,-9,-3,-2,-3
1512354126396839,0,1,0,7,16,-3,-3,-3
1512354126397839,1,-1,-3,-3,-2,0,0,1
1512354126397839,-3,1,10,-10,-12,-2,0,-2
1512354126419839,0,-1,-12,-1,-5,-1,-5,-1
1512354126419839,-1,-4,-12,-2,2,-11,-3,-3
1512354126419839,-5,-7,-9,7,22,8,1,-5
1512354126419839,-2,-4,-3,-8,-12,11,4,3
1512354126433839,-1,6,17,-3,-21,-8,-1,-2
1512354126433839,-4,-6,-9,-1,-18,-7,-1,-3
1512354126434839,-2,-6,2,-2,4,-8,-2,-1
1512354126434839,-2,-4,-6,-4,-6,2,-3,0
1512354126456839,-1,-2,0,2,15,-4,-1,-3
1512354126456839,2,2,-2,2,-8,5,-1,0
1512354126457839,-1,1,11,0,-16,-5,0,-4
1512354126457839,1,-3,-7,-3,-7,-8,-3,7
1512354126479839,1,2,0,1,10,4,-1,-5
1512354126479839,0,0,2,3,0,0,0,2
1512354126479839,-1,-1,-2,0,0,10,-2,-3
1512354126479839,-2,-2,-2,2,-7,-9,0,-2
1512354126501839,3,-3,-4,2,5,5,2,-1
1512354126501839,0,4,9,-3,-1,0,-1,-1
1512354126502839,-1,-3,-11,-15,-14,-10,-3,1
1512354126502839,1,5,10,6,-7,7,3,8
1512354126516839,-6,-5,-9,-1,9,0,1,-1
1512354126516839,0,-4,-1,-2,-6,3,1,1
1512354126517839,3,3,1,-4,-14,-5,-4,1
1512354126517839,-3,-4,-4,-3,13,-7,-3,-3
1512354126539839,0,1,5,-2,-10,-3,0,-1
1512354126539839,-3,-1,-1,0,-18,0,-4,-5
1512354126540839,-1,0,0,10,44,5,3,6
1512354126540839,-1,0,4,3,16,-2,0,-5
1512354126552839,1,3,13,3,-6,-13,-3,-1
1512354126552839,-4,-6,-15,-1,3,19,-1,-3
1512354126561839,1,5,4,0,-7,-4,-1,1
1512354126561839,0,-6,-6,0,9,-7,-3,-4
1512354126576839,0,2,2,2,15,12,1,0
1512354126576839,1,3,5,-3,19,7,1,2
1512354126578839,-1,2,3,-2,-8,1,-3,-1
1512354126578839,-2,-10,-12,0,11,-2,-1,-1
1512354126599839,0,2,-4,-2,-23,-9,-1,0
1512354126599839,2,0,-4,8,21,2,0,2
1512354126600839,0,0,1,-6,-27,2,0,-3
1512354126600839,1,8,-1,3,1,-10,-3,-6
1512354126612839,-2,-7,0,-3,-24,2,3,3
1512354126612839,1,2,1,-9,-12,3,3,2
1512354126621839,-2,-3,-5,-2,-5,1,-2,-1
1512354126621839,0,1,6,-4,2,0,-3,-1
1512354126636839,-1,1,2,1,14,2,-2,1
1512354126636839,-1,1,1,2,-19,-11,-4,0
1512354126638839,-1,-3,3,-7,-10,-2,2,-1
1512354126638839,1,-2,-5,-8,-13,-1,2,9
1512354126659839,-2,-3,-5,-3,17,12,0,-4
1512354126659839,-1,-3,3,8,12,-2,0,0
1512354126660839,-3,1,0,-5,-6,-9,-1,-4
1512354126660839,-2,-1,-4,18,22,7,-2,-2
1512354126672839,1,0,-3,-13,-32,-18,-2,0
1512354126672839,-2,-4,0,6,16,-6,-1,-1
1512354126681839,2,-1,0,10,16,-1,0,-2
1512354126681839,-2,0,-2,-8,-10,0,1,-1
1512354126696839,0,-2,1,1,7,1,1,-1
1512354126696839,-2,0,0,-1,13,-6,0,-2
1512354126702839,1,-1,3,12,19,16,2,1
1512354126702839,-2,-5,-5,-4,-15,-2,-1,-7
1512354126719839,1,0,1,3,2,-2,-3,0
1512354126719839,0,0,-7,-10,-7,6,2,4
1512354126720839,-2,0,2,-3,-16,-15,-4,-7
1512354126720839,2,1,-3,-8,9,5,3,11
1512354126732839,-1,-7,-3,-1,3,-4,-1,-2
1512354126732839,0,-1,1,-2,-12,-10,0,5
1512354126741839,-1,-4,-5,-6,-1,-1,2,0
1512354126741839,-1,4,5,-2,-11,-8,-4,-6
1512354126755839,-3,3,6,1,-2,-1,2,0
1512354126755839,0,-4,-8,-2,0,-3,-3,-1
1512354126762839,0,-2,1,0,-21,-4,0,2
1512354126762839,1,0,-2,0,27,3,-1,0
1512354126778839,-3,0,-2,-4,5,-3,0,-1
1512354126778839,0,3,8,5,-18,2,-1,-3
1512354126780839,1,0,2,-1,-4,6,0,2
1512354126780839,0,-2,-7,3,6,1,1,-1
1512354126792839,-2,-1,1,2,0,-5,-4,-3
1512354126792839,-2,2,3,-2,-2,-3,2,1
1512354126801839,-2,-4,-6,0,29,-3,0,2
1512354126801839,-1,-2,2,-1,-3,0,-1,-2
1512354126815839,1,1,-1,-5,-3,6,-1,-3
1512354126815839,0,3,5,-2,-7,1,0,-1
1512354126822839,0,-2,-8,-5,-7,-4,1,3
1512354126822839,-4,-6,-7,9,-2,-2,1,-1
1512354126839839,0,1,2,0,13,15,-1,-2
1512354126839839,0,0,0,-11,-12,-7,-2,-3
1512354126841839,2,4,4,0,0,-1,0,9
1512354126841839,1,2,4,-12,-15,-1,-3,-3
1512354126852839,-3,-6,-6,2,2,-4,1,-1
1512354126852839,-1,-4,-3,9,14,11,-1,-3
1512354126861839,-3,1,-2,-2,-9,-3,1,-7
1512354126861839,0,0,1,-2,-16,-6,0,2
1512354126875839,2,0,0,3,2,-4,0,-2
1512354126875839,0,0,0,-2,-7,-2,0,4
1512354126882839,-2,-4,-6,-13,18,11,-2,-4
1512354126882839,-1,-2,1,4,4,10,0,0
1512354126899839,1,1,2,-11,-15,-3,-1,-1
1512354126899839,-7,-10,-3,5,9,-9,-5,-2
1512354126900839,1,2,0,1,-23,-3,-1,1
1512354126900839,0,-2,2,3,2,-13,-2,-4
1512354126921839,0,3,0,-4,3,12,5,3
1512354126921839,-1,-1,0,-1,2,3,-2,-8
1512354126923839,0,-5,-2,1,1,0,3,3
1512354126923839,-1,3,3,-3,-18,-1,-2,3
1512354126935839,-4,-8,-8,3,-8,-5,-1,-2
1512354126935839,0,-1,-5,-2,3,-7,5,-1
1512354126942839,-2,-1,0,3,-5,-7,-7,-9
1512354126942839,1,0,0,-6,-11,6,-1,-2
1512354126959839,1,1,1,5,0,-5,-1,3
1512354126959839,-1,0,1,-1,5,2,0,-1
1512354126960839,0,2,1,-2,0,-2,3,-1
1512354126960839,-1,-5,-7,2,10,-2,0,-2
1512354126981839,-2,2,2,4,9,1,-4,-1
1512354126981839,1,1,3,-2,-15,-2,0,0
1512354126983839,-1,-9,0,5,18,-11,-3,-1
1512354126983839,-1,2,3,-1,-3,8,1,-1
1512354126995839,-1,0,0,0,-1,-1,-1,-4
1512354126995839,3,5,5,0,-3,-7,2,9
1512354127002839,-3,7,10,-6,-15,9,-3,-8
1512354127002839,-3,-5,-10,10,45,6,1,-1
1512354127019839,-1,-1,-4,-6,-5,1,1,0
1512354127019839,-1,1,0,-1,11,1,-2,0
1512354127020839,-1,-2,-2,5,17,-2,-2,-1
1512354127020839,-1,-2,3,-2,-10,-4,-3,-4
1512354127041839,0,-2,-3,1,-2,-7,4,0
1512354127041839,-1,-5,-6,-1,12,-1,0,-1
1512354127043839,-1,0,-2,4,17,9,-2,-1
1512354127043839,0,3,11,-11,-38,-2,0,-1
1512354127056839,1,1,-6,4,8,-1,-1,2
1512354127056839,-1,-3,5,-6,8,3,-2,-2
1512354127058839,1,1,2,6,0,7,0,1
1512354127058839,0,2,1,0,26,-10,-2,1
1512354127079839,3,1,8,-12,-35,-6,-3,3
1512354127079839,-1,2,-19,4,0,12,2,-2
1512354127080839,0,-3,-3,0,11,7,3,2
1512354127080839,-2,-2,-1,4,3,-5,-2,-2
1512354127101839,-3,0,-2,9,20,-3,2,10
1512354127101839,-1,5,27,0,-4,-12,-2,-6
1512354127103839,-2,-2,-16,-12,-24,-2,-4,-2
1512354127103839,-2,-2,-7,-7,2,0,-1,-3
1512354127115839,0,-4,3,10,9,-1,-2,-3
1512354127115839,-1,2,-7,-8,-15,1,-1,1
1512354127122839,-1,-2,8,5,10,-3,1,-3
1512354127122839,3,6,6,-3,-10,-2,-1,0
1512354127139839,-1,-1,-5,-5,-17,-3,-1,-3
1512354127139839,0,1,3,-6,-6,-4,-3,1
1512354127141839,1,1,-5,-12,-14,-3,0,-3
1512354127141839,-1,-3,-5,-2,-31,-1,-1,2
1512354127161839,-4,0,3,-4,1,-12,-3,-1
1512354127161839,2,-2,-6,5,9,13,-1,1
1512354127163839,0,1,3,-5,-8,-2,-1,-1
1512354127163839,0,-1,-1,7,-4,0,-3,-2
1512354127175839,0,0,7,-2,11,-1,1,-1
1512354127175839,-1,-2,-18,-5,0,-5,0,-2
1512354127182839,-3,-8,-14,-7,-8,-7,-2,-5
1512354127182839,3,4,10,-1,0,-5,1,13
1512354127198839,-1,0,-19,-5,-10,5,0,-10
1512354127198839,-4,-6,18,6,-10,-2,-1,-1
1512354127200839,1,-5,-1,5,22,5,0,-4
1512354127200839,-1,-1,-7,0,-3,-4,-1,-4
1512354127221839,0,-2,3,-8,-35,7,0,0
1512354127221839,2,1,-4,10,28,3,2,1
1512354127223839,1,5,-1,1,0,-7,-3,-1
1512354127223839,-4,-8,10,0,-5,-5,-2,-3
1512354127235839,1,1,-13,6,3,2,0,2
1512354127235839,-1,-3,-2,-5,16,23,1,-3
1512354127242839,-1,2,4,4,-12,-7,-1,4
1512354127242839,0,3,8,-4,0,4,-1,-2
1512354127258839,-3,-6,-13,-7,5,-6,-3,-3
1512354127258839,-2,-2,3,2,-16,-17,-2,3
1512354127260839,0,0,-1,4,14,2,0,1
1512354127260839,1,5,7,-2,-3,-3,1,-3
1512354127281839,2,1,1,-6,-39,-4,6,17
1512354127281839,-2,-5,-12,-8,-9,0,-2,-3
1512354127283839,-2,1,4,-3,-8,-3,2,-2
1512354127283839,-1,0,1,6,10,6,-2,-2
1512354127295839,-3,-8,-6,4,21,-2,-4,-6
1512354127295839,0,0,0,-1,-3,-10,-2,0
1512354127302839,-1,0,2,10,18,14,0,3
1512354127302839,-1,-3,-7,-3,-14,-7,-3,-2
1512354127319839,0,4,8,8,26,8,3,-2
1512354127319839,0,1,-1,1,-6,-12,-2,-1
1512354127320839,0,0,-2,-11,-9,2,-2,-2
1512354127320839,-2,-3,-5,2,21,5,2,1
1512354127341839,2,3,-1,-5,-10,-5,0,-1
1512354127341839,-2,-4,1,3,-2,-2,-3,-1
1512354127343839,1,4,5,-2,-5,-6,-1,1
1512354127343839,0,-1,-8,-4,-19,1,1,-3
1512354127355839,1,3,9,1,14,0,1,6
1512354127355839,0,7,7,-5,1,12,3,0
1512354127362839,-3,-17,-14,0,-7,-11,-2,0
1512354127362839,1,-1,-1,-6,-20,5,-1,1
1512354127379839,-3,-3,3,1,11,-7,-4,-6
1512354127379839,0,3,2,5,14,1,-3,-1
1512354127380839,-1,1,3,-6,-19,9,1,-2
1512354127380839,-1,-2,-6,-1,-8,-7,0,1
1512354127401839,1,0,3,2,11,1,-1,-4
1512354127401839,1,0,1,-6,9,4,4,4
1512354127403839,0,4,23,4,-2,-5,0,1
1512354127403839,-3,-8,-40,4,19,-1,-1,-4
1512354127415839,1,3,3,-10,-21,-1,-1,0
1512354127415839,-1,-3,1,2,-7,-8,-2,0
1512354127424839,1,-1,2,1,15,2,0,-3
1512354127424839,0,5,13,-4,-11,1,3,0
1512354127439839,-1,-1,3,8,7,0,-5,-1
1512354127439839,-3,-3,-7,-4,-4,-4,-1,-9
1512354127440839,1,6,4,-2,-25,-9,0,8
1512354127440839,-1,-8,-13,-11,16,8,0,1
1512354127461839,-4,-3,-4,-2,-26,-8,-1,-3
1512354127461839,-2,0,1,-9,-16,2,-2,-2
1512354127463839,1,1,-6,0,-21,-2,-3,-2
1512354127463839,0,-2,1,-3,18,-6,0,1
1512354127475839,1,1,3,-1,5,5,1,-2
1512354127475839,1,-1,0,1,2,-4,-1,0
1512354127484839,-1,-1,-5,-3,-1,-2,-1,-1
1512354127484839,0,3,9,5,-5,-1,-1,-3
1512354127498839,0,0,2,-2,16,3,-3,0
1512354127498839,-1,-1,-3,7,11,-5,-1,1
1512354127500839,-2,-1,-6,1,1,1,-2,-2
1512354127500839,0,4,21,-2,-11,-2,0,-3
1512354127521839,1,1,-19,1,-13,10,-2,0
1512354127521839,-4,-7,-9,-4,-10,-3,3,3
1512354127523839,-1,-1,3,-4,4,2,-1,-4
1512354127523839,2,2,0,5,-5,4,-1,2
1512354127535839,-1,4,14,6,19,2,-2,0
1512354127535839,5,3,-2,1,6,2,1,0
1512354127544839,-1,-2,-7,4,22,11,-1,1
1512354127544839,0,0,5,-8,-27,-7,-2,-1
1512354127559839,-1,3,8,-3,15,2,0,0
1512354127559839,-1,-9,-17,-1,-4,-1,-1,1
1512354127560839,-2,-4,0,0,4,-11,-2,-1
1512354127560839,-2,2,11,-2,1,2,-1,-2
1512354127581839,-1,-2,-14,6,5,-10,-3,1
1512354127581839,-2,0,6,-6,-6,8,0,2
1512354127583839,0,-6,-8,0,-6,-5,-1,2
1512354127583839,-2,-1,-2,0,3,-4,-2,-2
1512354127595839,1,-2,4,-2,-2,-2,3,-1
1512354127595839,-3,6,24,3,1,-1,-3,-3
1512354127604839,1,1,-21,1,-8,4,1,0
1512354127604839,-3,-7,-11,2,6,-2,0,-1
1512354127619839,-1,1,5,-7,-15,-4,0,-2
1512354127619839,0,-8,-6,1,25,-2,-1,-1
1512354127620839,-1,5,12,-1,0,6,3,-2
1512354127620839,0,0,-7,0,8,2,-2,0
1512354127641839,0,-1,3,3,7,-4,-1,0
1512354127641839,-1,0,2,0,-11,-3,-1,-2
1512354127643839,-3,-9,-4,1,2,-4,-3,5
1512354127643839,0,0,-3,-10,20,-9,-1,0
1512354127655839,-3,-3,3,-3,-14,13,4,-3
1512354127655839,2,6,1,2,-13,-6,-4,-2
1512354127664839,1,1,0,-3,-1,-6,-2,0
1512354127664839,-1,-1,-3,7,-16,-12,-2,-2
1512354127679839,-3,-2,4,-3,11,11,-3,-2
1512354127679839,-1,-5,-15,-2,7,-3,-1,1
1512354127680839,1,1,5,-6,-18,-6,0,-2
1512354127680839,-2,-6,-10,-1,-2,4,-2,0
1512354127701839,1,5,9,6,-6,-7,1,0
1512354127701839,-2,0,-2,-1,-13,-1,-2,-1
1512354127703839,-2,-2,0,-6,28,4,-2,-5
1512354127703839,0,1,4,1,2,1,1,0
1512354127715839,0,-3,-6,0,-1,-4,-3,-3
1512354127715839,-1,-2,-3,-1,1,6,0,1
1512354127724839,-1,3,4,2,-10,-4,0,-1
1512354127724839,-2,1,1,-1,4,2,-4,-6
1512354127738839,1,-5,-15,-2,15,0,0,-2
1512354127738839,2,5,14,6,-24,-3,3,2
1512354127740839,-3,-3,-6,-1,2,0,0,-2
1512354127740839,-2,-1,-1,0,11,1,2,-1
1512354127761839,-2,-1,-4,-3,-13,-6,-3,-4
1512354127761839,0,6,23,1,20,5,-1,0
1512354127763839,-2,-14,-34,4,12,2,1,1
1512354127763839,2,3,3,1,-24,-9,0,2
1512354127775839,-5,-6,-5,1,8,13,-1,0
1512354127775839,0,5,19,2,11,-6,-4,-2
1512354127784839,2,2,-11,1,7,-1,1,0
1512354127784839,-1,2,2,-4,-2,2,0,1
1512354127799839,-1,-1,0,-2,-3,-6,0,-1
1512354127799839,-2,-3,-10,0,-3,-2,1,0
1512354127800839,2,6,17,-4,-7,8,-2,0
1512354127800839,-1,-5,-12,-5,-10,3,0,-1
1512354127821839,1,1,1,-2,-8,-6,2,-1
1512354127821839,-1,-2,-10,-2,-4,-3,1,-1
1512354127823839,-2,1,4,-2,-25,-1,-3,-1
1512354127823839,-1,-1,-1,2,-11,2,1,-1
1512354127835839,0,-2,3,-4,-6,-1,-2,0
1512354127835839,-2,-3,-13,-1,7,-5,-2,2
1512354127844839,1,2,7,-1,-23,-5,-1,-2
1512354127844839,1,1,3,-1,0,-6,1,-5
1512354127859839,0,0,-1,4,4,-1,1,8
1512354127859839,2,-1,-7,-4,-5,-2,1,-6
1512354127860839,0,2,6,3,5,-5,-2,-1
1512354127860839,-1,-3,3,-2,4,-1,-2,-3
1512354127881839,3,3,-11,-3,8,13,2,0
1512354127881839,-4,-9,-1,0,4,-1,2,2
1512354127883839,-2,-4,-4,3,13,2,-1,-2
1512354127883839,1,1,2,-7,6,-3,-3,0
1512354127904839,2,-1,2,-1,-4,-7,0,1
1512354127904839,-2,3,-3,-12,-22,-2,-4,0
1512354127905839,-1,3,4,3,8,2,-1,-2
1512354127905839,-1,-1,-5,5,8,3,-1,-3
1512354127919839,2,1,4,-2,-4,-2,-1,-4
1512354127919839,2,2,0,0,-15,2,3,8
1512354127920839,1,-3,2,7,38,3,4,0
1512354127920839,2,3,-5,-1,-1,2,3,3
1512354127942839,-2,1,4,-4,-4,1,-2,-2
1512354127942839,1,-3,-3,5,-21,-7,-1,-7
1512354127943839,-1,1,-3,-10,-13,-15,-3,1
1512354127943839,-1,0,5,8,35,26,5,3
1512354127971839,-1,-4,-3,4,3,-16,-5,-2
1512354127971839,-3,1,-1,1,-2,-8,-1,-2
1512354127973839,1,0,2,0,-3,5,1,3
1512354127973839,-1,0,-3,-5,-18,-16,-4,-1
1512354127978839,0,-1,-1,4,11,0,1,1
1512354127978839,0,-2,-5,-18,-13,2,-1,-4
1512354127980839,3,3,3,-2,-11,3,0,-1
1512354127980839,1,0,0,1,25,2,2,4
1512354128001839,-3,-1,17,2,-7,2,0,-1
1512354128001839,-2,-8,-24,6,15,-2,-1,-2
1512354128003839,1,-1,3,-10,-15,-6,-4,-7
1512354128003839,-1,1,0,5,-14,1,-4,-4
1512354128023839,-1,-1,3,1,21,-3,0,4
1512354128023839,0,-2,1,1,5,-2,-2,-1
1512354128025839,-2,-4,0,-2,1,6,3,2
1512354128025839,2,0,-1,2,-10,-11,-5,-3
1512354128038839,-2,2,-3,-4,-17,-14,-2,1
1512354128038839,0,1,4,0,9,30,1,2
1512354128045839,-1,-1,-5,5,6,-7,-3,-1
1512354128045839,-2,-1,-4,-8,-15,0,3,3
1512354128061839,0,-4,-3,6,-1,-3,-2,-1
1512354128061839,-2,1,3,-10,-18,-9,-1,1
1512354128063839,-1,0,-5,-1,-3,7,5,4
1512354128063839,0,-4,-1,-7,-9,-3,-1,-3
1512354128084839,-1,2,0,5,-3,1,-4,-2
1512354128084839,2,0,-6,-12,-21,-12,-3,-1
1512354128085839,-1,3,4,1,51,3,-1,-2
1512354128085839,-4,-4,-7,6,-11,-8,-5,-1
1512354128098839,-1,-1,-5,-17,-26,-1,0,-4
1512354128098839,-3,-2,4,14,45,2,0,-1
1512354128105839,-1,0,2,-6,-16,-17,-4,0
1512354128105839,0,-1,-1,1,2,3,3,-1
1512354128121839,-4,-4,0,-5,-14,-2,-5,-7
1512354128121839,3,0,3,11,47,11,7,22
1512354128123839,-1,0,-3,1,-42,-3,-1,0
1512354128123839,1,3,19,2,-15,-6,-1,0
1512354128144839,2,2,-18,-3,10,-3,-3,-4
1512354128144839,-1,-8,-4,-3,-3,17,3,-7
1512354128145839,1,1,5,5,-4,-4,-1,1
1512354128145839,-2,-4,-7,0,14,3,-1,2
1512354128157839,0,2,4,-3,-27,-5,-1,-1
1512354128157839,-3,3,2,6,21,-12,-2,-5
1512354128166839,-1,-1,-1,2,12,1,-2,-2
1512354128166839,-1,1,-7,-14,-6,-7,0,-2
1512354128181839,0,-2,1,13,10,6,5,3
1512354128181839,-2,2,0,0,-9,-9,-2,-3
1512354128183839,-2,0,-3,-4,-12,-6,0,-3
1512354128183839,-1,-1,-3,-1,9,3,-2,0
1512354128204839,-2,-3,-4,-1,17,-1,0,0
1512354128204839,0,1,2,-4,-20,-7,-2,-3
1512354128205839,-2,0,-1,-4,4,13,-1,0
1512354128205839,0,-2,-1,6,3,-4,-1,1
1512354128217839,-1,-2,0,0,6,0,3,4
1512354128217839,-1,3,2,1,-15,-2,-4,-3
1512354128226839,0,0,-1,-7,-12,-15,-4,-2
1512354128226839,-1,-4,-2,7,18,24,5,4
1512354128249839,-1,1,-2,-3,-4,4,-2,-4
1512354128249839,1,1,3,-6,-3,-4,0,1
1512354128250839,-1,-4,-7,0,-22,9,2,0
1512354128250839,1,5,11,4,45,1,-2,1
1512354128263839,-1,-2,-14,-4,-4,-4,0,1
1512354128263839,-1,-3,4,0,-24,1,-1,-1
1512354128265839,-4,-9,-4,-2,9,-9,2,1
1512354128265839,2,14,21,1,4,8,0,-2
1512354128277839,-1,-10,-21,-7,-23,6,2,-1
1512354128277839,0,5,-4,1,2,-7,-1,-1
1512354128286839,1,2,4,2,2,4,-1,1
1512354128286839,-1,-4,-3,-6,-16,-15,0,-2
1512354128301839,1,4,9,-3,-6,-8,0,1
1512354128301839,0,-2,-3,-8,-5,7,0,-3
1512354128303839,1,-2,0,21,28,1,0,3
1512354128303839,-1,-2,-8,-11,-15,10,0,0
1512354128324839,-1,0,5,0,-3,-3,-1,-1
1512354128324839,-3,-6,-2,-6,-15,0,-3,1
1512354128325839,-5,-1,2,6,15,2,0,-4
1512354128325839,-2,-3,-9,-7,-21,-8,-3,-10
1512354128337839,0,1,7,6,15,-1,0,-3
1512354128337839,3,-2,-1,5,60,3,1,5
1512354128346839,5,2,0,-9,-23,-8,0,6
1512354128346839,0,-4,-3,2,-23,-3,0,3
1512354128361839,0,0,2,-2,-15,-10,-3,0
1512354128361839,-3,2,-3,-1,-3,8,0,-4
1512354128363839,-2,-1,-2,4,17,-4,0,-7
1512354128363839,0,-1,-3,4,4,0,1,11
1512354128383839,0,0,5,-3,-3,0,-1,1
1512354128383839,-1,0,-2,-1,-12,-4,-4,-1
1512354128385839,0,-2,-4,0,2,4,-1,-4
1512354128385839,-4,-7,-6,-7,-15,-14,-3,-5
1512354128397839,-2,-1,-1,0,14,26,7,1
1512354128397839,-2,4,3,9,1,-9,-2,-2
1512354128406839,-1,-3,-6,-10,-14,-2,1,0
1512354128406839,1,4,11,19,48,-2,-4,0
1512354128421839,3,-1,-4,7,45,6,-1,0
1512354128421839,-1,-2,2,-5,-15,-10,0,-3
1512354128423839,-2,1,1,-3,-6,4,-1,0
1512354128423839,0,-1,-2,-2,-6,-1,1,0
1512354128443839,-3,-4,2,-1,-12,-6,-2,-1
1512354128443839,2,0,-1,-3,11,2,-3,1
1512354128445839,-1,-2,1,2,7,-1,-2,-1
1512354128445839,-2,-2,-7,-5,-25,0,-1,-1
1512354128457839,-4,-2,2,-3,4,0,-1,-2
1512354128457839,1,3,-1,-7,-31,-5,1,0
1512354128466839,4,0,0,6,7,1,-2,0
1512354128466839,-1,-2,0,-8,-31,-1,-1,-4
1512354128481839,-2,-1,-2,-5,2,-9,-3,1
1512354128481839,-1,-1,-3,-6,-5,-1,-2,-2
1512354128483839,1,2,1,2,1,2,4,-1
1512354128483839,2,2,1,-12,-23,-5,2,1
1512354128503839,2,3,1,5,-1,-11,-5,1
1512354128503839,-2,-2,-1,2,-4,-4,-2,-2
1512354128505839,-3,0,1,-4,-2,0,-1,1
1512354128505839,-1,-1,-2,-9,4,-3,1,-3
1512354128517839,-1,-3,-1,8,-8,0,1,2
1512354128517839,0,0,2,1,3,4,-3,-2
1512354128526839,-1,-1,-3,7,7,-8,-2,0
1512354128526839,-1,0,0,-1,-2,0,0,-1
1512354128541839,0,-3,-4,-2,-29,2,-3,-3
1512354128541839,1,2,3,5,21,-2,-2,-3
1512354128543839,2,-2,1,-7,-4,18,4,7
1512354128543839,-2,-1,-4,1,-2,2,-2,1
1512354128564839,0,0,-1,-5,-21,-9,-2,0
1512354128564839,-2,-2,-2,-6,-7,-6,0,-1
1512354128565839,-1,0,-2,-5,-9,-8,-5,-3
1512354128565839,1,3,3,-5,1,-4,0,0
1512354128577839,1,-5,-2,0,19,13,2,-1
1512354128577839,-2,-2,-1,-1,-14,-2,0,-2
1512354128586839,-1,1,-7,-7,-5,1,-1,0
1512354128586839,-1,-2,3,14,11,0,0,1
1512354128601839,0,3,-3,-13,25,-6,-2,-2
1512354128601839,-3,-1,0,4,6,4,1,1
1512354128603839,0,-1,-1,-4,-12,10,6,2
1512354128603839,0,-3,-8,-4,5,0,-7,-5
1512354128623839,-2,0,5,-1,27,6,2,-2
1512354128623839,1,1,-5,-1,-23,-2,0,4
1512354128625839,1,0,1,0,6,-5,-1,-3
1512354128625839,0,-2,-1,8,5,-9,-4,-1
1512354128637839,-3,-4,-7,-4,-4,7,1,-2
1512354128637839,1,2,4,-4,-29,-5,-2,-2
1512354128646839,0,-1,-2,-5,8,-9,0,6
1512354128646839,-1,-1,-1,-7,-22,2,-2,-3
1512354128661839,1,2,0,4,1,-12,-3,-2
1512354128661839,1,0,-1,-2,7,3,2,7
1512354128663839,-3,-1,1,-5,-10,0,-3,-5
1512354128663839,0,0,-3,2,11,-12,-2,0
1512354128684839,-3,1,2,-2,-10,3,-3,-3
1512354128684839,0,-4,-4,-5,-21,-10,-1,-1
1512354128685839,1,1,17,12,20,15,3,-2
1512354128685839,0,-1,-8,6,10,3,1,1
1512354128697839,2,1,-1,2,-7,-3,1,5
1512354128697839,-2,0,-1,-2,3,-2,-4,-3
1512354128706839,-1,-5,-3,-5,-20,-8,-3,0
1512354128706839,0,1,6,4,-3,0,0,-5
1512354128720839,-1,1,2,1,12,-5,-3,-1
1512354128720839,-1,-2,-4,2,7,18,0,-3
1512354128727839,-2,1,-6,-4,-15,-12,-3,-4
1512354128727839,0,1,6,-1,3,8,2,19
1512354128743839,-2,-3,-12,-8,-19,-6,-1,-5
1512354128743839,2,2,10,9,23,-3,-1,0
1512354128745839,-1,-1,0,8,24,1,0,-4
1512354128745839,-3,-4,-6,-4,4,3,0,-6
1512354128757839,1,2,5,-8,-40,-7,-1,3
1512354128757839,-1,-2,-3,3,25,-6,-2,-2
1512354128766839,0,2,-3,-5,-21,2,0,2
1512354128766839,-2,-2,0,-2,2,-12,-3,-4
1512354128780839,0,0,4,17,38,11,0,1
1512354128780839,-1,-3,-3,4,-13,-5,-1,-2
1512354128787839,-1,0,-1,-2,-5,-1,0,1
1512354128787839,1,-1,-3,0,4,5,1,-1
1512354128803839,-3,-2,0,-2,-15,-5,-2,-4
1512354128803839,-1,-3,-4,-6,-18,-5,-1,0
1512354128805839,-3,-1,-1,-3,-3,-7,-2,0
1512354128805839,0,2,-1,-2,3,5,0,-2
1512354128826839,-1,-3,-4,0,-3,-7,-4,-6
1512354128826839,-3,-2,1,-5,-26,-5,4,3
1512354128828839,1,-3,-5,-4,16,-8,-5,-4
1512354128828839,-2,-5,0,0,1,3,1,-3
1512354128840839,-2,0,0,-4,-7,2,0,0
1512354128840839,-3,-3,-6,-5,2,2,-2,-3
1512354128847839,0,0,2,0,-4,-9,-3,-1
1512354128847839,-2,-1,-1,-2,-2,13,2,0
1512354128863839,1,0,1,-5,-7,-2,0,-3
1512354128863839,-2,-3,-4,2,25,11,0,-1
1512354128865839,1,2,6,8,14,-10,-2,0
1512354128865839,0,1,-2,-7,3,16,5,0
1512354128886839,-2,-3,-2,1,-4,2,-2,0
1512354128886839,0,2,4,7,18,-3,1,1
1512354128888839,-2,-3,-1,-5,-18,-8,-3,-2
1512354128888839,2,0,-8,1,48,0,-2,-1
1512354128900839,-1,-1,8,4,3,-1,2,2
1512354128900839,0,0,-2,-2,-1,-1,-1,-3
1512354128907839,0,0,-3,-5,-11,-4,-3,-5
1512354128907839,0,-2,-2,2,-13,1,1,5
1512354128923839,2,2,-2,-5,-2,-3,0,1
1512354128923839,1,1,4,4,14,-8,-5,-3
1512354128925839,-2,-2,-5,-8,-7,9,0,-3
1512354128925839,0,-1,4,18,5,-11,0,-1
1512354128946839,0,-1,-1,0,13,1,0,1
1512354128946839,-1,-1,0,-4,-14,4,1,3
1512354128948839,-1,-1,-2,5,10,-7,1,1
1512354128948839,-1,-2,-1,-6,-13,-1,0,0
1512354128960839,0,0,-1,1,4,11,-4,-2
1512354128960839,1,-1,-2,-4,-4,-7,3,2
1512354128967839,1,-1,-1,-4,-13,3,1,3
1512354128967839,-1,-1,-2,-1,-7,-9,-3,-4
1512354128983839,1,1,7,14,21,7,2,-2
1512354128983839,0,-1,-5,-10,1,5,1,-3
1512354128985839,0,-1,1,8,10,4,1,3
1512354128985839,-1,1,1,-8,-23,-18,-5,-5
1512354129006839,0,-2,-4,-1,-7,-3,2,10
1512354129006839,-1,0,0,8,11,8,-1,-2
1512354129008839,2,3,4,-3,-14,-3,2,-1
1512354129008839,-1,-2,-2,-3,2,-2,-3,1
1512354129020839,-1,-1,-1,-4,-9,-7,-2,-2
1512354129020839,-2,-2,-3,-6,-6,19,0,0
1512354129029839,-2,-1,-1,-7,-4,-6,-2,0
1512354129029839,-2,0,-1,3,18,-11,-5,-2
1512354129043839,0,-2,-2,-5,-6,9,3,-1
1512354129043839,-1,-2,1,2,-1,0,-2,2
1512354129045839,-1,-3,-3,-1,2,0,-2,-7
1512354129045839,1,1,-5,-5,-49,-1,3,5
1512354129066839,-1,-1,-1,5,62,7,3,-4
1512354129066839,0,0,1,-2,-2,-8,-1,-2
1512354129068839,-1,-1,3,-4,-6,2,4,4
1512354129068839,3,2,-3,8,14,-10,-4,0
1512354129080839,-3,-2,-4,-12,-35,-14,-2,-2
1512354129080839,-1,1,0,-3,-19,-3,-1,1
1512354129089839,-3,-4,-1,3,21,10,-1,0
1512354129089839,1,4,4,-2,6,-12,0,0
1512354129103839,1,3,3,3,-5,15,-1,3
1512354129103839,-2,-7,-5,-6,-6,-12,-1,-4
1512354129105839,-1,0,-2,6,4,5,-2,0
1512354129105839,-5,-4,-3,-3,-23,-10,-2,-2
1512354129126839,1,2,0,-10,-10,5,3,-2
1512354129126839,-2,1,3,-2,-5,-5,-3,-5
1512354129128839,1,0,-3,4,-6,-1,2,6
1512354129128839,-1,-4,2,-6,7,18,-2,-4
1512354129140839,-1,-1,-1,4,-8,-15,0,0
1512354129140839,0,-1,-6,-1,39,20,2,1
1512354129149839,0,-1,1,5,9,-3,-1,-4
1512354129149839,-3,-4,0,-2,-4,0,1,-8
1512354129163839,-2,1,-3,-2,-10,-7,-3,-4
1512354129163839,-1,0,0,0,0,-2,-1,0
1512354129165839,0,1,-1,-2,0,6,0,0
1512354129165839,-1,-3,0,-8,-7,3,1,1
1512354129186839,-1,-2,0,9,12,-7,-3,0
1512354129186839,-1,-1,-1,4,-17,1,1,-3
1512354129188839,1,2,-1,-4,14,5,1,-1
1512354129188839,-1,-1,0,-2,-6,-12,-2,-3
1512354129200839,-2,-4,-5,-4,7,8,-1,2
1512354129200839,-2,-1,4,-5,-52,5,3,3
1512354129209839,-2,-2,-2,4,18,18,1,-3
1512354129209839,5,0,3,-2,-9,5,5,17
1512354129223839,-1,0,4,-8,-16,-23,-2,-4
1512354129223839,1,-2,-9,-7,21,18,-1,-3
1512354129225839,-1,-2,1,3,-4,-8,-4,-4
1512354129225839,0,0,-4,0,16,8,5,2
1512354129246839,-2,-4,-5,-3,-6,4,-2,-6
1512354129246839,0,2,5,0,-27,-19,-1,5
1512354129248839,-3,-3,-3,-8,15,-2,-1,-4
1512354129248839,-2,0,0,-1,9,5,-1,-3
1512354129260839,-1,1,-3,2,-4,-1,-1,1
1512354129260839,-1,-3,6,-2,-10,4,1,-4
1512354129269839,-2,-4,-7,-5,-21,4,0,-1
1512354129269839,-2,-2,-1,5,-1,-3,-2,-3
1512354129283839,1,2,6,3,13,5,0,-5
1512354129283839,-3,-4,-12,-12,-15,-11,-2,6
1512354129285839,-3,-1,1,-2,-9,7,3,-1
1512354129285839,0,1,4,2,14,-1,-2,-5
1512354129306839,1,-2,-5,16,18,4,1,3
1512354129306839,3,3,3,6,37,-15,-3,0
1512354129308839,0,1,-2,-6,-17,-8,-4,-1
1512354129308839,-3,-4,1,-2,-18,-4,-3,0
1512354129320839,-1,-2,0,2,4,-6,-4,-5
1512354129320839,2,1,6,4,11,4,1,2
1512354129329839,-1,-2,-9,-5,-7,-5,1,-1
1512354129329839,-1,1,-1,0,9,1,-4,-4
1512354129343839,1,2,5,-8,-30,2,1,5
1512354129343839,-2,-3,-9,7,15,4,-1,0
1512354129345839,4,8,23,3,-3,-6,-1,1
1512354129345839,1,3,-10,6,-8,1,0,-1
1512354129366839,-2,-8,-10,-9,-4,-10,-1,-2
1512354129366839,-1,1,3,3,21,-3,1,-5
1512354129368839,1,2,2,-7,-42,-21,-4,2
1512354129368839,1,4,14,-2,-2,17,-1,1
1512354129380839,-6,-16,-14,-4,18,9,0,-2
1512354129380839,-2,-2,-4,-7,-13,-3,-2,-3
1512354129389839,-1,-3,0,7,16,-13,-3,-1
1512354129389839,-1,7,19,-6,5,2,-3,-5
1512354129403839,0,10,2,-3,5,1,0,7
1512354129403839,0,-3,-8,7,18,6,0,-2
1512354129405839,-2,-6,-3,1,10,14,0,0
1512354129405839,3,1,1,1,1,-5,-1,3
1512354129426839,2,7,7,-3,-10,4,0,-2
1512354129426839,-1,1,7,2,10,-5,-1,-1
1512354129428839,2,-3,-5,10,-1,-3,-3,1
1512354129428839,-1,-1,-9,0,-1,-18,-2,-2
1512354129440839,-3,-4,-1,-4,-6,7,0,-4
1512354129440839,1,1,-2,1,-6,-10,-1,12
1512354129449839,-2,-1,-9,-7,-23,1,1,-3
1512354129449839,-1,-9,-10,-2,-1,5,0,1
1512354129464839,0,2,3,-4,-14,-5,-2,0
1512354129464839,-1,1,1,-8,-6,0,0,-1
1512354129465839,-5,-1,2,6,32,12,5,1
1512354129465839,2,1,7,-11,-43,-14,-2,1
1512354129486839,0,-2,-15,-1,-28,-5,-3,0
1512354129486839,0,2,-3,7,40,11,1,-3
1512354129488839,-1,-1,-12,-9,-3,-4,0,3
1512354129488839,-1,6,17,3,17,1,0,-3
1512354129500839,-5,-20,-22,1,4,0,-1,-1
1512354129500839,0,-2,2,1,-16,-5,1,0
1512354129509839,2,0,-2,-12,-34,-6,-1,-1
1512354129509839,0,6,-7,-2,31,9,0,2
1512354129523839,1,-3,7,-2,-5,6,-1,0
1512354129523839,-3,-3,1,10,-14,-15,-5,-3
1512354129525839,0,2,13,3,17,3,0,-1
1512354129525839,-3,-5,-22,0,3,-12,-2,-5
1512354129546839,5,13,20,-3,5,8,6,13
1512354129546839,-7,-12,1,4,-7,-5,-5,-4
1512354129548839,1,-4,-3,2,-3,2,-4,-3
1512354129548839,0,-2,16,-5,23,4,0,1
1512354129560839,-2,1,-21,0,-6,-19,-4,-7
1512354129560839,0,2,-1,-21,-18,1,1,2
1512354129569839,3,2,10,10,27,6,0,-1
1512354129569839,-5,-19,-25,-2,-18,-2,-1,-4
1512354129583839,1,8,20,0,9,-7,-3,-4
1512354129583839,0,4,-1,5,3,1,1,-1
1512354129585839,-3,3,-4,-8,-10,-6,-1,-1
1512354129585839,0,-9,-5,8,19,5,3,1
1512354129606839,1,1,3,-11,-24,2,0,0
1512354129606839,1,1,-5,1,-11,-12,-4,-1
1512354129608839,1,6,6,-4,2,21,4,3
1512354129608839,0,5,5,3,-5,1,-1,3
1512354129628839,2,6,11,16,19,-24,-6,-4
1512354129628839,-6,-8,18,-8,1,24,2,-2
1512354129630839,-2,0,-24,-2,-16,-6,-2,2
1512354129630839,-3,4,-1,-3,-41,0,-2,-2
1512354129643839,-1,2,0,-18,-15,-1,-1,-4
1512354129643839,-1,-2,6,14,4,-8,-3,-4
1512354129645839,2,3,18,-1,2,-12,4,6
1512354129645839,4,11,-1,-2,-8,-8,-4,-3
1512354129666839,-2,-13,-4,30,31,5,2,2
1512354129666839,-3,-19,-40,-29,-35,-5,-2,-1
1512354129668839,-3,-6,-1,0,0,1,-6,-6
1512354129668839,4,23,67,12,9,0,3,6
1512354129680839,-5,-16,-75,-2,29,9,4,-4
1512354129680839,2,11,16,8,19,3,1,1
1512354129689839,-3,-3,9,2,9,-8,-2,0
1512354129689839,2,16,-5,-40,-19,26,0,-3
1512354129703839,-13,-64,-37,16,3,-32,-8,-2
1512354129703839,2,8,13,-12,-39,-7,0,0
1512354129710839,3,7,-10,3,16,9,4,1
1512354129710839,-6,-8,4,9,-14,-10,-3,-4
1512354129726839,6,23,28,-13,11,20,4,2
1512354129726839,-1,-5,-20,0,13,-2,-5,-1
1512354129728839,1,-3,10,-2,-30,-9,1,-1
1512354129728839,-3,-7,-20,-1,0,-8,1,-3
1512354129748839,2,10,19,-3,-21,-1,-1,1
1512354129748839,-1,-2,-6,-2,-21,-8,-1,0
1512354129750839,1,3,8,-13,-20,-7,-3,-1
1512354129750839,2,14,58,10,38,8,2,-1
1512354129763839,-13,-63,-94,-20,-9,-2,1,2
1512354129763839,3,15,46,0,8,9,0,-1
1512354129770839,-2,-5,-9,4,4,-5,0,-4
1512354129770839,0,-4,-3,11,-2,-3,-3,6
1512354129786839,2,26,50,-5,0,2,-2,-1
1512354129786839,1,0,-17,1,29,18,2,-3
1512354129788839,-3,-16,-21,5,0,4,-1,-1
1512354129788839,-4,-10,-26,-6,-1,-7,-5,-4
1512354129808839,7,33,37,0,-8,-2,-1,2
1512354129808839,-3,-10,-16,4,13,8,0,0
1512354129810839,2,7,7,8,20,-6,-1,1
1512354129810839,0,-6,-17,-4,-9,-5,-1,-1
1512354129823839,3,7,3,1,1,12,4,3
1512354129823839,-1,0,4,3,-1,-10,-4,-3
1512354129830839,-2,0,4,-5,0,0,-1,-2
1512354129830839,-2,-12,-28,-8,-9,-11,0,-3
1512354129846839,-1,1,16,9,-15,-5,-5,-5
1512354129846839,0,2,2,9,29,0,2,2
1512354129848839,1,5,1,-11,-6,4,0,-1
1512354129848839,-2,-12,-15,14,5,-8,-4,0
1512354129868839,3,17,28,-6,-12,5,0,-4
1512354129868839,-1,4,10,2,2,0,0,1
1512354129870839,-2,-15,-42,-6,-14,-1,-4,-2
1512354129870839,1,-2,2,-4,-7,7,6,9
1512354129883839,3,4,9,0,22,-10,2,3
1512354129883839,0,1,-1,0,36,7,0,-4
1512354129890839,2,9,37,11,15,1,-1,0
1512354129890839,-4,-11,-30,4,-4,-11,-1,-3
1512354129906839,0,7,1,-7,-7,17,1,1
1512354129906839,0,-1,-3,-6,-21,-17,0,3
1512354129908839,1,-1,-2,5,11,11,1,-1
1512354129908839,0,3,1,0,6,2,-3,-3
1512354129928839,-1,0,5,-3,-13,-10,-1,1
1512354129928839,-1,3,-2,-5,-9,-9,-2,-4
1512354129930839,-4,-12,-12,-4,-8,-9,1,2
1512354129930839,-1,-4,10,4,-1,10,5,-1
1512354129943839,-2,-2,-26,-9,-7,3,-1,-4
1512354129943839,0,8,16,1,-7,-5,-1,-1
1512354129950839,-3,-4,-3,-3,4,-1,-2,-4
1512354129950839,0,-4,-8,-8,-2,3,-1,-3
1512354129966839,2,11,17,10,14,-2,-2,9
1512354129966839,4,-2,-3,2,-4,4,2,3
1512354129968839,-9,-22,-29,0,-10,-11,-2,-2
1512354129968839,1,1,-2,-13,-50,-4,-4,-5
1512354129988839,0,4,11,-6,20,4,-1,-4
1512354129988839,-1,0,-10,-17,-6,-13,-1,0
1512354129990839,2,10,13,43,9,15,0,-1
1512354129990839,-3,-7,-3,-7,5,13,5,4
1512354130003839,0,-2,-6,9,-6,-7,0,-2
1512354130003839,-3,-1,0,-5,-13,-3,-1,-2
1512354130010839,0,2,-2,-20,-9,-8,-2,1
1512354130010839,1,6,-1,5,25,6,-1,0
1512354130026839,3,11,20,8,-2,10,-3,-3
1512354130026839,-7,-30,-39,-1,1,3,1,-4
1512354130028839,2,4,5,3,-2,-1,-5,-5
1512354130028839,-1,-6,-6,-2,17,-10,-1,-1
1512354130048839,-2,-1,11,-3,-13,-7,1,-2
1512354130048839,0,5,5,5,-10,5,-2,-3
1512354130050839,1,3,6,-10,-2,-2,1,9
1512354130050839,-1,5,10,-6,-1,3,0,-4
1512354130062839,-3,-19,-39,0,-1,2,0,-2
1512354130062839,-2,3,7,7,12,0,-1,0
1512354130071839,-1,1,1,-11,-15,15,6,-1
1512354130071839,-1,1,6,0,6,-9,-2,1
1512354130086839,-1,6,6,-10,-15,7,-2,-2
1512354130086839,-1,-1,-1,16,-1,-7,1,1
1512354130088839,-2,-4,-6,-11,-6,-10,-3,-3
1512354130088839,2,-1,4,1,0,0,-1,-1
1512354130108839,-1,1,-8,-7,-14,-10,3,2
1512354130108839,3,0,4,-3,5,3,-5,-4
1512354130110839,-2,7,10,4,-5,-13,-4,-2
1512354130110839,-2,-3,-13,0,5,7,0,-4
1512354130122839,2,-5,-1,-5,6,-8,0,11
1512354130122839,1,3,-3,-7,-4,-3,2,2
1512354130131839,0,-9,-6,-11,2,-4,0,-1
1512354130131839,-3,0,1,16,35,14,-1,-4
1512354130146839,0,3,6,4,3,-4,1,-3
1512354130146839,0,2,1,-9,-12,0,0,-2
1512354130148839,-1,-1,-4,-11,-4,4,-3,-1
1512354130148839,1,-2,-5,-4,-13,-8,-3,1
1512354130168839,-3,-1,5,5,-7,-5,-2,-6
1512354130168839,-1,1,3,-4,7,15,4,-1
1512354130170839,2,6,17,26,8,-4,1,-2
1512354130170839,-4,-15,-31,-7,-1,-3,-2,-2
1512354130191839,0,4,5,2,7,-8,-1,0
1512354130191839,-1,1,0,0,-16,-6,-3,-4
1512354130193839,1,3,11,-3,18,5,1,5
1512354130193839,-1,-2,-5,-6,-12,-7,-2,-2
1512354130206839,-1,-5,-3,10,5,-9,-1,-3
1512354130206839,1,1,-1,-1,-16,4,2,4
1512354130207839,0,5,4,-8,-5,5,2,-5
1512354130207839,0,3,5,12,21,-4,-3,-1
1512354130228839,-2,-5,-7,-9,-8,-3,-2,-2
1512354130228839,3,11,4,-4,-23,0,-4,-1
1512354130230839,-5,-10,-10,0,11,5,1,-2
1512354130230839,2,4,3,1,-13,-2,2,4
1512354130242839,0,2,-2,-4,0,6,-1,-5
1512354130242839,-1,-4,0,5,-5,-4,0,3
1512354130251839,1,2,-5,-2,4,8,-3,0
1512354130251839,0,1,2,-5,-12,-11,-2,-2
1512354130266839,-2,-4,-1,-3,-1,16,-1,0
1512354130266839,0,0,1,2,10,-5,2,4
1512354130268839,-1,1,-8,-4,-10,-6,-2,-2
1512354130268839,-2,-5,6,2,6,7,3,10
1512354130288839,-1,2,-2,-6,4,-3,0,1
1512354130288839,-2,-3,1,19,10,-6,0,1
1512354130290839,1,3,-1,0,-1,1,-3,-3
1512354130290839,-1,5,7,1,-6,1,0,-1
1512354130302839,-2,-3,-8,-2,3,1,-2,-1
1512354130302839,0,-7,-10,-3,26,10,2,2
1512354130311839,-2,-1,4,-2,-6,-12,1,2
1512354130311839,1,2,0,10,5,4,-2,-1
1512354130326839,-4,0,3,-7,-5,-3,-2,-3
1512354130326839,-2,-1,6,-5,6,-6,-6,-5
1512354130328839,1,6,4,-1,-21,-1,-1,1
1512354130328839,-1,-7,-17,-4,7,4,2,3
1512354130348839,0,-2,0,4,-4,-3,0,-2
1512354130348839,-1,0,-4,2,12,4,-2,-2
1512354130350839,2,1,3,-15,-37,-8,1,13
1512354130350839,-1,-1,1,-3,5,-1,-2,-6
1512354130362839,3,3,4,10,19,2,1,-1
1512354130362839,-3,0,-7,-24,-23,-7,-3,1
1512354130371839,0,-4,-2,30,16,4,1,0
1512354130371839,1,1,6,3,-9,-7,0,-4
1512354130386839,0,-2,-4,3,5,-3,-3,1
1512354130386839,-2,0,2,-4,-1,2,-1,-3
1512354130388839,-3,0,-4,-7,3,4,-1,-6
1512354130388839,0,-1,-11,-8,-23,-12,-3,3
1512354130408839,-3,-9,0,12,-1,-4,0,-3
1512354130408839,2,0,3,7,-4,-15,-2,1
1512354130410839,0,1,-6,-3,21,28,2,-4
1512354130410839,-3,7,20,2,7,-3,-2,-2
1512354130422839,0,-4,-19,-8,-40,-2,-1,1
1512354130422839,0,-3,-5,4,17,3,-7,-1
1512354130431839,-4,-10,-8,-4,9,-18,-1,-5
1512354130431839,1,-1,4,1,-2,10,0,2
1512354130446839,-1,2,7,-7,-13,1,1,-4
1512354130446839,-2,-3,-2,1,-2,-1,-1,0
1512354130447839,1,3,6,-4,-6,-14,-2,-4
1512354130447839,0,0,-1,6,10,29,1,-4
1512354130468839,1,0,1,-2,15,1,4,3
1512354130468839,-1,-3,-1,7,-4,-3,0,0
1512354130470839,-2,1,-1,1,13,-2,-2,-1
1512354130470839,-1,1,0,-7,20,-10,0,-3
1512354130482839,1,3,-6,0,9,5,-1,-1
1512354130482839,-3,-1,-2,-11,-17,4,2,-1
1512354130491839,2,-1,8,-1,-7,7,1,1
1512354130491839,4,7,0,6,-3,-8,0,-2
1512354130505839,-2,-10,-8,-1,19,3,0,-4
1512354130505839,1,1,2,-7,-5,-10,3,10
1512354130512839,-2,-5,-8,-1,-6,-5,-4,-2
1512354130512839,1,7,11,-3,-20,0,0,0
1512354130528839,0,3,4,-4,3,1,-1,-4
1512354130528839,-1,-2,-4,11,17,4,-1,-3
1512354130530839,-1,-2,-3,-3,6,1,-1,-2
1512354130530839,-2,-4,-4,-1,3,2,1,0
1512354130542839,-2,0,1,-3,-39,-17,-3,2
1512354130542839,0,-2,-2,2,9,15,-2,-5
1512354130551839,1,1,-1,1,8,10,5,4
1512354130551839,-4,-6,-8,-8,-11,-11,-4,-5
1512354130566839,-2,1,-1,-1,-7,-12,-5,-2
1512354130566839,-1,2,-1,0,-2,15,1,0
1512354130567839,-1,2,-2,4,9,-14,-7,-6
1512354130567839,-1,-12,-6,4,-4,-2,5,13
1512354130588839,-1,1,2,-10,-21,-6,0,-4
1512354130588839,0,3,6,4,7,-11,-3,1
1512354130590839,2,1,-3,-3,-6,2,1,2
1512354130590839,-2,-5,-13,-11,6,-4,-4,-2
1512354130602839,-3,0,0,10,12,-6,-3,2
1512354130602839,-1,-1,5,-2,10,3,-1,-6
1512354130611839,0,0,0,-6,-7,0,-2,-2
1512354130611839,2,4,8,1,-35,-16,-5,-3
1512354130625839,-1,-3,-2,-2,12,18,5,2
1512354130625839,-3,-2,-8,-5,-14,22,0,-2
1512354130632839,0,-1,0,-2,0,-10,0,2
1512354130632839,-2,-5,-3,3,3,5,1,-8
1512354130648839,2,1,0,-5,0,-1,2,6
1512354130648839,1,1,4,-1,-13,-7,-2,-2
1512354130650839,1,-3,-2,2,-3,9,0,-1
1512354130650839,-1,-1,-2,-7,-13,3,-2,0
1512354130662839,-2,2,1,2,4,-7,-3,-2
1512354130662839,3,0,1,0,7,-7,1,4
1512354130671839,-3,-4,-2,0,-3,-5,-1,-2
1512354130671839,-1,1,-1,-8,-1,-2,0,1
1512354130685839,2,1,3,5,10,0,-5,-3
1512354130685839,-3,1,-1,-5,-13,-8,-4,-3
1512354130692839,-2,-5,-1,12,13,1,1,0
1512354130692839,-2,-1,5,-1,-3,-1,-3,-2
1512354130708839,-1,0,-2,-2,9,3,0,-3
1512354130708839,-1,0,-10,-15,-20,-10,-1,0
1512354130710839,-1,1,1,1,4,-4,-1,0
1512354130710839,1,-5,-8,7,29,0,-1,-1
1512354130731839,-1,-2,0,9,13,-3,2,-3
1512354130731839,-1,-1,4,-4,-7,1,-1,-4
1512354130732839,0,3,-1,-10,-13,-16,-3,0
1512354130732839,-2,1,0,0,0,3,3,2
1512354130745839,-3,-2,1,-8,-5,9,-1,-3
1512354130745839,-1,-3,-4,2,4,-6,2,-1
1512354130752839,0,-1,-1,-1,4,3,2,3
1512354130752839,-1,2,2,-2,-6,-2,-4,-2
1512354130768839,0,1,0,-1,-9,-2,-1,-1
1512354130768839,1,2,0,2,16,3,5,9
1512354130770839,0,-3,-2,-1,-10,-3,-6,-5
1512354130770839,-1,-1,-5,-3,5,7,1,-4
1512354130791839,-3,-1,2,-4,-24,-13,-7,0
1512354130791839,-1,-6,-3,11,21,8,1,-2
1512354130792839,0,1,2,3,-13,-7,-2,-9
1512354130792839,1,3,13,-8,-9,6,6,7
1512354130805839,1,1,-12,-3,18,18,2,-4
1512354130805839,-1,-3,0,2,-11,-21,-4,0
1512354130812839,-1,-1,-1,-8,-12,20,3,2
1512354130812839,-1,-2,-2,0,-6,-8,-4,-3
1512354130828839,5,8,11,6,14,9,2,1
1512354130828839,-1,-6,-7,-15,-5,2,4,0
1512354130830839,-2,-1,-2,8,15,1,-2,-1
1512354130830839,-1,-1,-3,-2,4,-17,-1,0
1512354130851839,0,2,4,-5,-4,4,-2,-1
1512354130851839,1,2,-1,-5,-3,2,-4,-2
1512354130852839,-2,1,3,4,0,-1,5,1
1512354130852839,-1,-2,-5,1,15,3,0,-1
1512354130865839,1,-1,-4,4,-9,-18,-2,1
1512354130865839,1,1,4,-3,-12,-5,1,-2
1512354130872839,1,-2,-2,0,21,3,1,7
1512354130872839,0,0,-1,6,-3,0,-5,-4
1512354130888839,-1,-5,0,-9,-8,-1,0,1
1512354130888839,-1,-1,-2,3,-5,-6,0,-1
1512354130890839,-1,2,2,-1,1,-6,-1,-3
1512354130890839,0,-1,-3,4,14,3,-1,2
1512354130911839,-1,-3,-2,-4,-10,2,4,3
1512354130911839,-1,2,4,4,9,5,-2,0
1512354130913839,0,4,2,-11,-17,-7,-1,-1
1512354130913839,-2,-13,-16,1,5,10,2,-1
1512354130925839,-2,-4,3,1,-9,-8,-2,0
1512354130925839,-1,1,0,1,3,1,-3,-5
1512354130932839,-1,-1,-1,-4,9,3,1,6
1512354130932839,-2,5,3,-7,-18,-13,0,-4
1512354130948839,1,0,-2,9,14,-1,1,9
1512354130948839,-3,-5,-3,-6,-5,5,0,-4
1512354130950839,-1,0,-2,-3,-2,-5,-4,-2
1512354130950839,2,1,3,4,17,-3,2,1
1512354130971839,-2,-5,-4,-4,0,3,-2,-1
1512354130971839,1,5,5,5,13,-4,0,0
1512354130972839,-3,-3,-6,-13,-34,-4,-1,-1
1512354130972839,-2,-8,-3,2,-1,-5,-1,0
1512354130984839,1,0,0,-2,-9,-4,1,-2
1512354130984839,0,-1,-1,2,1,-6,-3,-1
1512354130993839,0,0,-1,3,4,12,0,0
1512354130993839,-2,4,5,0,2,0,-2,0
1512354131008839,-1,-2,0,-2,-16,0,-1,-4
1512354131008839,1,-4,-8,-13,-23,-9,1,3
1512354131010839,0,-5,0,3,6,14,0,-2
1512354131010839,1,4,3,-1,-6,-12,-2,1
1512354131031839,0,2,1,-1,3,1,-4,-5
1512354131031839,0,0,-1,-3,-5,7,1,6
1512354131032839,-2,-2,-1,-2,-10,-13,-2,-7
1512354131032839,1,0,-2,6,10,8,2,14
1512354131044839,-1,1,0,-9,-19,-11,-2,0
1512354131044839,-4,-4,-7,3,2,2,-1,0
1512354131053839,-1,-1,-5,-1,3,-6,-3,0
1512354131053839,0,0,1,1,-5,2,1,-3
1512354131068839,0,-1,3,-1,3,6,-2,0
1512354131068839,0,1,2,4,5,1,0,1
1512354131070839,-1,0,-2,1,1,-5,3,5
1512354131070839,-2,-2,-1,-5,1,2,-4,-7
1512354131091839,-1,1,-7,-8,-15,-3,-2,-2
1512354131091839,-3,-3,10,8,13,2,-2,-3
1512354131092839,3,2,6,1,-19,-8,-1,-3
1512354131092839,0,1,2,7,10,5,0,-1
1512354131104839,-4,-6,-8,7,28,10,1,-2
1512354131104839,1,3,2,-13,-30,-5,-2,-1
1512354131114839,-1,-1,-4,0,2,2,-2,-6
1512354131114839,-4,1,1,-6,-27,-9,-4,-9
1512354131128839,3,2,1,0,10,6,2,18
1512354131128839,-2,-6,-5,-3,-7,-3,2,-2
1512354131130839,0,0,3,12,19,8,0,1
1512354131130839,1,-1,-3,-7,-33,-2,-4,-5
1512354131151839,-1,-3,-5,2,28,-5,-3,-5
1512354131151839,-2,1,1,-2,8,7,-1,3
1512354131152839,2,-1,-5,-9,-10,-7,2,1
1512354131152839,-1,0,11,7,17,4,0,3
1512354131164839,-3,-8,-7,3,-10,-13,-1,-3
1512354131164839,1,1,-8,0,-4,3,-6,-3
1512354131173839,-3,-3,2,-2,51,10,-1,0
1512354131173839,-3,-2,-5,0,9,-2,-2,-6
1512354131188839,2,3,2,1,1,2,3,5
1512354131188839,1,0,0,4,2,-10,0,-8
1512354131190839,0,2,0,-2,-11,2,-5,-5
1512354131190839,0,0,-2,-1,3,1,1,2
1512354131211839,0,-1,2,-11,-17,3,-1,-7
1512354131211839,-2,0,0,3,-9,7,0,0
1512354131212839,-2,-3,-8,-1,-6,-8,-1,1
1512354131212839,1,-1,2,-2,-6,-1,0,-1
1512354131224839,1,4,-3,0,-4,-2,-4,-5
1512354131224839,-1,-4,2,-8,-15,-14,0,1
1512354131233839,-2,3,15,3,6,17,3,0
1512354131233839,-1,-4,-18,-6,-2,-4,-1,4
1512354131248839,0,0,0,-4,-12,-4,1,4
1512354131248839,-1,1,-3,-1,-6,-11,-3,0
1512354131250839,1,2,3,8,34,4,3,1
1512354131250839,-3,-3,-5,-12,-18,-2,0,-3
1512354131271839,1,3,-1,-3,-33,-3,-2,-3
1512354131271839,-1,-4,4,5,41,7,1,1
1512354131272839,0,3,1,-5,-8,-2,-2,-5
1512354131272839,0,0,-3,0,-10,3,-1,3
1512354131284839,1,0,0,-5,-16,-7,-2,-1
1512354131284839,-4,-2,-2,5,14,4,1,-1
1512354131301839,0,-5,-4,0,-11,-15,-4,0
1512354131301839,3,5,7,2,21,5,1,0
1512354131308839,-2,-3,3,5,2,-5,0,0
1512354131308839,4,0,-2,-7,7,-4,0,0
1512354131310839,0,-1,6,6,4,12,3,2
1512354131310839,-1,-2,-9,3,-3,-3,-3,-5
1512354131331839,-1,3,-3,2,12,1,-1,-6
1512354131331839,-3,-4,-12,-2,-9,-1,-2,1
1512354131332839,1,-1,-5,-10,-24,-4,-1,-3
1512354131332839,1,0,10,-3,-17,0,0,3
1512354131345839,-4,-7,-3,2,8,6,-1,-5
1512354131345839,2,2,0,-8,-22,-3,1,9
1512354131353839,-3,-2,-6,-1,-1,-3,-3,1
1512354131353839,-1,-1,1,2,8,0,2,-2
1512354131368839,0,0,1,-8,-16,2,-1,0
1512354131368839,-1,3,7,3,-11,-16,0,-3
1512354131370839,0,-1,-1,-3,-2,12,1,2
1512354131370839,-3,-8,-6,-2,5,-5,1,0
1512354131391839,-1,-1,-2,-3,-16,-7,-1,4
1512354131391839,-1,2,2,6,26,9,-1,-3
1512354131392839,0,0,-3,2,-20,-15,-5,-5
1512354131392839,1,3,14,-1,8,-1,0,0
1512354131404839,0,-4,-8,12,43,10,0,1
1512354131404839,-1,-1,0,-4,-31,-3,-1,-5
1512354131413839,1,-2,-3,2,9,-4,0,-3
1512354131413839,0,5,6,-7,-13,7,2,2
1512354131428839,-3,-10,-11,12,28,-4,-4,-7
1512354131428839,1,3,5,-9,-2,5,1,1
1512354131430839,-3,-6,-4,-3,-12,-5,-4,-4
1512354131430839,1,1,-2,-4,-30,-7,1,6
1512354131451839,-1,1,3,-4,16,-1,-1,1
1512354131451839,-1,-1,-2,6,0,-9,-2,-2
1512354131452839,0,0,-7,-6,-11,17,4,1
1512354131452839,-1,-1,-1,2,5,-6,1,0
1512354131464839,-1,3,3,-1,-6,3,1,2
1512354131464839,-2,5,7,4,-6,-1,-4,0
1512354131473839,-3,-6,6,-8,-10,-8,1,1
1512354131473839,-1,-7,-19,0,6,6,-2,-3
1512354131488839,1,2,7,-1,-3,-10,-2,-1
1512354131488839,0,0,-5,-2,2,18,0,-2
1512354131490839,1,3,8,2,-2,-2,-2,-3
1512354131490839,-2,-1,-2,2,14,-1,-2,1
1512354131511839,-3,-1,1,-13,-25,-8,-2,-3
1512354131511839,-1,0,5,18,32,5,2,1
1512354131512839,-1,-2,-9,3,12,-4,-1,0
1512354131512839,-2,1,1,-4,1,-13,-3,-4
1512354131524839,2,3,4,-3,4,7,3,2
1512354131524839,-3,-7,-8,-7,-1,-12,-2,0
1512354131533839,-3,-2,-6,5,-11,16,3,-5
1512354131533839,0,2,13,-9,-26,2,1,2
1512354131548839,0,-2,-8,0,40,9,0,0
1512354131548839,1,-2,3,1,-3,6,-2,-1
1512354131550839,0,0,-3,10,56,2,0,4
1512354131550839,-2,-1,-1,-1,-8,9,-1,-3
1512354131571839,1,2,2,-3,-18,-1,-2,3
1512354131571839,-2,-7,6,1,2,2,2,-2
1512354131572839,-1,0,-14,-7,1,-12,-3,-2
1512354131572839,0,-1,-3,3,5,-4,0,1
1512354131584839,-2,-1,3,3,6,2,-1,-3
1512354131584839,-1,6,-4,-6,-8,-7,-2,1
1512354131593839,-2,-5,2,-6,-17,-12,-3,4
1512354131593839,-4,-11,-4,5,15,7,0,-3
1512354131608839,0,2,-8,2,2,-4,0,-2
1512354131608839,0,0,4,10,18,21,1,-1
1512354131610839,4,3,6,-7,-2,7,7,12
1512354131610839,0,3,-4,-2,-26,-1,-2,-2
1512354131631839,-3,-3,-1,-10,-14,-16,-3,-2
1512354131631839,-1,0,-2,-7,-6,3,-1,-4
1512354131632839,-1,-2,-1,3,0,-1,-3,-2
1512354131632839,1,2,-2,-3,-6,-10,-1,-2
1512354131653839,-1,-2,1,8,6,4,2,0
1512354131653839,1,1,-3,-7,-11,0,0,7
1512354131655839,-4,-2,-2,-4,-27,-20,-2,-3
1512354131655839,-2,1,-2,-4,15,15,0,-1
1512354131668839,-1,1,11,3,-13,-3,-2,-4
1512354131668839,0,-5,-8,-2,9,-4,0,-1
1512354131670839,0,-3,-6,-2,0,-7,-1,0
1512354131670839,-3,1,1,3,8,14,1,-5
1512354131691839,0,-5,-8,1,4,-7,1,5
1512354131691839,-3,0,10,2,1,9,0,-1
1512354131692839,-1,6,3,-2,-2,3,2,-3
1512354131692839,0,-3,-6,0,-3,2,-3,-5
1512354131713839,-2,2,2,-5,6,0,-2,1
1512354131713839,-2,-2,-1,-3,-6,-14,0,4
1512354131715839,-1,0,2,2,-2,-1,-4,-3
1512354131715839,0,1,1,-9,-3,-7,0,-2
1512354131728839,0,-2,-4,-2,-11,1,2,13
1512354131728839,1,-2,-5,9,51,-4,0,-2
1512354131730839,0,1,0,-11,-39,7,-4,-2
1512354131730839,1,-1,-2,0,3,-7,4,10
1512354131751839,1,3,1,0,-5,-1,-3,-5
1512354131751839,0,2,-3,-5,-15,-8,-1,3
1512354131752839,-3,-1,-1,4,7,7,-1,-2
1512354131752839,3,3,4,0,6,-10,-2,1
1512354131773839,-4,-2,-4,-4,-16,-6,-4,-4
1512354131773839,0,-2,8,1,-1,5,1,-7
1512354131775839,3,2,2,-1,-12,-5,5,13
1512354131775839,0,-2,-11,1,-9,-7,-2,5
1512354131788839,-1,-5,-2,7,25,4,1,-2
1512354131788839,1,0,-8,-2,-15,-4,-3,-4
1512354131794839,-1,0,9,1,13,-2,1,-3
1512354131794839,-2,0,5,4,10,7,-1,1
1512354131811839,1,2,-1,-5,-23,-8,-6,-4
1512354131811839,0,5,0,-2,-1,20,8,7
1512354131812839,-7,-9,1,9,25,1,-5,-9
1512354131812839,6,1,-8,-9,-3,0,-1,0
1512354131833839,-2,0,5,3,-2,1,-2,-3
1512354131833839,0,0,-13,-13,-15,-19,-7,-10
1512354131835839,0,-4,-10,-1,-7,-4,0,3
1512354131835839,-3,0,7,-1,6,-3,-8,-10
1512354131847839,-2,-3,1,-4,-13,1,3,-5
1512354131847839,2,3,5,2,-6,-5,2,9
1512354131856839,1,0,-3,-4,3,0,-2,-5
1512354131856839,-1,-3,-1,3,3,-5,-3,-2
1512354131871839,-2,2,6,5,5,5,-3,0
1512354131871839,-2,-4,-3,-3,-5,2,4,1
1512354131872839,2,1,-2,-7,-2,-3,-2,-3
1512354131872839,0,-1,2,0,-6,-1,4,13
1512354131893839,0,1,0,8,14,6,4,-10
1512354131893839,-2,-7,-3,8,-20,-5,-4,11
1512354131895839,-2,3,17,11,15,-12,-4,-6
1512354131895839,-5,-5,-20,-18,-2,-2,-3,-7
1512354131908839,2,-1,-10,-1,-14,13,0,5
1512354131908839,-6,-8,1,0,8,-1,-7,-25
1512354131914839,5,3,0,1,2,6,7,22
1512354131914839,-2,2,27,9,-20,-2,-3,-22
1512354131931839,3,-3,-20,-10,-3,-1,4,34
1512354131931839,0,3,7,3,5,-5,-6,-12
1512354131932839,-3,0,0,-8,-4,5,-3,-8
1512354131932839,2,0,-5,-2,-16,-3,2,2
1512354131953839,-1,-8,1,19,35,0,-3,-9
1512354131953839,-2,3,-17,-6,-8,6,4,2
1512354131955839,0,-9,-9,-6,-6,-13,-5,-1
1512354131955839,2,8,9,4,6,-3,2,5
1512354131968839,-1,-1,8,-7,-40,-7,-4,-12
1512354131968839,4,-1,4,4,8,-1,2,4
1512354131974839,-1,4,2,1,-6,6,1,-9
1512354131974839,-2,-6,-4,1,8,-1,1,2
1512354131991839,2,6,-13,-3,-1,-1,3,14
1512354131991839,-4,-11,5,-9,-6,3,2,2
1512354131992839,1,0,-2,8,2,4,2,0
1512354131992839,-1,-1,-1,7,-6,2,-1,0
1512354132013839,-1,1,9,-19,8,-13,-1,-11
1512354132013839,3,8,-1,5,3,11,-2,2
1512354132015839,-1,-3,-10,-4,-2,0,0,3
1512354132015839,-3,-6,0,-1,-1,-4,-2,1
1512354132028839,-1,6,6,-4,12,1,0,-6
1512354132028839,1,0,-5,7,21,-8,1,5
1512354132034839,-3,0,17,-3,-10,-3,-2,-5
1512354132034839,0,2,-15,8,10,7,-4,-3
1512354132051839,-2,-6,-6,-5,-12,-12,0,0
1512354132051839,-2,2,7,6,-6,16,-2,-6
1512354132052839,1,1,-10,1,12,2,1,13
1512354132052839,-2,-7,3,-9,12,-1,1,1
1512354132073839,1,6,16,-2,-23,3,-1,-4
1512354132073839,-3,-1,-12,-9,-17,-11,0,-2
1512354132075839,0,2,1,1,2,-2,-2,-1
1512354132075839,-2,-2,-7,6,-9,-11,1,0
1512354132088839,0,0,-4,-3,-2,0,-2,0
1512354132088839,1,2,9,5,6,-3,-5,-3
1512354132094839,-3,-1,-5,-4,-7,6,-2,-10
1512354132094839,1,-1,2,13,12,-2,6,14
1512354132111839,0,-2,0,-3,-1,-3,1,4
1512354132111839,-1,2,0,-1,-3,17,3,0
1512354132112839,-1,-1,13,4,3,2,2,-3
1512354132112839,0,-3,-22,-8,-10,1,-2,-6
1512354132133839,-1,-2,1,10,14,8,-1,-2
1512354132133839,-2,-5,-9,-2,-5,-13,-2,4
1512354132135839,1,1,11,-12,-3,-7,-1,-2
1512354132135839,-3,0,3,-5,-4,17,-2,-4
1512354132147839,0,1,0,3,3,-1,1,1
1512354132147839,-1,-3,-3,-10,-18,-11,-1,-1
