timestamp,emg1,emg2,emg3,emg4,emg5,emg6,emg7,emg8
1511885020916251,-3,-2,-2,2,-2,2,-8,-5
1511885020916251,2,-2,1,-1,0,-2,-1,0
1511885020917254,2,-1,-3,-1,-2,-2,0,1
1511885020917254,-3,-5,-4,1,1,-2,-1,-5
1511885020920265,0,0,0,-1,-1,-2,-3,2
1511885020920265,-1,1,-2,-2,0,1,0,2
1511885020922270,-3,-1,-3,4,0,0,-4,-8
1511885020922270,-1,-4,0,1,-1,2,1,-2
1511885020927284,2,0,1,-4,-5,-3,2,2
1511885020927284,-3,1,-3,-2,-2,-2,-1,-2
1511885020937309,-2,-3,-4,5,0,3,0,-2
1511885020937309,0,1,-3,-4,0,-2,0,2
1511885020951344,1,-2,-1,0,0,2,1,0
1511885020951344,-3,0,-2,2,-1,4,-2,-1
1511885020957372,-4,0,-2,-1,-3,-3,-2,-2
1511885020957372,3,-2,1,-3,-1,0,-1,1
1511885020965382,-2,-2,2,5,4,-1,-2,-2
1511885020965382,-1,-5,-2,4,0,1,2,-1
1511885020980422,-1,-3,3,-6,0,-5,0,5
1511885020980422,-2,1,-3,0,2,3,-8,0
1511885020987445,0,0,-4,-8,-2,0,1,-5
1511885020987445,0,1,0,1,-4,0,1,-1
1511885021025543,-5,0,-1,4,-3,0,-1,-3
1511885021025543,3,-2,2,-4,4,-2,-1,-3
1511885021034570,-1,0,1,-1,0,-2,4,5
1511885021034570,-2,0,-1,-2,2,-1,-1,-4
1511885021035575,0,1,0,4,-3,3,0,-1
1511885021035575,1,3,-5,7,-2,-1,0,2
1511885021036596,-3,-3,0,2,1,2,-1,-3
1511885021036596,-2,0,-5,-3,-2,0,-2,-4
1511885021047605,1,-1,2,-6,1,-3,2,1
1511885021047605,-1,3,-2,5,-3,2,-2,-1
1511885021054622,-3,-1,-2,-1,-1,2,-3,-4
1511885021054622,1,0,0,0,0,1,-2,-1
1511885021061980,-1,0,-2,-4,-1,0,4,3
1511885021061980,-4,0,3,-1,2,1,-2,-2
1511885021076822,3,-1,1,0,0,-3,-3,0
1511885021076822,-1,-5,1,-5,0,0,-1,0
1511885021083842,0,-1,-4,5,1,1,-2,-4
1511885021083842,-1,-3,0,7,0,-1,0,1
1511885021092898,0,-1,-1,-5,-2,-1,0,1
1511885021092898,2,-2,-2,2,-3,0,-4,1
1511885021106942,1,-2,0,-3,1,1,-3,-2
1511885021106942,0,-2,-1,-1,-4,-1,2,0
1511885021113962,0,-1,-2,-4,-3,-1,0,0
1511885021113962,-1,1,-1,6,0,-3,0,-1
1511885021121984,-3,-3,-2,-2,-3,-7,-9,1
1511885021121984,1,0,-1,-7,-3,-2,0,-1
1511885021136982,-3,2,-2,1,0,1,-4,-1
1511885021136982,0,0,3,1,0,1,1,2
1511885021143999,1,-1,-3,-2,0,0,-2,-1
1511885021143999,-1,0,0,0,2,-6,0,-1
1511885021153021,-1,-1,-1,-3,-4,3,0,-1
1511885021153021,-1,2,3,1,0,-2,1,0
1511885021167092,0,0,4,13,-2,0,1,1
1511885021167092,-4,-4,-4,-10,-1,2,0,-5
1511885021174078,3,1,-1,5,4,-2,1,0
1511885021174078,-1,-1,-2,-2,1,0,-1,-1
1511885021182100,0,-1,0,-2,3,0,1,1
1511885021182100,-2,0,1,4,-3,-3,0,1
1511885021197139,0,-1,-2,-1,-3,1,-2,-2
1511885021197139,1,0,-2,4,4,1,-3,-4
1511885021204161,-1,1,-2,-4,-3,-1,0,-2
1511885021204161,0,-2,3,-7,0,0,-3,-3
1511885021213188,-2,-3,-3,-5,1,1,-3,-3
1511885021213188,-2,-4,0,2,-2,2,1,-2
1511885021227347,-1,1,-1,-11,0,-1,2,0
1511885021227347,-1,-1,0,14,0,1,-3,-1
1511885021234240,-3,-2,-3,-22,-3,1,-3,-3
1511885021234240,0,2,2,12,0,-1,3,-1
1511885021241256,0,-2,0,-6,-2,3,-1,0
1511885021241256,-1,3,0,9,7,0,1,-2
1511885021256296,-3,-1,-1,5,1,1,0,0
1511885021256296,-1,0,-5,-11,-7,-4,-6,0
1511885021264322,2,-2,-3,-1,3,-1,-5,-3
1511885021264322,-2,-2,-6,-4,-3,1,1,0
1511885021273342,0,-5,0,7,-2,0,1,-2
1511885021273342,1,2,0,-3,-2,1,-2,1
1511885021287382,-2,1,-3,5,-3,-2,2,-1
1511885021287382,3,0,0,-3,-1,-2,-2,-2
1511885021294401,-1,2,-2,6,1,-1,-1,-1
1511885021294401,-2,-3,-3,-3,-4,1,1,1
1511885021301676,-3,-2,3,2,0,-4,2,1
1511885021301676,0,0,1,-4,0,2,-2,0
1511885021316650,-1,2,0,0,-1,0,0,-3
1511885021316650,-1,-3,-3,1,-3,-4,-1,3
1511885021324630,-1,1,-2,-1,1,-1,2,-1
1511885021324630,-2,-1,0,2,2,-1,-2,3
1511885021339682,-2,3,5,1,-2,-1,-6,-3
1511885021339682,0,0,0,3,1,0,-1,-2
1511885021347721,1,1,-2,-1,-1,2,-1,-3
1511885021347721,1,-2,-5,0,1,0,5,-1
1511885021354698,3,-3,-2,3,-2,-1,-1,0
1511885021354698,-1,2,2,-3,5,2,-2,-2
1511885021361717,0,-3,1,-3,-7,-2,-1,1
1511885021361717,0,0,-3,6,-2,0,-3,-1
1511885021376800,2,1,0,-1,-2,-3,-2,2
1511885021376800,-2,-2,0,-4,-1,-1,0,-1
1511885021383817,0,-3,-1,0,-1,1,-2,0
1511885021383817,-2,-4,-1,-5,-1,1,2,0
1511885021398818,1,3,-4,1,2,0,1,0
1511885021398818,2,0,-4,1,-2,0,1,-1
1511885021407846,-3,2,-1,4,1,4,0,-2
1511885021407846,0,-2,0,-4,-5,1,-1,1
1511885021413859,-5,-1,1,4,-2,0,-2,-2
1511885021413859,-1,0,3,-3,0,-2,0,-2
1511885021422005,-3,-1,-1,2,2,2,-3,-2
1511885021422005,0,0,1,-3,-1,0,-1,0
1511885021436974,0,-1,-3,-1,1,1,3,-2
1511885021436974,-3,0,-4,-3,-3,0,1,2
1511885021443939,0,-3,-2,4,-3,-2,-2,-2
1511885021443939,0,0,0,-2,-1,-3,-2,-2
1511885021459000,-1,2,1,1,-2,-2,-1,-2
1511885021459000,-2,0,-1,3,-1,-2,-1,1
1511885021467045,-3,-1,0,0,-2,-4,-1,0
1511885021467045,-2,-1,2,-4,-2,1,-4,-1
1511885021474020,-1,0,-1,-2,-1,-1,4,0
1511885021474020,1,-4,-2,2,0,0,0,-1
1511885021482090,-1,3,-1,-2,0,-2,0,-1
1511885021482090,0,-1,-1,2,-3,1,1,0
1511885021497174,-2,-2,1,0,4,1,-5,0
1511885021497174,0,0,-2,-2,2,0,-1,-4
1511885021504233,-1,-1,-3,-7,-2,2,-1,-1
1511885021504233,-4,-1,-4,2,6,2,0,-2
1511885021519271,1,2,2,5,0,-1,-4,1
1511885021519271,-3,-2,0,-1,-3,1,-2,-1
1511885021526292,3,-1,-1,-1,3,0,3,0
1511885021526292,-1,2,0,-5,-5,-5,-3,-2
1511885021535275,-1,-3,4,-2,-5,1,-2,0
1511885021535275,1,0,-2,0,-2,-6,-2,2
1511885021541288,1,1,8,-1,-4,-3,-1,-3
1511885021541288,-3,-4,1,10,-3,-1,-1,0
1511885021556456,-1,0,-3,-5,-1,0,1,-1
1511885021556456,1,-2,0,-1,-2,1,-1,0
1511885021564476,-1,1,-7,-3,0,-1,0,1
1511885021564476,2,0,0,-2,-2,3,-1,1
1511885021579588,-2,0,-3,2,1,2,0,-1
1511885021579588,-1,-3,-2,-1,2,3,0,0
1511885021586555,-1,-2,0,2,2,-2,2,-1
1511885021586555,-1,3,-1,-2,-4,-2,2,1
1511885021595557,-2,-1,-2,0,1,0,-1,0
1511885021595557,0,4,1,-3,3,1,0,-2
1511885021601576,-2,0,-3,7,4,0,-3,2
1511885021601576,1,-3,-4,-8,-4,-1,-1,1
1511885021616780,0,-3,2,5,0,1,-1,-2
1511885021616780,3,-2,0,0,1,-4,2,2
1511885021623766,0,-3,-3,-5,-5,-1,-1,-1
1511885021623766,-1,2,1,11,5,-2,-2,0
1511885021638811,-1,1,0,-6,-5,1,3,-1
1511885021638811,-1,-3,0,0,-2,2,0,-4
1511885021646827,-3,2,-4,1,0,1,-2,-2
1511885021646827,-1,0,-6,-7,-1,0,-1,-1
1511885021655853,2,-3,2,-4,0,-5,3,3
1511885021655853,-1,0,2,0,-2,3,-2,0
1511885021669893,-2,-3,4,6,3,4,-2,-1
1511885021669893,2,2,0,6,-4,-4,-2,-2
1511885021677080,1,0,-3,-10,1,1,-1,-3
1511885021677080,-9,2,-4,-18,6,5,-2,-3
1511885021684102,5,1,3,7,-4,1,2,2
1511885021684102,-8,-9,-2,10,3,1,0,-2
1511885021699261,4,3,-3,-76,-1,-1,-2,-1
1511885021699261,2,-1,0,42,-3,-4,1,-2
1511885021707219,0,0,-5,-3,-3,-1,-2,2
1511885021707219,4,5,-2,-8,-1,-1,1,-3
1511885021716184,-11,-8,-3,25,0,3,-1,-3
1511885021716184,1,-2,-4,-32,2,-2,-2,-1
1511885021730221,-1,-3,4,-37,-3,-1,-1,-1
1511885021730221,1,0,3,8,0,0,0,-1
1511885021736237,1,3,-1,7,1,-1,-3,0
1511885021736237,-2,1,4,23,0,-1,1,0
1511885021744260,0,-2,0,33,-2,-1,0,-2
1511885021744260,-6,1,-1,-15,2,0,-2,-2
1511885021759299,5,-2,0,21,2,3,2,0
1511885021759299,-4,-1,1,-1,-3,3,-5,2
1511885021775341,-5,-4,-1,-5,3,-5,-3,-2
1511885021775341,1,0,-2,-17,-2,1,0,-2
1511885021777348,0,4,1,23,-2,1,-4,-1
1511885021777348,-3,-6,-5,7,-5,1,2,-2
1511885021790505,5,3,0,2,-1,2,-2,-9
1511885021790505,-9,-1,-2,-12,-2,-4,-1,-4
1511885021796398,-20,-3,4,16,1,-1,-1,2
1511885021796398,3,-1,-7,-13,-3,-2,-1,-1
1511885021804422,-3,-2,-1,-5,-1,-1,-3,1
1511885021804422,5,2,5,31,-2,-2,-3,-2
1511885021819461,4,-6,-6,-20,-2,2,4,0
1511885021819461,-1,-1,2,-4,3,-1,-1,0
1511885021826480,2,1,-3,-3,0,2,1,0
1511885021826480,7,-1,-4,-5,-4,0,0,2
1511885021835501,5,-3,5,12,0,-2,-3,1
1511885021835501,2,3,-4,-5,1,0,1,5
1511885021849581,0,-6,-4,0,-3,0,1,0
1511885021849581,5,2,2,2,3,2,10,-2
1511885021856585,-7,-1,-8,5,0,-2,-2,-2
1511885021856585,0,0,6,-11,-1,0,-4,-4
1511885021864581,-1,2,-4,5,1,-1,-1,0
1511885021864581,-3,-4,-1,2,-1,2,-1,0
1511885021878884,5,-1,-4,-3,0,-1,0,-1
1511885021878884,2,1,-2,-3,1,2,0,-2
1511885021887047,4,2,1,11,-1,2,-1,3
1511885021887047,-8,-3,0,0,-1,1,-4,-2
1511885021895940,-1,2,0,-2,3,0,1,0
1511885021895940,12,-4,2,0,-3,-5,-3,-2
1511885021909980,-6,1,3,1,1,3,2,-2
1511885021909980,-1,-2,-6,-3,-1,-1,-2,-1
1511885021916178,6,0,3,-2,-5,-1,-5,1
1511885021916178,-11,0,0,6,1,2,3,1
1511885021924155,0,-2,1,-2,1,-2,-1,-1
1511885021924155,-1,-1,-1,-3,0,0,-3,-2
1511885021939461,-1,-1,-1,-3,1,-1,-3,-1
1511885021939461,1,-1,0,7,-1,-1,2,2
1511885021946371,0,-1,1,-4,-1,0,-1,-3
1511885021946371,-4,-7,2,-2,2,2,-1,0
1511885021955398,1,1,0,2,-2,-2,0,0
1511885021955398,0,-2,-4,-2,-5,1,-1,-3
1511885021969432,0,-2,-1,-2,-1,-1,-1,0
1511885021969432,-6,0,1,0,0,3,-2,-2
1511885021976451,2,2,-2,0,0,4,0,-2
1511885021976451,2,1,2,0,-2,-1,-1,-3
1511885021984473,0,-1,-3,-5,-1,-3,3,1
1511885021984473,6,2,2,1,0,-5,-1,0
1511885021999512,-1,-1,-3,0,-2,0,1,1
1511885021999512,0,0,0,1,4,0,0,-3
1511885022006532,-4,-3,2,-3,-2,2,-1,2
1511885022006532,1,1,3,-4,0,-2,1,1
1511885022021686,-4,0,-4,-1,0,-1,-3,-1
1511885022021686,-2,-2,0,4,0,0,3,0
1511885022029708,4,6,-3,-1,0,0,0,1
1511885022029708,-1,-3,1,-1,-3,0,-1,-2
1511885022044752,-2,-1,2,1,0,1,0,-1
1511885022044752,-7,0,-2,3,0,3,-5,1
1511885022045675,5,-2,-1,3,1,-1,-1,-6
1511885022045675,-21,-4,-1,-7,0,-3,0,-2
1511885022059675,10,0,-2,5,-4,-1,2,6
1511885022059675,-2,-1,-2,-2,3,-2,-3,-3
1511885022066816,0,-1,2,-2,-1,2,2,0
1511885022066816,1,4,-1,0,-1,-3,4,-3
1511885022081732,1,-5,-2,-3,-3,1,-2,-3
1511885022081732,-5,5,0,2,-1,-2,2,7
1511885022089749,3,-2,0,2,-1,3,-2,0
1511885022089749,1,1,-2,1,-3,-1,-4,1
1511885022104792,3,-2,3,2,0,-5,0,1
1511885022104792,0,2,4,2,2,-5,12,-6
1511885022105792,0,2,-4,-3,1,-2,0,0
1511885022105792,-2,-2,0,1,-2,-1,1,2
1511885022118830,-10,-2,7,-1,2,-3,-1,-1
1511885022118830,10,-3,-8,-5,-5,-2,-5,0
1511885022126933,-8,-1,0,-11,-3,-1,0,-2
1511885022126933,4,-2,0,12,0,6,4,1
1511885022141942,-1,4,-1,-5,0,2,10,-4
1511885022141942,-2,-3,-2,2,0,0,-6,-2
1511885022149958,-1,-2,1,-1,-4,0,-2,-3
1511885022149958,3,2,-5,0,-4,-1,-5,2
1511885022164993,-2,0,9,4,1,0,0,-7
1511885022164993,-6,0,-14,2,1,4,-2,-1
1511885022165995,7,2,3,-2,2,-5,-4,-3
1511885022165995,3,-2,0,1,-1,3,-1,0
1511885022179034,-14,-5,1,2,-7,5,34,-1
1511885022179034,-2,-3,-7,-4,-3,1,-12,0
1511885022187056,-1,-1,3,3,2,-2,-4,4
1511885022187056,-2,0,-2,-1,6,5,14,-3
1511885022202096,0,4,-9,0,3,0,-18,0
1511885022202096,-1,-5,5,1,-4,-1,10,3
1511885022210117,-7,-1,-2,3,2,5,6,-3
1511885022210117,3,-3,5,-6,1,-3,-13,-1
1511885022225267,-1,4,-12,-1,-3,0,-7,-2
1511885022225267,-2,-2,8,7,-1,1,-5,-4
1511885022226156,3,4,-2,-4,8,-4,-10,2
1511885022226156,1,-5,-13,2,-7,-6,-66,1
1511885022239422,7,-1,8,-1,9,-8,7,1
1511885022239422,2,1,-10,-14,-5,-4,-1,-2
1511885022246307,-4,-4,-1,-6,-2,0,4,0
1511885022246307,4,5,0,-6,-5,-4,-5,4
1511885022261548,4,-4,-2,0,-3,0,-9,2
1511885022261548,-5,2,-3,11,9,0,-6,-1
1511885022269368,4,-2,-1,0,-8,-4,5,2
1511885022269368,-4,-1,3,0,0,0,19,0
1511885022284410,1,1,-12,-2,-4,1,-23,-2
1511885022284410,2,-3,16,-1,-3,-1,3,-2
1511885022285411,2,3,-12,7,0,3,-54,0
1511885022285411,-2,-5,12,10,-8,-7,32,-4
1511885022299450,-4,-1,7,20,8,4,-4,-5
1511885022299450,0,2,3,-18,-4,2,-14,0
1511885022306467,2,2,4,3,-4,-5,-7,1
1511885022306467,1,4,-1,-3,4,-1,1,-1
1511885022321510,-1,0,0,-4,-1,-1,-2,2
1511885022321510,1,5,3,2,-2,2,19,-1
1511885022329533,-6,-7,3,2,-6,2,45,0
1511885022329533,2,3,-4,-7,5,1,-21,4
1511885022344745,5,4,4,-1,-2,-8,27,2
1511885022344745,-2,2,2,1,0,-1,-10,-2
1511885022345572,-1,1,-2,-5,1,1,-1,-4
1511885022345572,5,-1,-8,0,-3,-8,-76,4
1511885022359782,5,-2,0,-14,1,-5,-23,2
1511885022359782,5,0,-1,-3,1,0,-9,2
1511885022366630,-2,-2,-4,2,-2,-1,6,-3
1511885022366630,2,5,5,-7,-3,2,16,-1
1511885022381891,-7,0,-7,1,-6,-1,-3,-4
1511885022381891,2,-6,-4,8,2,0,-9,3
1511885022389920,2,-1,9,-10,0,-3,-8,2
1511885022389920,-3,-4,-10,18,2,4,23,-5
1511885022404956,-2,-2,-3,-25,0,2,-3,0
1511885022404956,0,-2,1,16,-5,-1,-3,-3
1511885022406126,-4,0,1,-10,-1,-1,2,-4
1511885022406126,1,-2,4,-11,-3,0,10,1
1511885022418993,-3,0,10,8,4,1,0,-2
1511885022418993,-1,1,-5,0,1,0,2,0
1511885022427137,1,-2,1,-1,-3,0,-1,1
1511885022427137,0,-2,-4,-3,3,0,17,0
1511885022442083,-3,-2,-1,-1,-4,4,-3,-2
1511885022442083,0,1,5,-2,1,-1,2,-2
1511885022450093,0,-1,-7,9,0,2,-60,2
1511885022450093,4,3,6,-9,3,-4,-27,2
1511885022465203,-1,-5,-7,8,0,2,-4,-4
1511885022465203,2,1,0,-3,3,1,4,0
1511885022465203,-2,-1,-2,-4,-2,0,-16,2
1511885022465203,-1,-2,-5,3,3,2,10,-4
1511885022479237,-1,-3,1,-1,-3,-2,-4,0
1511885022479237,-3,-4,-3,-2,0,0,-4,0
1511885022487260,-3,-2,0,1,-2,-2,16,-1
1511885022487260,-2,-1,-2,-7,0,0,12,-4
1511885022501298,-2,-2,0,7,-3,4,8,-2
1511885022501298,0,-2,-2,-3,-2,-2,3,-1
1511885022510469,-6,0,-3,5,-1,0,13,-2
1511885022510469,-5,-1,-3,3,-2,3,8,-2
1511885022524474,-2,-3,-3,-7,0,1,-6,-1
1511885022524474,-1,0,-3,0,-4,1,1,0
1511885022525477,-2,-1,0,5,3,1,10,-4
1511885022525477,0,-2,-5,-3,-5,0,2,2
1511885022539518,-1,0,1,-1,1,2,-2,1
1511885022539518,-3,-4,-1,-5,-2,2,0,0
1511885022546652,0,0,-3,2,2,-2,10,0
1511885022546652,-3,-2,-3,0,0,2,5,-3
1511885022561576,-2,-2,-1,2,3,-1,-2,-2
1511885022561576,-4,-2,-5,2,-1,0,0,0
1511885022569860,-1,-1,0,0,-1,1,4,-1
1511885022569860,-3,0,3,4,1,-1,-1,-5
1511885022584778,3,2,-2,-3,-2,-6,-1,4
1511885022584778,-1,1,1,-1,-2,1,0,0
1511885022585802,0,-2,-2,0,1,2,3,0
1511885022585802,-1,0,1,4,-2,1,1,-2
1511885022598836,-1,-2,-5,-3,-5,-2,1,-1
1511885022598836,2,4,-3,-6,-1,-3,-4,-3
1511885022606959,-2,1,1,0,-6,1,1,1
1511885022606959,1,-1,-2,1,-3,0,4,1
1511885022622057,0,0,0,-1,-2,-1,-2,1
1511885022622057,2,1,0,1,3,2,0,-4
1511885022629999,-2,0,0,5,2,-2,4,-4
1511885022629999,2,0,0,-5,-5,-4,1,2
1511885022644051,-3,-6,-6,0,0,1,-2,-3
1511885022644051,1,-2,0,-5,-5,-5,1,2
1511885022652078,-1,-3,0,-3,-4,2,5,-2
1511885022652078,-4,0,0,1,2,2,2,-2
1511885022659010,4,1,-1,4,2,-4,2,-2
1511885022659010,0,-1,-1,-5,-5,-4,-2,2
1511885022667039,-1,1,-1,2,5,1,0,0
1511885022667039,1,-4,2,-6,-11,-6,0,3
1511885022682038,1,3,-1,-3,-1,0,-1,3
1511885022682038,-1,-3,0,-1,1,2,0,-3
1511885022690197,3,0,-4,-1,0,-2,-4,2
1511885022690197,-1,2,2,3,4,3,1,-2
1511885022704223,-4,-1,3,2,0,1,1,-1
1511885022704223,0,-2,-3,5,0,3,-1,-1
1511885022712242,-1,-1,-4,-3,-1,-7,-1,-2
1511885022712242,-1,-2,-4,2,2,3,-2,0
1511885022727284,-2,2,-1,0,-5,-2,-2,-2
1511885022727284,-3,-2,4,5,14,3,0,-3
1511885022728244,0,-2,-2,-4,-7,0,2,-2
1511885022728244,-1,0,4,6,3,1,3,0
1511885022741303,0,0,-8,3,-1,3,2,-2
1511885022741303,-2,-3,-2,-1,-3,1,3,2
1511885022750303,0,1,4,-3,4,-1,-1,-3
1511885022750303,0,1,-2,-5,3,-4,-1,-1
1511885022764381,-1,-1,-2,-2,1,1,0,3
1511885022764381,-2,-1,-2,0,-4,0,-2,-3
1511885022772365,-2,-3,0,8,5,1,-1,0
1511885022772365,-1,-3,-3,-4,-2,1,0,-1
1511885022787403,-1,2,-1,-1,-1,1,-5,-3
1511885022787403,-1,-2,-1,-6,-5,-3,-2,0
1511885022788407,0,1,2,3,-2,-1,-3,1
1511885022788407,-1,-4,-2,-1,-1,-1,-1,-2
1511885022801441,-4,-4,3,1,3,0,-3,-3
1511885022801441,-1,-1,0,-3,-3,1,-4,-2
1511885022809462,-2,-1,2,-3,-5,-1,1,-1
1511885022809462,-1,-4,-2,-2,2,0,-1,1
1511885022824500,-1,0,0,0,4,-3,0,-3
1511885022824500,-1,-2,-1,0,-1,2,-2,0
1511885022832524,1,-3,-1,1,-1,2,-5,0
1511885022832524,-2,1,-2,3,0,1,1,-5
1511885022847565,4,-5,-1,-4,-4,-1,-1,3
1511885022847565,-7,0,-3,2,1,-4,-2,0
1511885022848565,1,2,0,-2,-2,-1,-1,3
1511885022848565,-2,1,3,-2,0,1,-1,-3
1511885022861601,1,1,1,0,-1,4,-2,-1
1511885022861601,-2,0,4,2,-1,-1,0,-2
1511885022869622,0,-3,-4,-2,-4,0,-1,0
1511885022869622,0,-1,-1,-3,-2,-1,-1,-2
1511885022883798,-2,-3,-5,-1,-1,0,0,1
1511885022883798,2,-3,-1,1,1,2,-1,-2
1511885022892903,-5,-3,1,-4,-2,0,1,-3
1511885022892903,1,1,-3,4,0,-3,-1,-1
1511885022907862,-3,0,-2,3,0,-2,-1,0
1511885022907862,0,2,0,-2,2,0,0,-2
1511885022907862,3,0,-1,4,1,0,0,-3
1511885022907862,-1,-3,1,2,-5,2,0,-1
1511885022921938,1,0,-2,-1,0,-1,0,3
1511885022921938,1,2,2,-2,-3,-1,-2,0
1511885022930044,-3,3,2,-5,-3,0,2,1
1511885022930044,-6,0,-1,3,1,0,-2,-1
1511885022944081,-2,-2,1,-1,1,1,-2,-3
1511885022944081,-3,-2,-2,2,4,-3,0,-1
1511885022952019,3,-1,1,0,0,-3,0,-2
1511885022952019,-1,-2,-1,-3,1,-1,-2,-3
1511885022967061,2,-1,1,3,-7,-1,-1,1
1511885022967061,1,2,-3,-1,-2,-5,-1,0
1511885022968022,-3,-1,-3,-1,1,-1,0,0
1511885022968022,0,-3,0,-3,-5,-4,0,2
1511885022983058,2,-1,2,1,0,1,2,1
1511885022983058,1,-1,-1,-1,-4,7,0,-3
1511885022990181,0,-2,-1,10,9,-2,1,1
1511885022990181,0,0,-1,0,2,-1,0,2
1511885023004239,-4,0,-2,3,0,-2,-2,-4
1511885023004239,-2,-2,-3,-2,1,0,0,3
1511885023012265,-3,-1,0,0,0,-2,1,0
1511885023012265,-2,-4,-6,1,1,-1,0,-2
1511885023027296,0,-1,-1,-3,-1,0,0,-1
1511885023027296,1,0,-1,-3,-1,-2,0,-1
1511885023028181,3,0,0,-6,-5,-1,0,0
1511885023028181,0,2,-1,-2,-1,0,0,0
1511885023042274,-2,1,2,-1,-3,2,-2,2
1511885023042274,0,-3,-1,0,-2,0,-4,-1
1511885023050347,-1,-4,0,-4,-2,0,-2,1
1511885023050347,0,-2,0,0,-1,1,0,-5
1511885023064441,1,-2,4,-2,-2,-2,3,0
1511885023064441,0,-2,-1,0,2,-1,-1,-1
1511885023072295,-3,1,2,4,1,5,0,-2
1511885023072295,2,0,-2,-3,-3,-4,-3,-1
1511885023087340,-4,0,-4,0,2,0,3,1
1511885023087340,0,-1,1,-2,-5,-1,1,0
1511885023088507,-2,2,-3,1,3,-1,-2,-1
1511885023088507,-2,-2,-5,1,-3,1,-1,2
1511885023101622,-2,0,0,-1,-1,2,-3,-4
1511885023101622,-1,0,-2,-1,-1,-5,-1,-1
1511885023109795,0,-3,1,-4,-1,-2,1,-1
1511885023109795,2,-2,-1,1,3,3,-3,0
1511885023123705,-4,1,-2,-2,-1,-3,-2,-2
1511885023123705,-2,-2,-3,0,-1,1,0,0
1511885023132729,0,2,0,1,0,1,-3,-1
1511885023132729,0,-1,-1,0,-3,2,1,1
1511885023146766,0,-4,-6,-3,1,0,-3,-2
1511885023146766,0,0,2,8,6,2,-1,0
1511885023147770,-3,1,-3,-6,-6,-1,1,-2
1511885023147770,-4,-1,3,-5,-3,1,-2,0
1511885023161807,1,-2,-1,3,3,4,-1,2
1511885023161807,0,-1,-1,9,7,-1,0,-3
1511885023169828,0,-1,-2,-3,-3,-4,1,1
1511885023169828,0,1,-2,-1,3,-1,-4,0
1511885023183865,-1,2,3,0,0,0,-1,-2
1511885023183865,0,-1,2,-6,-7,1,1,-2
1511885023191887,1,0,-6,1,-2,-2,-2,-2
1511885023191887,-1,2,-2,0,0,-2,1,2
1511885023206952,-1,0,1,0,-2,-4,0,1
1511885023206952,-1,-1,1,-1,3,3,0,-3
1511885023207928,-1,-1,-2,-2,-1,-1,0,1
1511885023207928,-4,2,3,0,-2,3,-1,-1
1511885023222093,1,0,1,2,-1,-2,-5,1
1511885023222093,2,-1,1,0,0,-4,0,-1
1511885023229986,0,-3,-1,1,0,1,-1,0
1511885023229986,0,1,0,2,1,-1,-1,-4
1511885023244219,-1,-3,-6,-4,0,-2,1,1
1511885023244219,2,-2,-5,-2,-1,-1,-2,1
1511885023252089,-2,-2,-2,2,-3,1,-2,0
1511885023252089,2,1,-1,-2,-2,-1,3,-3
1511885023267085,-2,-2,-2,-2,-3,0,-3,-3
1511885023267085,-1,2,-3,2,-3,-1,-2,-1
1511885023268088,1,0,-2,-3,-2,-2,-2,0
1511885023268088,2,0,-3,0,-2,-2,0,1
1511885023281141,0,-2,3,1,-2,-1,1,-3
1511885023281141,-3,2,-3,-7,-5,-1,0,-2
1511885023290148,-1,1,0,0,-2,-1,0,-1
1511885023290148,-3,-2,3,0,-3,-2,-1,0
1511885023304185,-1,1,-5,2,3,2,0,-1
1511885023304185,-3,-1,1,-1,0,0,-1,-1
1511885023312205,-2,-3,3,2,-1,2,-1,-2
1511885023312205,1,-2,-5,-1,0,0,0,0
1511885023327443,-1,-2,2,-1,0,-1,0,0
1511885023327443,0,-1,0,1,-1,2,-1,0
1511885023328249,0,2,-2,-1,0,-4,-3,-3
1511885023328249,-2,-2,0,0,2,2,0,-4
1511885023341421,4,-1,-4,-2,-6,-1,3,1
1511885023341421,-2,-1,0,0,-1,-1,-1,-1
1511885023350445,0,-1,0,2,2,4,-2,-1
1511885023350445,0,-2,2,-3,-2,-4,-1,-1
1511885023364649,-3,1,-1,-1,-1,-1,-2,-2
1511885023364649,-2,-4,0,-2,-5,2,1,1
1511885023372673,0,3,2,0,1,-2,-1,-1
1511885023372673,-3,-3,-3,-4,0,3,-1,-2
1511885023387756,-3,-4,-3,0,-1,1,1,0
1511885023387756,2,1,3,-2,-2,-6,-1,1
1511885023387756,-2,-3,-1,2,-6,1,1,0
1511885023387756,-1,1,4,3,7,-1,0,-2
1511885023401792,-1,-1,1,-1,-5,-1,-2,-2
1511885023401792,-1,1,-3,-1,0,0,0,-2
1511885023409768,1,-1,-3,-2,0,0,0,-3
1511885023409768,-1,-1,-3,-1,1,0,-2,-2
1511885023423805,-1,1,-2,0,1,2,-1,1
1511885023423805,0,-1,-2,2,6,-1,0,1
1511885023432833,-1,-1,-1,0,-3,-2,-2,0
1511885023432833,0,-3,3,0,-4,2,0,2
1511885023446867,0,1,0,1,-2,-3,0,0
1511885023446867,-2,-1,1,0,-1,1,-2,-1
1511885023447868,1,-1,-3,-6,-5,-1,0,0
1511885023447868,-3,1,2,2,0,-3,-1,0
1511885023461924,2,3,-5,-1,-1,3,-1,1
1511885023461924,-1,1,-2,-4,1,-1,0,-2
1511885023470931,-1,0,-2,2,-3,3,0,-3
1511885023470931,-1,0,-1,-1,-1,0,1,-1
1511885023483971,-3,1,2,-2,-1,-2,-3,0
1511885023483971,-3,-1,-3,4,11,3,-1,0
1511885023492992,-1,-2,1,6,7,4,0,1
1511885023492992,-2,-1,0,-6,-10,-1,0,2
1511885023507029,2,1,5,1,4,1,0,-3
1511885023507029,2,0,-1,-3,-9,-3,-3,1
1511885023516050,-2,-2,1,-4,-2,-3,-2,-1
1511885023516050,1,0,0,3,0,1,-2,-2
1511885023522069,-1,-3,-3,1,-2,2,0,-2
1511885023522069,-2,0,1,0,0,0,-1,-1
1511885023531090,0,-1,-5,2,0,1,0,-1
1511885023531090,-1,1,-1,0,-2,-4,-1,-3
1511885023544128,-1,1,0,-3,0,-1,2,0
1511885023544128,2,-1,-4,3,-2,2,-1,0
1511885023553148,-2,1,-1,-5,-1,0,-3,-1
1511885023553148,3,-4,-7,6,7,-1,2,-1
1511885023567216,-2,3,1,2,-1,-1,0,0
1511885023567216,0,-4,2,-2,-3,0,-2,-1
1511885023575207,0,-2,-3,-3,-3,-4,0,0
1511885023575207,-2,3,-2,-1,-4,3,-1,1
1511885023582226,1,0,0,-1,0,-1,0,-2
1511885023582226,-2,-2,-4,3,2,-1,2,-1
1511885023590247,-2,1,-1,-3,-2,-1,1,-1
1511885023590247,-4,-2,2,0,-3,1,0,1
1511885023604411,-1,0,-1,0,3,-3,0,-1
1511885023604411,-3,-1,3,0,-2,-1,-2,-1
1511885023613308,-1,-1,4,-2,2,0,1,1
1511885023613308,1,2,-1,-1,1,-1,-3,-1
1511885023626529,1,-3,-3,-1,-2,3,-3,-3
1511885023626529,1,-2,-3,-5,-3,1,-1,0
1511885023635371,2,-1,-3,3,-5,-1,0,0
1511885023635371,0,-3,7,1,1,0,0,0
1511885023641384,-3,-2,-3,-3,0,2,-2,-2
1511885023641384,-2,-3,3,-1,-4,-1,0,-2
1511885023658429,-1,2,0,5,10,-1,1,-2
1511885023658429,-1,-2,-4,0,2,1,-1,1
1511885023663656,1,-3,3,2,-8,-3,-2,1
1511885023663656,-2,0,2,-6,-6,3,0,-1
1511885023673687,-3,0,2,17,9,-2,1,-1
1511885023673687,-1,-1,-3,-5,1,1,-4,-7
1511885023686917,1,4,-1,1,-2,-4,-2,-2
1511885023686917,1,-3,-2,-3,-3,0,-3,-1
1511885023695742,0,-3,-2,-9,-6,-2,-2,0
1511885023695742,-1,-1,-1,3,-1,1,-1,1
1511885023709824,-1,-2,6,-5,-2,2,0,2
1511885023709824,1,-2,-5,1,1,0,2,-1
1511885023717802,0,-2,-2,-3,-1,-1,-2,-2
1511885023717802,0,-3,5,0,-3,-3,-1,-1
1511885023723819,-1,1,-3,-3,-1,1,1,-1
1511885023723819,1,4,5,1,0,-2,0,2
1511885023732843,2,1,-2,-2,-1,-1,0,-1
1511885023732843,-2,-4,-5,-2,-2,0,1,-1
1511885023746878,2,1,3,8,-1,1,-1,1
1511885023746878,0,0,-6,3,2,-3,-2,-1
1511885023755902,1,-3,0,-20,-8,3,-2,-3
1511885023755902,-4,3,-3,16,9,0,-2,-1
1511885023768938,-1,-6,-6,-8,-3,-2,3,-2
1511885023768938,-3,1,3,-2,-2,0,1,-2
1511885023778118,-4,-7,-8,14,6,5,-2,-1
1511885023778118,-1,-1,2,-21,-3,2,-1,0
1511885023784183,-3,3,-3,5,4,2,-3,-3
1511885023784183,1,-4,-7,-11,-4,0,-1,1
1511885023793204,-3,1,3,8,0,0,3,0
1511885023793204,2,-1,3,-23,-2,0,0,-2
1511885023806334,-5,3,3,23,-1,2,-2,-3
1511885023806334,0,-1,-1,-6,0,-3,-3,0
1511885023815265,-1,4,1,-4,-1,-1,1,-1
1511885023815265,-1,-1,0,13,-5,0,0,1
1511885023838326,0,-2,2,-7,3,-1,1,-2
1511885023838326,-1,0,2,7,-1,-1,0,-2
1511885023839331,-2,-1,2,-1,-1,-1,-2,-1
1511885023839331,-1,4,-1,-2,-1,-3,-1,-4
1511885023844342,-3,-3,4,1,-1,-1,-3,-1
1511885023844342,-3,1,-2,-7,1,1,-2,1
1511885023853369,3,-3,-2,-11,-2,-1,-3,-2
1511885023853369,6,1,1,24,1,-3,0,-1
1511885023866401,-2,-6,-2,3,-2,-1,-1,5
1511885023866401,-1,-1,4,-7,1,1,-1,-3
1511885023875422,-5,-2,-2,9,-4,-2,-2,0
1511885023875422,1,0,-4,-11,0,0,-1,-3
1511885023889462,1,-3,-6,1,0,-2,2,-3
1511885023889462,2,2,0,-18,-4,-2,1,5
1511885023898483,5,-2,-3,6,-2,-2,0,2
1511885023898483,-2,1,-3,4,-2,-1,-2,0
1511885023904499,-4,-3,-3,-5,4,-1,-1,0
1511885023904499,-3,-1,0,4,-1,0,2,-2
1511885023913527,12,10,0,-24,-1,4,-1,1
1511885023913527,-3,-5,-5,14,-3,1,-2,0
1511885023926678,3,-1,0,-8,0,-3,0,-3
1511885023926678,3,-5,-6,6,2,1,-3,-3
1511885023935582,-4,3,3,16,-1,-2,-1,-2
1511885023935582,-3,-1,0,-13,0,-1,-1,0
1511885023949620,-2,-2,-7,-27,4,2,1,0
1511885023949620,1,1,4,22,-3,-1,0,-2
1511885023958682,-4,-5,-1,-21,0,0,-1,-3
1511885023958682,2,2,-3,10,-1,-6,-2,2
1511885023964670,-1,1,1,8,0,1,1,0
1511885023964670,-1,-2,-4,-2,0,1,0,-1
1511885023973002,-6,0,-1,-11,2,-1,-2,-3
1511885023973002,10,-3,3,7,-1,1,1,0
1511885023986863,-13,3,2,-6,-3,-2,-2,-1
1511885023986863,4,2,-1,1,-3,-2,-1,1
1511885023995883,1,-1,-1,5,-4,0,0,2
1511885023995883,-7,0,-3,-1,0,2,-1,-2
1511885024008921,1,-3,-1,17,-1,-4,-2,-3
1511885024008921,-2,-1,1,-27,0,-1,0,-3
1511885024018054,-3,-1,2,30,0,-1,0,2
1511885024018054,-1,2,3,-14,-2,-2,3,-1
1511885024024212,3,-3,-2,4,0,3,-1,-3
1511885024024212,-1,3,0,7,0,0,1,-2
1511885024033236,-2,-8,4,-10,-3,-2,1,2
1511885024033236,7,0,-8,5,1,-2,-2,-5
1511885024046270,-1,-2,-1,-7,-2,-3,1,2
1511885024046270,-2,-6,-2,-7,1,0,-3,-2
1511885024055477,-3,4,1,19,0,-1,1,-1
1511885024055477,2,-2,2,5,-3,3,-1,3
1511885024069363,7,0,-8,-9,-2,1,-3,2
1511885024069363,-15,1,-5,18,-2,-3,0,-1
1511885024078387,4,-4,5,3,-1,-1,-3,-2
1511885024078387,-2,2,-1,15,-3,-1,0,-2
1511885024084407,-3,-1,-1,-3,0,2,0,-1
1511885024084407,16,-2,2,-2,0,-2,1,1
1511885024093456,-10,2,-3,0,0,-1,-1,-1
1511885024093456,-3,-4,-1,-15,3,0,-2,2
1511885024106626,6,1,3,-11,-1,-4,-4,-2
1511885024106626,-3,-1,-6,-9,-1,-4,1,-4
1511885024115647,1,0,-3,1,3,0,2,-2
1511885024115647,5,-3,5,19,-1,-1,-3,-3
1511885024129704,-6,1,-11,-5,-1,-3,0,3
1511885024129704,-2,-2,7,9,-1,2,10,3
1511885024137709,1,3,-6,-5,1,2,0,-3
1511885024137709,-7,-2,-4,-17,0,0,-1,-1
1511885024143909,-1,1,4,4,-4,1,-2,-2
1511885024143909,-4,0,-1,3,1,1,-1,-1
1511885024152980,4,-5,0,-7,-2,-4,-1,2
1511885024152980,-3,0,7,-2,-1,-1,4,-2
1511885024166931,2,-7,-17,-1,-3,0,1,1
1511885024166931,-4,1,0,7,0,-1,-9,-1
1511885024175957,1,-1,5,-6,-2,1,-4,0
1511885024175957,-1,1,-5,-5,-4,-2,-1,3
1511885024189031,4,-1,8,1,1,1,-1,0
1511885024189031,2,0,-4,-4,-3,-3,-1,-5
1511885024198012,-1,-2,-7,-2,-2,-2,0,3
1511885024198012,0,1,2,-6,2,3,-2,-2
1511885024204069,-5,-1,3,4,0,1,-1,1
1511885024204069,2,-1,-2,-6,-1,-1,-1,4
1511885024213056,-3,-1,-1,15,-1,-3,1,-1
1511885024213056,-4,-4,5,-6,4,1,0,0
1511885024227125,-2,0,1,3,-1,-3,5,-2
1511885024227125,-1,-1,3,-4,-2,0,-1,2
1511885024236112,-1,-1,-4,-5,-2,-1,1,-4
1511885024236112,-7,-4,-3,1,-3,0,-2,-2
1511885024249150,0,1,1,2,2,0,-1,-4
1511885024249150,-2,1,10,4,4,3,18,-4
1511885024258170,-1,-3,-5,1,-4,2,-5,-3
1511885024258170,-2,2,-6,0,-2,-2,2,-3
1511885024264186,-1,0,6,-6,-3,-1,-1,-2
1511885024264186,-3,-2,-4,5,3,-1,-4,-1
1511885024273215,-1,1,2,-4,-3,2,0,2
1511885024273215,2,2,-4,-18,1,-3,2,4
1511885024286249,2,-1,2,23,-1,2,18,2
1511885024286249,0,-2,-5,-3,-4,-2,-6,-1
1511885024295447,-2,-4,2,-2,0,-1,1,0
1511885024295447,2,1,-4,-25,-3,1,-5,-1
1511885024309710,-5,-2,2,26,0,0,-5,-2
1511885024309710,0,0,1,11,3,1,-4,0
1511885024318555,-4,0,-2,-4,-5,1,5,-1
1511885024318555,-1,-2,3,2,2,0,1,-1
1511885024324570,-4,-1,-5,-1,3,-2,-1,-4
1511885024324570,-1,-1,-1,-4,-3,0,-3,-3
1511885024332685,-2,-3,1,-2,-3,0,-8,-2
1511885024332685,-5,-4,1,6,1,-1,-2,-4
1511885024346741,0,-1,-2,-8,-2,-3,-8,-2
1511885024346741,-2,-2,-5,5,3,6,-5,0
1511885024355740,2,2,2,-8,-1,-9,-1,-1
1511885024355740,4,-6,3,0,-6,2,17,2
1511885024368818,5,1,6,-10,1,-3,1,6
1511885024368818,1,1,-8,-7,-3,-4,4,3
1511885024377803,5,0,0,-13,2,0,-5,3
1511885024377803,-1,0,-2,22,1,-3,-6,1
1511885024383815,1,-1,-1,-10,-4,1,0,-2
1511885024383815,1,0,-3,-6,-5,-3,-1,-2
1511885024392931,-2,1,1,-3,4,3,1,-3
1511885024392931,1,0,1,11,-4,1,-2,0
1511885024407072,-3,-1,-3,7,6,4,-4,-3
1511885024407072,-8,-2,-6,8,-2,1,19,-6
1511885024415900,-3,2,1,-5,-7,0,-5,-1
1511885024415900,0,0,-1,-7,-6,-5,-3,-2
1511885024429188,-1,-1,-4,0,3,-3,0,1
1511885024429188,0,-2,2,1,0,-2,-7,-1
1511885024438135,2,1,-3,-17,0,2,4,-2
1511885024438135,2,1,3,16,4,-5,-3,1
1511885024444334,1,-3,-3,-12,-2,-4,-1,-1
1511885024444334,2,3,4,0,-1,0,-3,2
1511885024453179,0,-2,-3,2,-1,0,-16,3
1511885024453179,-5,1,-6,-4,2,2,-9,0
1511885024466215,-1,-2,5,-5,-5,-1,1,-2
1511885024466215,2,-3,7,1,0,1,8,-1
1511885024475240,0,-4,-14,-19,3,-5,-66,0
1511885024475240,5,4,10,14,-4,-4,6,1
1511885024489477,3,3,1,-7,10,-2,2,0
1511885024489477,-4,-3,-15,-12,-5,-2,-8,2
1511885024498295,5,-1,7,11,1,0,1,-1
1511885024498295,-3,-3,-4,-4,3,2,-8,-3
1511885024504311,0,-1,5,4,-3,-2,-1,-1
1511885024504311,0,1,8,11,4,0,-9,-3
1511885024513335,-1,3,0,0,-5,-2,24,-4
1511885024513335,-4,-2,-8,-1,-1,1,-3,-4
1511885024526570,-4,-5,1,1,-2,5,5,-1
1511885024526570,-1,-1,-1,-3,1,0,-2,-2
1511885024535417,-4,-2,-4,6,-1,-2,14,-1
1511885024535417,0,-3,2,-6,-3,0,-2,1
1511885024549435,-1,2,-7,-6,-2,-3,-11,4
1511885024549435,3,1,5,-1,-2,-4,-6,2
1511885024558475,-3,-4,0,6,2,3,41,-2
1511885024558475,2,1,0,-15,-4,-3,0,0
1511885024564474,-2,-3,-3,2,1,8,3,-1
1511885024564474,-2,-2,-1,-2,-2,-2,-2,1
1511885024573671,-3,3,1,6,0,0,4,-2
1511885024573671,1,-6,-6,-7,-4,-2,-1,1
1511885024586713,-1,0,-1,-1,-2,-1,-1,-3
1511885024586713,-2,0,2,6,1,2,-4,0
1511885024595553,-3,-2,-3,5,5,4,-8,2
1511885024595553,-3,-4,-3,-1,3,2,-1,-2
1511885024609616,1,-1,-3,-4,-5,-2,1,-1
1511885024609616,1,-1,7,-3,-6,2,1,-1
1511885024618620,-1,-2,-3,6,0,0,-1,-1
1511885024618620,-2,-1,-3,-5,2,1,-2,-3
1511885024632655,0,2,0,-1,1,-3,-2,-1
1511885024632655,1,-4,-2,-6,-1,1,0,1
1511885024634686,3,-2,0,6,2,-1,1,-3
1511885024634686,-2,2,1,-4,-5,-2,2,1
1511885024646691,0,-1,-1,-3,-2,4,-6,0
1511885024646691,2,-2,-2,-3,-3,0,1,-2
1511885024655714,-2,-2,1,-1,-1,-2,-2,-2
1511885024655714,-2,-1,-1,1,5,1,0,0
1511885024668790,-2,1,-1,-3,-4,-3,-2,-2
1511885024668790,-1,3,-6,4,-2,-1,-5,-1
1511885024677900,-1,1,3,2,-1,-1,3,-2
1511885024677900,-1,3,-3,-3,2,1,1,-2
1511885024693027,0,-4,0,2,0,2,-1,-3
1511885024693027,-2,2,-3,-2,-1,0,-4,0
1511885024694909,1,-4,3,-2,-4,-2,-2,1
1511885024694909,-5,0,1,-2,-2,2,-5,0
1511885024707147,-2,0,-3,7,9,1,-1,-3
1511885024707147,2,-5,-4,-6,-5,-2,1,0
1511885024716156,-1,0,1,-3,2,0,0,-1
1511885024716156,1,-1,-2,-2,-3,-1,3,0
1511885024729309,-4,-2,-2,-2,-3,-2,-1,0
1511885024729309,0,0,-2,3,3,0,1,0
1511885024738216,-3,-2,-4,-3,0,-1,-2,-1
1511885024738216,2,-3,-3,5,-1,-2,-3,-1
1511885024753297,2,3,0,-3,-7,-2,0,0
1511885024753297,-1,0,0,1,3,-2,-2,1
1511885024754255,-4,-2,1,-5,0,-3,0,-2
1511885024754255,-2,-3,0,-2,-2,2,-2,-1
1511885024766290,0,1,0,-1,-5,-3,-1,-3
1511885024766290,-2,1,3,1,0,0,-1,0
1511885024775315,2,-2,-2,3,-3,-1,-1,-2
1511885024775315,-3,-1,-6,-4,0,-1,-2,-2
1511885024789551,-2,-3,-1,-2,-4,0,-3,3
1511885024789551,-4,1,0,-8,-5,-2,-1,-1
1511885024798372,1,1,-6,3,-3,2,-1,-1
1511885024798372,0,-1,2,0,-1,3,0,-4
1511885024813412,0,-4,-6,-4,-4,1,-1,-3
1511885024813412,-1,-1,-1,4,5,-1,2,-4
1511885024814415,-2,-1,-1,1,-2,-3,-3,-5
1511885024814415,-2,0,0,0,2,-1,-2,-2
1511885024826627,5,0,0,2,-1,-1,2,1
1511885024826627,-1,-2,-1,-2,0,-1,-1,-2
1511885024835471,-1,-1,1,0,-4,0,0,2
1511885024835471,0,-2,-1,2,-1,0,-1,-3
1511885024849621,-2,-3,-1,-3,-1,-3,-1,1
1511885024849621,0,0,-1,2,0,2,-1,-1
1511885024858533,-1,-4,0,-4,1,-2,-1,-1
1511885024858533,0,-1,2,-4,0,-5,-2,-2
1511885024873590,-1,0,1,-3,-4,-1,-3,-1
1511885024873590,-3,-1,1,3,4,1,-1,2
1511885024874575,2,1,0,-2,-3,-3,-1,-1
1511885024874575,0,5,1,5,-2,4,2,0
1511885024886625,-2,-1,1,-1,-1,-1,1,-1
1511885024886625,2,0,-4,-9,-5,-1,-1,-2
1511885024895630,-2,0,1,4,2,2,-3,3
1511885024895630,-1,-5,0,-2,-1,0,0,-2
1511885024909728,-2,1,0,0,0,-2,-1,-2
1511885024909728,0,-1,2,1,0,-4,1,1
1511885024918692,-1,0,1,-4,-2,1,0,3
1511885024918692,2,-3,-6,-1,-3,-2,-2,-1
1511885024932732,1,0,0,1,4,-1,-2,-2
1511885024932732,-2,-4,0,5,3,3,-2,-2
1511885024934734,-2,-2,2,-4,-5,-2,-1,0
1511885024934734,-2,0,-3,-2,-1,-3,0,3
1511885024946908,0,-1,0,2,2,-1,-1,1
1511885024946908,-1,0,-3,-3,-8,0,1,-2
1511885024955933,1,-2,-2,-1,2,-1,0,-2
1511885024955933,-1,2,2,6,11,-1,-1,-2
1511885024968967,0,-5,-4,-4,-2,-1,0,-1
1511885024968967,-2,-1,-4,-5,-2,3,0,-1
1511885024977992,-1,0,0,4,2,-2,0,-1
1511885024977992,-2,-2,0,-4,0,-1,1,1
1511885024993030,-1,1,2,-1,-2,2,-1,-1
1511885024993030,3,-2,4,6,10,-1,-5,-2
1511885024995045,-1,1,-3,-5,-6,-2,-2,-2
1511885024995045,0,0,0,0,5,-3,-3,-1
1511885025007068,1,-2,-1,-6,-10,0,2,0
1511885025007068,-1,0,-1,0,0,-1,-2,-1
1511885025015089,-1,-1,0,0,1,-2,0,-4
1511885025015089,2,-1,3,0,-3,-4,-1,0
1511885025029251,-1,-1,-4,-1,-2,3,2,0
1511885025029251,-1,0,-2,-1,1,-2,4,1
1511885025038151,0,2,-1,1,-1,3,-3,-2
1511885025038151,-2,-3,-1,0,-2,2,3,-1
1511885025053314,-1,0,1,0,-4,-3,-4,1
1511885025053314,0,-3,0,-2,-7,-2,0,-3
1511885025054328,-3,4,1,2,3,3,1,0
1511885025054328,0,-1,-2,0,-4,4,-3,0
1511885025066228,-1,1,-1,-1,2,-2,-3,-1
1511885025066228,1,1,-2,2,0,-2,-1,2
1511885025075379,0,-2,0,-6,-1,-3,2,1
1511885025075379,2,2,-3,4,0,-3,1,-4
1511885025089416,-2,-1,3,-1,2,0,3,0
1511885025089416,-1,-2,0,0,-3,-1,-1,-2
1511885025098440,0,-1,-1,10,8,-1,1,-1
1511885025098440,-2,-1,-1,-7,-4,3,-1,-2
1511885025113591,0,1,-1,2,4,2,-1,-3
1511885025113591,-3,-1,0,-6,-6,-2,-4,2
1511885025114483,-2,-2,1,5,4,3,-1,-1
1511885025114483,-3,0,0,3,3,-3,-2,-2
1511885025126557,-1,-1,-3,3,-2,-1,-2,-1
1511885025126557,-2,0,-3,-5,-4,0,2,4
1511885025135546,0,-4,0,-5,-3,-5,-1,0
1511885025135546,-3,4,4,-2,-2,-1,0,-1
1511885025149576,-2,-4,2,1,-2,-1,-1,0
1511885025149576,-1,-2,3,-1,1,-1,1,-1
1511885025158601,-2,0,-3,-5,-5,-2,-2,0
1511885025158601,1,0,3,2,0,-2,0,0
1511885025172639,-1,-2,-9,-1,3,1,-5,-2
1511885025172639,1,2,3,0,-2,1,1,-5
1511885025174642,-2,1,0,-1,-2,-2,0,1
1511885025174642,1,-4,-1,-4,-5,-1,-2,0
1511885025186677,-1,0,2,1,4,0,-1,-1
1511885025186677,-1,-1,-2,-1,0,-2,0,-2
1511885025195697,2,0,-3,-3,0,2,0,-1
1511885025195697,-1,-4,-2,4,-4,-1,0,1
1511885025208745,2,0,2,0,-3,-3,2,-1
1511885025208745,1,-2,-4,-3,-3,-2,-1,-1
1511885025217898,-1,-1,0,5,7,2,-1,-6
1511885025217898,1,2,-5,-4,-5,-2,-2,1
1511885025233095,-1,-1,3,0,0,1,-2,-1
1511885025233095,-1,1,-5,1,-1,-1,-1,0
1511885025235101,-4,-4,-1,-4,-5,1,0,0
1511885025235101,-2,-1,-2,3,2,0,1,-2
1511885025247135,-5,-1,-1,-3,2,0,-2,0
1511885025247135,0,-1,1,1,2,-1,-2,-2
1511885025255152,1,0,-1,1,-4,1,0,0
1511885025255152,0,2,1,0,-1,-1,0,-2
1511885025269318,-4,1,0,-3,0,-3,1,-2
1511885025269318,-1,-2,0,4,-1,2,-3,-2
1511885025278390,-1,-2,3,-6,-5,-1,0,1
1511885025278390,2,0,-2,0,0,1,-2,2
1511885025293497,3,2,-5,-2,-4,0,-1,2
1511885025293497,-1,-2,-3,-2,3,-2,0,-1
1511885025294430,-1,-1,-3,0,-5,-1,1,3
1511885025294430,-2,0,-3,-6,-3,-2,0,1
1511885025306462,-2,-4,-1,7,4,-1,-1,-3
1511885025306462,-1,-1,0,0,2,-1,0,-1
1511885025315485,2,-1,-2,-1,0,1,-2,-4
1511885025315485,-1,-1,-2,-3,0,4,1,-1
1511885025329645,-2,-2,0,-2,-2,-2,-1,0
1511885025329645,2,-1,-3,4,1,2,0,3
1511885025338556,-1,-2,-1,-4,1,-1,-3,-3
1511885025338556,-3,-1,-4,1,5,-4,-4,0
1511885025352627,2,1,0,-1,3,0,-1,0
1511885025352627,3,2,-2,-4,-5,-1,0,0
1511885025354619,-4,0,0,0,-2,0,0,-1
1511885025354619,2,-1,2,0,-3,4,1,0
1511885025366625,-3,-2,-2,-4,-4,0,2,1
1511885025366625,-3,-2,-1,0,2,-2,-1,-2
1511885025375646,0,-1,-3,3,0,-2,0,3
1511885025375646,-2,-1,-2,-3,-4,-1,0,-1
1511885025389687,0,1,3,4,3,-1,-1,-2
1511885025389687,0,0,2,-1,2,-2,0,0
1511885025397708,3,-3,-2,0,-2,2,-2,-2
1511885025397708,-2,-3,-2,0,3,1,-1,-1
1511885025412866,0,-2,1,-3,-3,0,0,-1
1511885025412866,-1,-2,-3,0,-1,1,-2,2
1511885025414787,1,1,1,4,2,-3,-1,-2
1511885025414787,1,0,0,-3,1,0,-2,-1
1511885025426789,-1,-1,1,-2,-2,-1,0,-1
1511885025426789,0,-2,1,-1,-4,1,1,-1
1511885025435805,-1,0,3,0,-5,-4,0,-1
1511885025435805,-1,1,-2,7,-3,1,-4,3
1511885025448950,-1,-2,-2,-6,-3,1,-1,0
1511885025448950,0,0,-2,-1,-5,0,-2,-2
1511885025457866,1,2,-1,-2,0,0,-1,1
1511885025457866,0,-3,2,-1,3,0,3,-2
1511885025471905,1,0,0,6,-1,1,-1,-3
1511885025471905,-2,1,0,2,2,-2,1,0
1511885025480928,-3,-4,-1,-5,-5,-3,1,1
1511885025480928,-1,-1,3,-3,0,0,0,0
1511885025486945,-1,-1,-2,0,-2,-1,-3,1
1511885025486945,1,-3,-2,0,-1,6,-2,-4
1511885025495966,-4,0,-5,-1,-2,-4,0,1
1511885025495966,1,1,-1,2,1,-3,2,-3
1511885025509211,0,-1,0,-1,-2,-1,1,0
1511885025509211,1,1,-2,0,-1,-1,0,0
1511885025518024,1,0,-1,1,3,5,-1,-1
1511885025518024,-2,-2,-1,0,-2,2,-2,-3
1511885025532247,0,0,0,-3,0,0,-3,-1
1511885025532247,-3,-2,1,-4,0,4,-4,0
1511885025539083,-2,0,-3,5,6,1,2,-1
1511885025539083,-2,-1,-1,-2,-1,-1,-2,-1
1511885025555126,-3,-1,1,2,-1,4,-2,-2
1511885025555126,1,-1,-3,0,-5,0,-2,-1
1511885025557128,-3,-2,-2,-1,4,2,-1,-1
1511885025557128,0,4,0,3,2,1,0,-1
1511885025569163,-3,-1,2,-3,-1,-1,0,0
1511885025569163,-2,0,0,-1,-2,-3,2,-1
1511885025578184,3,-1,2,-1,-3,-1,0,-2
1511885025578184,-3,-3,-2,-2,1,1,-1,1
1511885025592250,0,-1,-5,1,1,0,2,-2
1511885025592250,-1,2,-1,-1,-2,0,-2,0
1511885025599264,0,-2,2,-2,-6,-1,-2,0
1511885025599264,-1,0,-4,4,10,2,-3,0
1511885025615409,0,-1,-5,2,-1,3,-1,1
1511885025615409,-2,0,0,-1,2,-2,-3,0
1511885025617416,-2,-1,0,-3,-5,1,-1,-1
1511885025617416,-1,1,0,0,-2,-1,-3,2
1511885025629444,-1,1,0,-2,-4,-4,1,0
1511885025629444,-2,-3,-4,2,3,-2,-1,-1
1511885025638467,1,-2,0,0,2,-1,1,-4
1511885025638467,-1,-4,4,1,-4,-3,0,0
1511885025652507,2,1,-3,0,3,0,-2,0
1511885025652507,-3,1,1,-2,-4,1,1,1
1511885025659526,0,1,1,-2,3,0,-2,1
1511885025659526,2,0,3,-1,-6,-1,1,1
1511885025675603,1,-1,0,-1,-4,-1,-2,-1
1511885025675603,-3,-3,3,13,14,3,0,-2
1511885025677576,-4,-3,-2,-2,0,4,-3,0
1511885025677576,2,-2,0,-1,0,-2,-2,-1
1511885025689640,0,-1,-3,-4,0,1,-2,1
1511885025689640,0,0,-2,-3,-2,0,-3,-1
1511885025697629,0,2,-2,2,3,-1,-2,0
1511885025697629,-1,2,2,-2,-1,2,-1,-4
1511885025712664,-1,-1,0,-1,0,-1,0,-1
1511885025712664,1,1,-4,-10,-8,-4,-1,-3
1511885025718683,0,-1,-3,10,15,2,1,-4
1511885025718683,-3,1,-3,-7,-6,-1,-2,4
1511885025735753,-1,0,3,-2,0,-2,-1,0
1511885025735753,2,-1,-4,-2,-4,-1,-3,-1
1511885025736829,1,-1,-3,-3,-5,-1,2,2
1511885025736829,0,-1,0,-1,1,-1,3,-1
1511885025748763,2,0,-2,3,3,-3,-1,0
1511885025748763,-4,-1,0,-3,-4,0,-3,0
1511885025757788,-1,-1,0,-1,-5,-1,-1,0
1511885025757788,-1,0,-4,2,-1,-1,1,1
1511885025772896,-3,-1,1,-2,0,-3,-2,-1
1511885025772896,0,0,4,0,2,0,0,-2
1511885025778956,2,2,-4,-2,-6,-2,-1,2
1511885025778956,-4,-1,2,7,5,-2,-1,-2
1511885025796009,-2,-3,-3,0,-4,2,0,1
1511885025796009,0,-3,2,-2,1,0,2,0
1511885025796924,-4,2,3,-3,-1,0,-2,-1
1511885025796924,-2,-3,-7,-4,0,1,0,1
1511885025809134,1,1,-1,1,-1,1,1,0
1511885025809134,1,2,-2,-1,2,1,0,0
1511885025818202,-1,-1,2,-4,-2,-2,-2,-2
1511885025818202,3,2,1,1,-5,-3,-2,0
1511885025832382,-2,-3,-1,1,-4,1,2,0
1511885025832382,4,-5,-2,-1,1,-2,-2,1
1511885025839404,-3,-2,-4,3,3,1,2,-2
1511885025839404,1,-1,0,-1,4,0,-1,1
1511885025855554,-1,1,-2,-2,-1,0,-2,-2
1511885025855554,-4,1,1,3,2,-5,2,0
1511885025857448,-1,0,-2,-2,-7,1,-2,1
1511885025857448,-1,-2,1,-3,-4,2,0,-2
1511885025869593,2,3,-2,0,1,-1,0,-1
1511885025869593,-2,-1,-4,2,1,1,-1,-3
1511885025878504,2,1,-2,-2,-2,-6,-3,1
1511885025878504,0,-3,-5,-4,-1,2,-1,-2
1511885025892723,-1,-1,1,0,0,1,-3,-1
1511885025892723,-1,5,0,0,-4,1,0,0
1511885025899651,-2,-2,-1,6,1,-1,-2,1
1511885025899651,-2,0,-4,3,3,0,0,-2
1511885025915699,-2,-2,3,1,-1,0,0,-1
1511885025915699,0,-3,-1,2,-7,1,0,-1
1511885025916703,-2,1,1,-9,0,1,-1,-1
1511885025916703,-2,0,2,4,0,1,0,-1
1511885025929778,-1,-1,-2,2,1,2,-1,-2
1511885025929778,-1,-2,-2,-4,-4,1,-2,1
1511885025937755,-1,1,1,0,0,2,0,-5
1511885025937755,2,1,-1,-2,-9,-2,0,-3
1511885025951936,0,1,-6,3,5,1,-1,0
1511885025951936,-1,-3,1,-4,-1,-1,-1,-2
1511885025958955,1,0,-3,3,0,1,2,1
1511885025958955,0,0,4,-5,3,-1,-2,-2
1511885025976067,-2,1,1,-2,-1,0,1,-2
1511885025976067,-2,-1,-5,3,-3,1,-1,-1
1511885025977001,0,0,-1,-3,-2,0,-3,1
1511885025977001,0,-2,-2,1,-3,-1,1,-2
1511885025989220,-1,-2,-2,-3,0,-2,-1,1
1511885025989220,1,-1,1,1,3,-3,1,0
1511885025998056,2,-4,1,2,-2,-4,2,-1
1511885025998056,-2,1,-1,-1,-3,-1,1,2
1511885026012133,3,-3,-2,-1,-1,0,-4,0
1511885026012133,0,1,-2,-4,-1,2,-3,0
1511885026019155,0,-2,1,1,-4,3,0,0
1511885026019155,2,-1,-3,-1,0,-1,1,-2
1511885026035157,-4,-1,3,1,-2,-2,0,-1
1511885026035157,-3,2,0,-3,-3,-3,1,-3
1511885026037160,0,3,0,4,-4,1,-1,-1
1511885026037160,2,-3,5,-2,-3,0,-1,4
1511885026049209,1,0,0,-4,-3,-2,-1,-2
1511885026049209,-1,-3,2,3,1,-3,2,-2
1511885026058216,-4,2,-5,-7,3,0,-1,0
1511885026058216,-1,1,2,-3,0,2,-1,-2
1511885026072358,-1,-2,-6,1,0,-2,0,1
1511885026072358,-2,2,1,-4,1,-2,-2,-1
1511885026079272,0,-5,2,-4,-4,-3,0,-1
1511885026079272,0,-1,0,2,0,-2,-1,1
1511885026095467,0,1,1,-2,-3,1,-1,0
1511885026095467,-3,0,-4,3,1,2,-1,0
1511885026097445,-1,0,-2,-3,0,-1,0,-1
1511885026097445,-3,1,-1,-1,3,0,-1,-2
1511885026109596,1,3,0,7,5,1,0,-1
1511885026109596,1,0,0,-1,0,1,-4,1
1511885026118606,0,-2,1,-3,-1,2,-1,0
1511885026118606,-1,-3,0,-1,0,-2,-3,-1
1511885026132678,-1,2,-1,10,6,1,-1,-3
1511885026132678,1,0,1,-5,-1,0,0,-1
1511885026138905,-1,-2,-3,2,0,0,-2,-1
1511885026138905,-3,-1,-1,0,2,2,2,-4
1511885026155877,-1,-2,-1,-6,-1,1,1,-1
1511885026155877,0,-3,-2,1,-2,3,1,-1
1511885026156881,-2,0,-3,2,-1,-5,-2,-1
1511885026156881,-1,-1,3,0,-3,2,-3,1
1511885026168912,-3,-2,0,-3,-1,0,-3,-2
1511885026168912,0,0,-2,-2,-3,-2,0,1
1511885026177936,-1,3,-2,2,3,1,0,-1
1511885026177936,2,-3,-3,1,-2,-4,-1,2
1511885026191974,0,-3,0,-2,2,3,-3,-1
1511885026191974,0,-1,-2,-1,-2,-1,0,0
1511885026198992,-1,-1,1,2,3,1,-1,-2
1511885026198992,-2,2,-1,-5,-1,-1,0,-2
1511885026215035,0,-1,1,0,2,-1,-2,3
1511885026215035,-2,-2,-2,-1,-6,-2,-1,-1
1511885026217040,-2,-2,1,1,1,3,0,-1
1511885026217040,0,-1,-3,0,-4,1,0,-2
1511885026229073,1,-4,0,-6,-2,0,0,-2
1511885026229073,1,-3,1,2,6,0,0,0
1511885026245118,1,0,0,-2,-3,1,-3,-2
1511885026245118,0,-2,-3,5,2,-3,-4,0
1511885026252153,-2,-1,2,-4,-7,-3,3,1
1511885026252153,-1,0,-4,-1,-3,0,-1,0
1511885026259293,-1,-7,-2,1,-1,0,1,1
1511885026259293,-1,1,1,0,-2,0,1,-2
1511885026275210,2,-1,-1,4,-3,-2,-1,1
1511885026275210,-1,-2,0,-4,0,1,1,0
1511885026277216,0,0,-1,-3,-2,-1,-2,1
1511885026277216,-3,-1,-5,3,-1,-1,-1,-1
1511885026289376,-2,-1,-4,-1,-2,0,0,-2
1511885026289376,-2,2,2,0,1,0,1,-1
1511885026298271,0,1,0,-1,-4,1,-2,-3
1511885026298271,1,-3,0,0,1,-2,0,-1
1511885026312339,0,1,-1,-2,-4,0,-1,-3
1511885026312339,0,1,0,-1,-5,-3,-2,0
1511885026319453,-1,0,-1,1,2,-2,0,-2
1511885026319453,-2,0,-2,-5,-2,1,-1,1
1511885026335373,2,-2,-6,-4,-3,-5,-1,0
1511885026335373,-4,1,1,3,0,1,0,-1
1511885026337379,2,0,2,-2,-2,-2,-4,0
1511885026337379,-4,1,5,5,1,0,0,-2
1511885026349408,-4,1,0,-3,3,-1,0,0
1511885026349408,0,-3,3,2,-1,-3,-4,-1
1511885026358504,1,-2,-4,-3,0,-1,-1,0
1511885026358504,-3,-2,-1,-3,-1,-1,-2,2
1511885026372656,0,1,-2,2,-1,2,-2,0
1511885026372656,0,0,-4,-1,-1,-2,3,-4
1511885026379561,-1,-1,2,-2,0,0,0,0
1511885026379561,2,1,1,0,2,1,0,0
1511885026394695,2,-2,4,3,-1,0,0,0
1511885026394695,1,-1,1,-3,4,-1,2,0
1511885026401623,-1,-2,-1,4,-8,0,-1,-1
1511885026401623,0,-1,-8,-1,2,-2,-1,-2
1511885026408849,-1,2,3,-10,0,0,0,0
1511885026408849,-1,-2,0,9,0,3,0,1
1511885026417869,-1,-1,-1,1,2,-2,0,-3
1511885026417869,1,1,0,5,4,-3,0,0
1511885026431876,-2,-2,-3,-7,-4,-1,-1,2
1511885026431876,0,0,2,-2,1,0,-3,-4
1511885026438930,0,-3,0,-8,-4,-1,3,4
1511885026438930,1,-1,-1,-3,-3,-2,1,0
1511885026454972,-2,2,4,4,0,-1,-2,0
1511885026454972,-1,1,-2,-4,1,-1,0,1
1511885026461954,2,0,-2,4,-2,-1,0,-1
1511885026461954,-3,-1,-3,-11,-4,1,1,-3
1511885026468977,2,-2,-4,15,2,-2,-4,1
1511885026468977,2,-6,2,4,-3,-1,-2,2
1511885026477997,0,-1,-5,-3,2,-1,1,0
1511885026477997,-6,-6,-4,-13,0,1,-3,0
1511885026492057,6,5,3,13,2,-1,1,-3
1511885026492057,0,-2,-3,-39,-1,3,-1,1
1511885026499055,-8,-1,2,21,-3,-2,-2,-2
1511885026499055,1,0,5,30,-3,4,-3,-1
1511885026515094,-1,0,2,-7,0,-2,0,-2
1511885026515094,-3,3,-1,-2,2,-2,-1,-2
1511885026522116,5,0,0,14,4,-1,1,2
1511885026522116,-3,0,4,-10,-2,0,-2,0
1511885026538280,0,-1,-1,14,-4,-4,0,1
1511885026538280,2,0,4,-5,-1,-3,0,1
1511885026540184,-3,-1,4,2,-1,-1,1,-1
1511885026540184,-1,0,-6,-4,0,0,-2,0
1511885026552319,0,-6,3,-7,1,4,2,0
1511885026552319,-7,-5,-7,6,2,1,-2,-4
1511885026559214,-2,2,3,-8,-1,-1,-2,-1
1511885026559214,0,1,-4,14,-1,3,-4,-1
1511885026575315,-3,-1,2,-24,0,2,-3,-4
1511885026575315,-1,0,0,9,2,-3,-2,-2
1511885026581486,-2,-6,10,27,-4,2,-3,0
1511885026581486,3,0,-1,-6,-2,0,-1,-1
1511885026597526,-5,-8,-5,-11,0,2,-1,-2
1511885026597526,4,5,-3,15,-2,-2,1,2
1511885026599531,2,3,0,-27,0,4,0,1
1511885026599531,-1,0,-4,-7,0,-3,0,3
1511885026611743,-1,-2,5,13,-1,3,-2,1
1511885026611743,5,1,-5,2,0,2,2,2
1511885026620587,-7,1,-1,-18,0,-1,-2,-1
1511885026620587,0,1,0,-16,-3,-3,1,1
1511885026634628,-3,-4,-5,45,-1,-5,-1,-1
1511885026634628,-2,6,6,-16,1,3,-3,-7
1511885026641672,3,-4,-4,10,1,0,-1,-1
1511885026641672,2,0,-1,-22,-1,4,-1,-2
1511885026657687,-4,-2,4,-1,-1,-2,-2,-1
1511885026657687,0,-6,2,7,-5,1,0,-1
1511885026659693,-1,-1,-8,-19,2,2,0,0
1511885026659693,1,1,5,20,3,-2,2,-2
1511885026671876,2,3,-6,-6,-3,1,-1,0
1511885026671876,0,0,4,3,0,-1,-2,1
1511885026680897,1,0,-1,6,0,3,0,0
1511885026680897,-5,-13,-4,1,-2,-1,0,0
1511885026695039,-4,3,-1,-9,2,0,2,-1
1511885026695039,1,-3,-2,-11,0,-4,-1,0
1511885026702097,-2,1,2,19,-5,-5,-2,-2
1511885026702097,1,0,-1,-7,-5,-3,-1,-3
1511885026718141,-2,0,-5,6,17,8,1,-3
1511885026718141,1,-1,1,9,-5,-4,-1,0
1511885026719144,-3,-4,-7,-7,1,4,-3,0
1511885026719144,1,3,3,3,-4,-4,-2,0
1511885026731423,-2,-1,-3,-14,-7,-2,-2,1
1511885026731423,-1,1,-1,5,5,3,0,1
1511885026740361,0,0,-3,-5,-3,-5,1,1
1511885026740361,-1,4,0,7,0,1,-2,-3
1511885026754382,2,-2,1,-9,-4,2,0,-3
1511885026754382,-3,0,-3,4,-3,3,2,-3
1511885026761394,1,-1,-3,-6,-2,-2,3,-1
1511885026761394,0,1,8,4,3,-2,-2,1
1511885026778515,-3,-3,-8,-1,-1,-2,-4,2
1511885026778515,-4,-6,3,-1,0,-2,-1,-1
1511885026779439,-2,3,2,-3,3,0,-1,-2
1511885026779439,-1,1,0,15,2,2,0,2
1511885026791471,2,2,0,-41,-6,-7,-2,-2
1511885026791471,-2,1,-2,23,-2,3,-4,0
1511885026800495,-6,-7,-4,-8,1,-1,-1,-3
1511885026800495,3,-1,-2,1,-2,2,-1,-1
1511885026814536,-1,3,3,5,3,1,0,0
1511885026814536,-3,-1,-3,-6,-2,0,0,-1
1511885026821707,0,-1,2,-4,-3,1,-2,-3
1511885026821707,-4,5,-6,-1,2,-2,3,0
1511885026845837,-2,-2,11,7,-2,0,-3,0
1511885026845837,-3,-4,-13,-5,0,-3,0,-2
1511885026852770,1,-1,3,7,-2,0,-1,0
1511885026852770,2,-1,2,-4,1,-2,-4,-2
1511885026852770,0,0,4,3,-4,3,0,-4
1511885026852770,0,3,-6,-1,0,-1,-3,-1
1511885026860790,1,-2,-2,-2,-3,-2,2,5
1511885026860790,-2,0,-3,-3,-1,3,0,-4
1511885026875009,-1,2,0,0,-1,-3,1,3
1511885026875009,3,-5,2,0,-1,2,-1,-4
1511885026889129,7,3,-5,-1,2,0,-1,-1
1511885026889129,-13,0,1,-2,-1,0,-5,-1
1511885026898037,1,0,0,1,-2,-2,-1,-1
1511885026898037,0,-2,3,-1,0,-3,4,0
1511885026900045,2,6,5,-1,0,-2,-2,-2
1511885026900045,3,-3,-4,-1,1,1,-3,-1
1511885026912074,-4,-2,-1,1,1,-2,-2,-2
1511885026912074,2,5,5,0,-1,2,-1,1
1511885026921099,-10,-3,-5,-2,1,-1,1,-2
1511885026921099,8,-5,-2,2,-1,0,1,2
1511885026935274,-4,1,-2,-1,-1,-2,-10,-2
1511885026935274,-2,2,-2,-4,2,-2,0,2
1511885026941236,-1,4,4,1,2,5,-1,-3
1511885026941236,-1,-2,-3,-3,-3,3,1,-1
1511885026958278,4,3,0,2,-1,2,-3,-1
1511885026958278,-5,-1,-8,-1,-1,-2,-3,-2
1511885026959333,-1,1,1,-3,-1,-2,-4,-2
1511885026959333,-2,-5,-5,-1,0,0,0,-2
1511885026971437,3,-3,0,3,1,5,-9,-2
1511885026971437,-3,-9,1,-1,-5,0,-9,-3
1511885026980357,-2,0,-1,1,2,-2,0,-1
1511885026980357,3,3,-5,-5,1,0,5,1
1511885026994505,-3,-4,-4,9,3,-1,-4,-2
1511885026994505,1,2,-3,-3,0,-2,3,2
1511885027001523,-1,-3,-3,-4,-5,3,-4,0
1511885027001523,1,-1,4,1,0,-2,-5,-1
1511885027017677,1,-1,-6,-2,-2,2,5,-1
1511885027017677,0,-1,1,4,-4,1,-2,-2
1511885027019680,-2,-6,-1,0,0,-1,21,-2
1511885027019680,-7,2,-2,-4,0,1,-5,-5
1511885027031714,3,-1,5,1,1,-2,10,1
1511885027031714,0,-3,2,-5,1,-1,-59,3
1511885027040734,7,-2,3,-3,-1,-9,-17,5
1511885027040734,-3,-2,-6,0,1,3,-4,-1
1511885027054961,0,4,3,0,-3,-2,7,3
1511885027054961,6,-5,-2,-4,-2,-2,-10,1
1511885027061884,-1,6,6,4,2,0,-8,0
1511885027061884,3,1,5,4,0,-4,-1,2
1511885027078037,-5,-5,-5,-3,3,0,-6,-2
1511885027078037,4,-1,1,0,2,-2,27,-1
1511885027079966,-5,1,3,4,-6,1,0,-3
1511885027079966,1,-3,-3,-3,-6,-1,9,-1
1511885027092186,3,1,-1,-6,-7,0,0,0
1511885027092186,-3,-1,0,15,8,5,8,-5
1511885027101021,1,1,-12,-17,-7,-1,1,-4
1511885027101021,-4,1,12,19,3,-1,-13,-1
1511885027115062,1,-4,-5,-8,-2,-4,2,-2
1511885027115062,-4,-2,2,-5,-5,4,21,2
1511885027122077,3,1,-1,-1,3,0,-16,6
1511885027122077,1,-5,1,-6,-10,-2,-1,2
1511885027138162,0,5,-1,-1,-2,1,13,-3
1511885027138162,-2,0,2,-9,-4,2,6,0
1511885027140125,-2,-5,-3,10,-2,-2,2,-6
1511885027140125,-1,-3,-2,-12,6,0,6,-4
1511885027152157,-3,0,2,23,3,4,-22,-1
1511885027152157,-3,-1,-3,-8,-1,-6,3,-3
1511885027160323,1,-3,2,4,1,-2,-13,0
1511885027160323,0,-1,-6,0,1,0,-6,4
1511885027175362,0,1,-4,-9,0,-5,-3,1
1511885027175362,0,7,12,-5,1,1,5,4
1511885027181402,1,0,7,0,-4,-1,10,-1
1511885027181402,-7,-2,-15,-2,-4,6,31,-3
1511885027198424,0,-2,-2,1,-5,-2,-6,2
1511885027198424,3,3,3,0,4,-3,-5,-1
1511885027199426,0,-3,-1,8,14,3,10,0
1511885027199426,2,-1,2,-5,-4,-8,-6,-1
1511885027211651,-3,-2,2,-5,-4,1,4,-2
1511885027211651,1,2,-4,5,-1,-4,3,1
1511885027220483,-1,-4,-2,-4,-1,2,-13,-1
1511885027220483,-2,0,-1,-1,-1,1,0,-2
1511885027234648,2,-1,-2,-4,-1,-1,0,-2
1511885027234648,1,-1,-1,-6,0,-3,-24,-2
1511885027241631,-2,0,-5,4,-3,-3,-1,0
1511885027241631,0,-2,2,0,2,-2,-8,0
1511885027257714,-1,1,2,2,0,3,7,-2
1511885027257714,-2,-1,-4,4,1,0,6,-2
1511885027259719,1,-3,-2,-8,-1,0,3,-2
1511885027259719,-1,-1,4,-2,-3,1,-3,-3
1511885027271749,0,-1,-3,6,4,1,-11,0
1511885027271749,-1,-2,-3,1,-1,1,3,-1
1511885027280774,1,-3,-3,0,-6,0,3,1
1511885027280774,1,2,0,7,4,-2,-2,0
1511885027294937,2,-3,1,-9,3,0,3,0
1511885027294937,-3,-2,-1,3,-1,0,2,-2
1511885027301878,0,-2,-2,-4,-6,-4,4,0
1511885027301878,-5,1,4,5,2,0,-3,-2
1511885027317912,0,-3,-3,-4,-2,-3,0,0
1511885027317912,-1,-2,-5,-2,-4,1,-2,-1
1511885027323931,-1,0,1,0,8,2,-4,-2
1511885027323931,1,-2,-5,0,0,1,-3,-3
1511885027331912,-3,1,-6,1,-2,-1,0,-2
1511885027331912,-1,-2,-1,-1,-5,2,5,1
1511885027340940,-4,1,1,-1,5,5,1,0
1511885027340940,0,-3,-1,3,-1,-3,-4,-1
1511885027355013,-1,-2,0,-2,-6,0,-2,0
1511885027355013,0,0,-1,4,4,-1,3,-2
1511885027362033,0,-2,1,-1,1,-1,0,-1
1511885027362033,0,-1,-4,-1,-1,3,-2,-1
1511885027377155,-1,-1,0,1,1,-3,-4,-1
1511885027377155,1,-3,0,-1,-2,-1,-4,0
1511885027384073,-1,0,1,-6,-2,-5,0,2
1511885027384073,3,-3,4,4,4,1,2,2
1511885027391067,0,3,0,-4,0,-2,5,1
1511885027391067,-1,0,-4,0,-4,-2,2,1
1511885027401099,-4,1,-5,2,1,0,-3,0
1511885027401099,2,1,-5,-6,-3,-3,-5,-1
1511885027415259,1,-3,-4,5,5,5,-2,-1
1511885027415259,-3,-5,-1,2,5,1,0,-4
1511885027421376,0,-1,0,4,-2,4,-3,-3
1511885027421376,-4,1,1,-5,-6,-1,0,0
1511885027437443,0,-1,-4,-2,-1,1,2,-1
1511885027437443,-2,-1,1,2,2,-1,-6,-3
1511885027444444,-1,-1,-2,2,-4,-1,2,-1
1511885027444444,2,0,1,0,2,1,-2,-1
1511885027460642,-2,0,-2,-1,-8,-3,1,0
1511885027460642,-3,-2,-4,1,-5,-1,-3,-4
1511885027462517,1,-1,-3,2,6,3,2,1
1511885027462517,1,1,-2,-4,1,-2,-2,1
1511885027474531,-2,1,0,8,0,1,-3,-2
1511885027474531,-1,2,0,-7,-5,1,-2,1
1511885027481539,3,5,-3,-2,-3,-4,-1,-2
1511885027481539,-3,0,-3,0,-3,2,1,2
1511885027497584,3,-1,1,-4,0,-3,-1,1
1511885027497584,-1,1,0,-1,-1,0,-1,-2
1511885027504603,2,-1,0,-5,-8,-3,0,1
1511885027504603,0,-1,8,-2,-2,-4,-2,-3
1511885027520646,-1,-2,-1,-1,1,-1,1,-1
1511885027520646,-2,-3,4,-3,0,-1,-5,1
1511885027522657,0,0,-3,4,7,0,-1,-2
1511885027522657,1,0,0,0,-4,-1,1,0
1511885027534685,1,-2,-1,2,-1,-1,0,-2
1511885027534685,2,1,1,1,7,0,0,-2
1511885027542817,-1,1,-1,0,-2,0,-3,0
1511885027542817,-4,-4,-3,0,5,1,-1,-3
1511885027556951,-2,-1,-1,-4,0,1,-3,-3
1511885027556951,1,1,-6,1,-4,0,1,-1
1511885027563963,0,0,0,0,-4,-4,0,3
1511885027563963,-5,1,-1,2,1,1,-3,-3
1511885027580883,-5,-1,0,1,-4,-1,-2,0
1511885027580883,0,1,3,4,7,2,0,3
1511885027581885,-5,-2,-7,-2,0,1,0,-2
1511885027581885,1,-1,4,7,-7,-3,2,0
1511885027594103,0,0,2,-5,1,-2,-3,3
1511885027594103,0,-1,-1,-3,-2,-3,0,0
1511885027602966,2,0,1,-1,-2,2,-1,1
1511885027602966,-3,1,0,-1,5,3,0,0
1511885027616984,-1,-1,5,1,2,1,-1,-1
1511885027616984,-1,0,0,1,-6,-5,0,-1
1511885027624130,-3,0,-1,-4,-1,1,-2,-1
1511885027624130,2,1,-2,-4,-3,-1,-4,3
1511885027640161,-1,-1,-2,-2,2,0,1,0
1511885027640161,2,0,-3,11,-3,0,1,2
1511885027642046,-1,2,0,-3,-2,-5,-3,-6
1511885027642046,-1,-6,-3,-2,0,1,-1,-2
1511885027654201,-1,1,-1,-4,1,1,-1,0
1511885027654201,-1,-2,0,-3,1,2,-2,-1
1511885027663103,1,1,-2,6,6,2,2,2
1511885027663103,-3,-2,-3,0,-2,4,0,-3
1511885027677139,-4,1,-3,-2,-4,-1,0,-2
1511885027677139,1,-1,0,5,7,-4,-1,-1
1511885027684161,-2,-1,1,-6,-4,3,-2,2
1511885027684161,0,0,-1,-7,-1,-5,-1,3
1511885027700243,1,-1,2,6,1,0,1,-2
1511885027700243,2,-1,-5,-1,-5,-1,0,-2
1511885027702207,-3,0,-1,-1,4,1,0,-5
1511885027702207,0,-2,-4,-3,0,-4,-1,0
1511885027714365,1,-3,-4,-1,2,-1,2,1
1511885027714365,-1,0,3,9,-3,-3,2,0
1511885027723368,1,-4,-1,-3,-3,0,-2,-1
1511885027723368,-1,1,2,1,-1,2,1,-1
1511885027737418,-1,-1,-1,-3,0,1,-3,-2
1511885027737418,-2,0,-3,-7,-1,-2,-2,0
1511885027744441,2,-5,-3,4,-1,-5,1,0
1511885027744441,2,1,2,0,0,-2,-3,-1
1511885027760483,-1,0,4,3,2,0,1,-2
1511885027760483,0,4,-2,6,1,5,1,2
1511885027762447,-2,0,2,-5,-3,0,-1,0
1511885027762447,-1,-1,0,9,-1,0,-2,2
1511885027774485,3,5,2,1,-1,0,-2,-2
1511885027774485,-2,1,0,-12,1,-4,-1,-3
1511885027783506,-2,-1,-1,1,-1,2,1,0
1511885027783506,0,0,-6,9,1,1,-2,-2
1511885027797565,-2,3,-3,17,-3,0,1,0
1511885027797565,1,1,0,-3,-1,1,0,0
1511885027804598,5,-3,-4,-5,-2,1,-2,-1
1511885027804598,-2,2,5,3,-1,-3,2,-1
1511885027820732,-2,-5,-5,-10,2,2,-2,0
1511885027820732,0,-2,1,10,-4,-4,1,0
1511885027821692,-3,-2,-2,-5,1,-3,0,0
1511885027821692,0,-2,1,8,2,0,0,-2
1511885027833726,0,-3,-4,-13,-3,0,-2,-2
1511885027833726,0,-1,-1,8,-3,-2,1,0
1511885027842842,-4,-1,0,-13,-3,2,-3,-1
1511885027842842,1,0,-2,6,9,1,-2,0
1511885027865811,-1,2,-1,3,-3,0,0,-1
1511885027865811,2,-2,-5,-13,1,3,-3,-2
1511885027866814,0,-1,0,2,0,-1,1,0
1511885027866814,0,-3,0,-2,-8,0,0,-1
1511885027880852,-3,-1,3,12,4,0,1,-3
1511885027880852,-3,1,1,-12,0,1,-3,0
1511885027881850,-1,1,3,2,0,-1,-2,-1
1511885027881850,0,-2,-4,-10,-4,-1,1,-1
1511885027894888,-1,-2,2,-4,1,-3,0,0
1511885027894888,0,0,-2,0,-3,-1,0,-1
1511885027901959,-3,0,4,10,-2,1,0,-2
1511885027901959,-5,-1,-4,-10,-2,1,1,0
1511885027916976,2,-1,3,7,-3,-5,-1,1
1511885027916976,-2,2,2,4,-3,0,-1,-1
1511885027923994,0,1,-1,-4,-1,-3,-2,-1
1511885027923994,-1,-1,0,-7,0,-4,-2,-3
1511885027940077,2,1,1,-8,-2,-1,-1,1
1511885027940077,-3,-3,2,4,1,0,0,-1
1511885027942040,3,-1,-8,3,-6,-5,2,1
1511885027942040,0,-1,-1,-14,-3,0,-4,-3
1511885027954074,0,1,3,6,2,-4,-3,-2
1511885027954074,-1,-1,-2,-8,-6,1,0,0
1511885027963095,-2,-4,1,2,3,-1,-4,-1
1511885027963095,4,-1,1,-4,-2,1,0,0
1511885027977302,-1,1,-2,-4,-4,-1,0,-2
1511885027977302,1,-3,-4,7,7,-3,0,3
1511885027984151,-1,2,4,2,-2,1,0,-3
1511885027984151,0,1,-4,2,-3,1,0,-1
1511885028000221,4,-6,-3,-3,-2,-2,2,0
1511885028000221,-1,-4,-2,-5,2,4,-2,-2
1511885028002200,1,0,1,11,1,0,-3,-2
1511885028002200,-3,1,-4,0,-4,-4,2,4
1511885028014249,-2,-1,-3,5,8,2,-3,0
1511885028014249,0,0,-1,-1,-9,-2,4,0
1511885028023282,2,1,-2,-1,1,0,-3,-3
1511885028023282,-1,-3,0,3,4,1,-2,-2
1511885028037323,-2,-1,-3,-3,-1,-1,0,1
1511885028037323,-3,0,2,1,-1,-1,-2,0
1511885028044338,-3,-1,2,-3,-5,-1,0,0
1511885028044338,-2,1,-2,0,2,-3,-2,-2
1511885028060381,-4,-1,-1,-4,1,5,-2,-1
1511885028060381,-1,1,-1,-13,1,1,-1,-2
1511885028062386,0,-3,-2,10,2,0,-2,-2
1511885028062386,-2,4,-3,-13,2,2,0,-3
1511885028074391,-1,-1,1,7,2,-2,-2,0
1511885028074391,1,-2,-3,-2,-3,-1,0,0
1511885028083439,-1,0,-2,-3,-1,3,1,4
1511885028083439,-2,-4,1,1,-5,-1,-2,-1
1511885028097453,0,0,-1,4,0,-1,2,-2
1511885028097453,0,0,0,2,-1,2,-6,0
1511885028104495,3,-3,-1,-3,1,-3,2,-1
1511885028104495,-1,0,-5,-2,1,1,-3,1
1511885028120540,0,-4,4,-9,-7,1,0,0
1511885028120540,-3,0,1,14,8,1,-2,-5
1511885028122543,-3,3,-3,-5,-3,-2,1,-3
1511885028122543,-3,-1,1,-3,1,0,-1,-3
1511885028134557,-2,1,-4,5,0,4,-2,-1
1511885028134557,0,-4,-6,-10,1,-6,0,1
1511885028143576,-2,-1,0,7,1,2,0,-1
1511885028143576,0,0,3,4,-1,-4,1,-2
1511885028157612,-1,1,2,-7,-2,-1,-4,-2
1511885028157612,0,1,1,-5,-2,-3,-1,-1
1511885028163628,0,0,-1,-9,-2,1,-1,-2
1511885028163628,0,-1,-2,10,-4,-4,-1,1
1511885028180693,-1,-1,-1,-1,-3,-2,1,2
1511885028180693,1,-5,0,11,0,1,0,0
1511885028181694,-3,-1,3,-7,1,-4,0,0
1511885028181694,0,-2,1,-7,-1,1,0,-1
1511885028193736,-2,-1,-1,16,-2,-2,-4,-3
1511885028193736,2,2,3,20,-8,-5,0,6
1511885028202732,-1,-5,-1,-3,3,4,-1,-1
1511885028202732,4,-1,-2,-4,-1,-1,-1,0
1511885028216793,-2,-3,-3,-10,2,-2,-1,0
1511885028216793,0,-3,3,-6,4,-2,1,-3
1511885028223815,0,3,-4,5,-4,1,-1,-1
1511885028223815,0,2,0,-5,2,-2,-2,-2
1511885028240845,-3,-3,1,-35,1,3,-1,-3
1511885028240845,-3,2,2,41,2,-3,-1,-5
1511885028241836,0,1,0,-18,-3,-4,0,3
1511885028241836,-3,-2,-4,2,1,2,2,0
1511885028253895,1,4,0,-5,-4,0,1,0
1511885028253895,0,-1,-2,-11,-1,1,-2,0
1511885028262892,-3,-2,-2,-1,-1,-3,-3,-2
1511885028262892,-1,-2,1,13,-1,0,1,-3
1511885028276929,3,1,-3,14,-3,-1,-2,1
1511885028276929,1,2,3,-18,-2,3,0,-1
1511885028283949,-1,-1,-1,9,-2,0,-1,-1
1511885028283949,-1,2,3,-3,-1,0,0,-1
1511885028299991,-3,-2,0,5,1,-1,-2,-2
1511885028299991,2,-2,-1,-12,-2,-1,0,-2
1511885028307009,-1,0,4,-1,2,-1,-1,1
1511885028307009,0,1,-3,14,-2,1,-1,0
1511885028314028,-1,1,-2,1,4,-1,1,-3
1511885028314028,2,-1,-1,-5,0,2,-1,-1
1511885028323052,0,0,-3,-2,-2,-4,-1,-1
1511885028323052,5,-1,0,-5,-2,0,-1,0
1511885028337091,-2,-1,0,5,-4,-2,-1,0
1511885028337091,-5,-1,-2,6,3,-3,-1,-3
1511885028344108,1,0,-5,-12,3,2,1,-2
1511885028344108,1,0,-1,6,0,-1,0,0
1511885028360151,-2,0,-3,-2,1,1,-1,1
1511885028360151,0,-3,0,-7,-5,-1,-1,-1
1511885028366167,-1,2,1,-13,-4,2,1,0
1511885028366167,-3,-3,2,14,0,1,0,2
1511885028383216,-2,-2,-2,-4,4,0,1,1
1511885028383216,0,1,0,-5,-1,0,1,0
1511885028384216,-1,-2,1,2,3,-2,-4,-4
1511885028384216,0,2,-2,0,-2,-1,0,0
1511885028397250,2,-4,-1,3,1,-1,2,-2
1511885028397250,0,0,0,2,-2,-2,-2,-1
1511885028404272,-2,-1,-6,30,0,3,-1,-1
1511885028404272,0,0,2,-41,-2,-2,-3,-2
1511885028419311,0,0,1,12,-1,-3,-1,1
1511885028419311,0,-1,-2,-15,-1,-1,-5,-1
1511885028426330,1,0,4,26,-2,-1,2,1
1511885028426330,-2,-2,-4,-19,-1,0,1,-1
1511885028443483,1,0,3,28,-2,-3,-1,-2
1511885028443483,-3,0,-4,-22,-2,-1,0,0
1511885028444378,0,-1,5,15,-1,-2,-1,-1
1511885028444378,-3,0,-4,-22,2,3,-2,-2
1511885028457475,4,-4,2,-9,-2,-2,-2,-1
1511885028457475,0,0,0,20,0,-1,0,1
1511885028464442,-1,2,-1,-14,2,-1,0,-1
1511885028464442,-4,-5,1,7,1,0,-1,-4
1511885028479469,0,1,-3,-13,-1,1,2,-2
1511885028479469,-1,3,2,10,0,3,-1,-1
1511885028486600,0,-2,1,-12,-4,-1,2,3
1511885028486600,2,2,3,6,-2,-2,-1,1
1511885028503536,-4,3,-9,0,-3,1,-3,-1
1511885028503536,3,0,0,6,1,-1,3,0
1511885028504540,1,-1,0,-10,-2,0,-2,1
1511885028504540,-2,1,-2,9,-1,0,-1,0
1511885028517612,1,-2,3,-5,-2,-2,0,-1
1511885028517612,-1,-1,-1,-10,-4,2,-1,-1
1511885028524589,1,-1,-5,0,-3,-2,0,-1
1511885028524589,1,1,4,9,0,-2,0,1
1511885028539675,0,-1,0,1,-5,1,-4,-1
1511885028539675,-2,2,-1,-7,-2,-1,0,-2
1511885028546648,0,-1,1,-2,0,-1,-2,-1
1511885028546648,-1,-3,1,16,-3,2,2,0
1511885028562696,-2,-4,-7,-11,3,0,2,-1
1511885028562696,2,-3,-1,-1,-1,-1,-3,0
1511885028564695,-2,-2,-1,-5,-5,-5,-2,-5
1511885028564695,0,3,-2,6,2,-1,1,-1
1511885028577730,0,0,1,-2,2,0,-1,-1
1511885028577730,-1,-3,-2,1,1,-2,-2,-2
1511885028584750,-1,0,0,0,1,1,-1,1
1511885028584750,1,-3,-6,-2,-3,0,-1,0
1511885028599905,-1,2,2,2,3,-1,1,-2
1511885028599905,-2,0,-2,0,-2,-1,-1,-1
1511885028606932,-2,-1,0,-4,4,-1,-4,-3
1511885028606932,-2,-4,-6,1,-1,0,1,-3
1511885028622973,0,1,1,-1,-3,4,-1,1
1511885028622973,-3,-4,-3,0,0,1,-2,-1
1511885028624859,1,-4,1,-2,0,-2,1,-1
1511885028624859,-2,-1,-3,0,0,-1,0,2
1511885028637892,-2,0,-1,3,5,2,0,-2
1511885028637892,0,0,-7,-3,-1,-1,0,3
1511885028643942,-1,0,-2,-1,2,0,-1,-4
1511885028643942,-3,-1,4,-3,-2,1,1,-3
1511885028660135,1,-3,2,-2,0,-2,-3,1
1511885028660135,-1,2,5,-1,-4,-3,-1,0
1511885028667009,-2,0,-1,2,-3,1,1,-1
1511885028667009,-2,-1,-1,-1,-2,-1,-3,-1
1511885028683053,-1,0,-1,-2,-3,0,2,0
1511885028683053,-2,1,-7,-1,1,-1,1,-2
1511885028685015,2,-1,-1,-1,-2,-1,-3,0
1511885028685015,1,2,-1,4,4,0,-1,2
1511885028697047,0,-1,-1,-3,-2,-1,-1,-2
1511885028697047,0,-2,-2,-2,1,-1,0,0
1511885028706072,0,2,1,-1,-2,1,0,-2
1511885028706072,-2,0,-3,3,1,-2,0,0
1511885028720150,0,2,3,0,-2,0,0,0
1511885028720150,0,-2,-3,-2,0,0,-1,-2
1511885028727131,-2,2,1,2,4,3,0,0
1511885028727131,-1,-2,0,-1,-1,0,-2,0
1511885028743212,-1,-1,-1,-1,-2,0,0,-2
1511885028743212,3,0,0,2,-2,-1,0,0
1511885028744174,2,-2,-2,6,3,-2,-1,1
1511885028744174,5,2,2,-1,-3,2,-4,-3
1511885028757210,-3,-2,-6,-6,-2,-6,-2,2
1511885028757210,-1,0,2,4,4,2,3,-2
1511885028765230,-4,2,2,-9,-3,6,-2,-1
1511885028765230,-2,0,5,5,11,1,-1,-5
1511885028779572,2,-2,-11,0,-4,1,0,0
1511885028779572,-4,3,9,25,23,4,0,-2
1511885028786626,0,2,4,1,-5,-2,0,0
1511885028786626,-3,-3,0,-11,-3,-3,0,-1
1511885028803469,-1,-1,10,7,6,2,1,-2
1511885028803469,-2,-1,-1,-5,-6,-2,0,-2
1511885028804472,-1,-2,-15,2,-3,-2,1,-1
1511885028804472,-2,-1,3,-6,1,-2,0,-1
1511885028816507,1,0,-6,0,-4,1,-1,0
1511885028816507,0,-1,-6,-7,-8,-2,0,1
1511885028825536,1,-5,6,6,0,-2,-1,1
1511885028825536,4,-1,-4,0,-6,-3,-2,0
1511885028839590,0,1,7,-1,1,2,1,0
1511885028839590,-2,-3,-8,-3,1,0,-1,1
1511885028846632,0,0,-3,-5,0,-1,-3,-3
1511885028846632,-2,-2,1,0,-4,-3,-2,0
1511885028862630,-5,2,-1,12,10,2,-3,-4
1511885028862630,1,3,2,-8,-5,-1,-2,-1
1511885028864632,-1,-4,-5,1,-6,-4,0,3
1511885028864632,-2,-1,2,3,12,3,0,-2
1511885028876667,5,-1,3,-1,-6,-1,1,0
1511885028876667,0,1,-3,-5,-2,-1,0,-1
1511885028885688,0,-5,2,9,5,2,0,-1
1511885028885688,-1,1,-6,-12,-4,-3,0,1
1511885028899769,-1,-6,-1,-5,0,-5,-2,1
1511885028899769,3,4,-3,-11,-5,-4,0,0
1511885028906791,1,1,2,2,-3,0,-1,-2
1511885028906791,1,-2,3,10,-3,0,0,1
1511885028922955,-1,0,-2,-8,0,-2,-1,-1
1511885028922955,-2,-4,2,14,1,2,-6,-2
1511885028924844,-2,2,-1,-24,-4,-1,2,2
1511885028924844,-1,-4,-6,-2,0,3,0,2
1511885028936911,-4,-2,-5,6,1,3,0,0
1511885028936911,3,-5,8,28,-3,0,3,0
1511885028945896,-1,2,-4,2,2,-3,-3,-5
1511885028945896,-2,-1,0,21,-3,0,-3,-5
1511885028959930,-3,0,3,-5,-5,1,1,2
1511885028959930,-2,2,-1,-22,-1,-2,0,1
1511885028966990,-1,-1,2,53,0,-2,1,-1
1511885028966990,-2,-1,-6,-64,-2,0,0,0
1511885028983035,4,0,1,44,-3,-4,-2,1
1511885028983035,-1,-1,-4,-15,-2,2,2,0
1511885028984997,1,-3,-4,-20,-2,-2,-2,-1
1511885028984997,2,4,3,-43,0,0,-1,0
1511885028997054,-1,0,1,25,-4,-1,-2,0
1511885028997054,0,-2,12,4,-1,0,0,-4
1511885029006053,0,-4,-16,-14,0,-2,-3,-1
1511885029006053,0,-2,4,40,0,0,-1,-2
1511885029020135,-2,1,3,-27,1,-1,-1,-2
1511885029020135,-3,-4,-15,19,2,-1,-1,-3
1511885029027142,2,1,7,-16,-2,0,3,-1
1511885029027142,-5,-5,-1,21,-2,1,-1,-1
1511885029043192,1,0,-1,-15,0,-1,-1,-1
1511885029043192,-1,-1,2,8,-1,-1,-5,-2
1511885029044157,-4,-3,0,3,1,-2,-2,-2
1511885029044157,0,-1,-7,-16,-3,1,0,1
1511885029057188,3,-3,2,50,-1,-2,1,4
1511885029057188,-3,0,1,-63,-5,-3,-2,-5
1511885029065248,0,0,4,22,3,-3,1,-3
1511885029065248,2,1,0,-4,2,4,0,-3
1511885029080274,-3,-1,-1,5,3,-3,0,-2
1511885029080274,4,-2,1,-10,1,-1,-1,1
1511885029086316,-4,2,-1,7,1,2,-1,1
1511885029086316,-8,-3,-4,-15,-1,-4,-4,-2
1511885029102528,1,-2,3,3,-1,2,-1,-3
1511885029102528,4,-2,-12,4,-1,-1,0,2
1511885029104530,-4,-5,7,1,-2,3,-2,0
1511885029104530,5,5,3,25,1,-3,0,-1
1511885029116571,-1,0,-9,-33,-1,3,-5,-1
1511885029116571,-5,1,4,19,1,0,-2,-2
1511885029125591,-1,0,-4,-11,-2,4,4,-1
1511885029125591,0,-2,-3,7,3,-2,0,0
1511885029139747,-3,0,2,-10,-2,-2,0,-2
1511885029139747,2,1,2,5,-1,0,2,-2
1511885029146645,0,-1,-1,-9,-1,1,-3,0
1511885029146645,-1,-3,4,24,-3,-1,-1,0
1511885029162811,-5,0,-1,-22,3,0,-1,-3
1511885029162811,-2,-5,-1,1,2,1,-5,-1
1511885029164690,3,0,3,27,-3,-4,2,1
1511885029164690,-1,1,-1,-3,-2,-1,-4,-3
1511885029176888,0,0,0,-2,-3,-1,2,-3
1511885029176888,-3,-3,0,-6,0,-2,0,2
1511885029185746,3,-3,-4,-13,-2,0,0,-1
1511885029185746,-1,1,-1,6,1,-1,0,-1
1511885029199786,0,3,-7,-9,0,-1,-1,3
1511885029199786,-1,2,1,9,1,0,1,-1
1511885029206844,2,3,-1,-4,1,-2,-1,1
1511885029206844,-5,-5,-12,-4,-3,-4,1,1
1511885029222872,0,-1,3,-3,-3,-2,0,0
1511885029222872,-3,1,-4,9,-4,1,1,1
1511885029228903,0,3,3,-7,0,1,-1,-4
1511885029228903,-1,1,-1,5,-1,0,-1,1
1511885029245938,2,-2,-2,1,1,1,-1,-2
1511885029245938,-1,2,3,-10,-1,-2,-2,0
1511885029246910,-3,-2,-3,14,0,0,-2,-2
1511885029246910,0,-4,3,7,1,0,-8,-3
1511885029259988,1,-5,1,-6,-1,2,0,-1
1511885029259988,-1,-2,0,3,-2,-1,4,1
1511885029266970,-1,-1,-9,-10,1,4,-1,-1
1511885029266970,2,1,7,0,2,0,-2,0
1511885029282006,-1,1,-2,-1,1,-4,-2,-1
1511885029282006,1,-3,2,0,0,-3,-3,-2
1511885029289062,-2,-1,1,-3,2,3,1,3
1511885029289062,-1,-2,-6,-1,0,3,7,-1
1511885029297070,-2,4,-4,-8,-3,1,-1,1
1511885029297070,0,0,5,-1,-2,0,15,-1
1511885029306067,-3,-3,2,1,-3,1,-2,-3
1511885029306067,-1,4,3,-22,-4,-2,-1,0
1511885029320270,-1,-1,6,35,12,4,-2,-1
1511885029320270,-3,-5,-18,-3,1,-2,-7,-1
1511885029327148,-4,1,-2,-14,1,1,-2,-4
1511885029327148,4,1,8,0,-3,-2,3,-4
1511885029342172,-3,-4,-2,-4,-5,2,-1,1
1511885029342172,0,2,-10,8,-3,3,-3,-3
1511885029349186,-3,-3,2,-8,0,-4,-1,2
1511885029349186,-3,-1,1,0,0,-1,-3,-3
1511885029365286,-1,-2,0,-5,-3,-3,-1,-2
1511885029365286,-2,1,0,2,1,0,-2,0
1511885029365286,1,0,-7,-5,-5,-2,-1,-1
1511885029365286,0,-2,6,7,-4,-1,-5,-1
1511885029380265,2,2,-7,-10,-2,-3,15,1
1511885029380265,1,-1,8,1,0,1,2,0
1511885029386406,1,-2,1,2,2,1,-1,0
1511885029386406,1,-3,-3,4,2,1,-1,2
1511885029401799,0,1,6,-5,-1,1,-2,-5
1511885029401799,1,-3,-10,-6,-1,-4,-5,0
1511885029408953,-2,1,0,5,-1,1,1,0
1511885029408953,2,1,-3,4,-3,-3,2,-4
1511885029424996,-1,-2,1,-5,2,-1,-4,-1
1511885029424996,1,1,-6,5,7,-3,-3,2
1511885029425998,2,-2,4,-9,-6,-1,-3,1
1511885029425998,-1,-4,-19,7,2,3,-1,2
1511885029441038,-1,-2,-2,-11,-5,-2,-3,-2
1511885029441038,-4,-2,9,-2,-7,-1,-4,-2
1511885029447053,-1,-4,3,15,5,-3,-6,-2
1511885029447053,0,-2,-12,-10,0,3,1,-3
1511885029463097,-1,0,-2,-3,1,0,-5,-2
1511885029463097,-3,0,15,-6,-3,2,-1,-1
1511885029469158,0,2,5,-4,-5,-1,-2,-4
1511885029469158,1,4,0,2,0,-2,4,0
1511885029485291,-1,-2,-1,-4,-1,-2,-3,-1
1511885029485291,4,1,-5,2,-2,-1,1,0
1511885029485291,2,-4,-10,-6,0,-2,3,1
1511885029485291,-3,-1,7,6,3,2,-5,0
1511885029500297,1,0,-1,-3,-4,-3,0,2
1511885029500297,-1,-5,-4,3,-2,1,-1,0
1511885029506355,1,0,3,-3,-2,1,1,-1
1511885029506355,2,-1,-6,-4,-3,0,2,2
1511885029523354,-1,-2,8,3,2,6,-1,-1
1511885029523354,1,4,2,3,2,-3,0,0
1511885029529393,0,2,-4,-3,0,0,-3,-2
1511885029529393,-3,0,4,5,0,0,-1,2
1511885029544413,0,0,-4,-3,-3,-2,1,0
1511885029544413,1,-3,-7,0,2,5,-1,0
1511885029545412,-3,-1,2,-5,0,1,0,-3
1511885029545412,-3,1,-2,1,-3,-4,-4,-3
1511885029560453,0,0,-1,9,15,5,-1,-3
1511885029560453,-1,-2,3,-6,-8,-3,-3,-4
1511885029566472,0,-1,-5,6,1,-2,0,-1
1511885029566472,0,0,0,-4,-4,2,0,-2
1511885029583517,-2,-3,-7,-3,-6,-1,-3,-1
1511885029583517,-1,2,-1,-3,-3,0,-1,3
1511885029589530,0,-1,2,5,4,1,1,0
1511885029589530,-2,-2,3,-3,3,1,1,-1
1511885029604569,2,2,-3,0,-3,-2,1,2
1511885029604569,1,1,3,1,2,-4,1,-1
1511885029605573,-1,-1,0,0,-4,0,-2,1
1511885029605573,0,-1,-2,-7,3,-1,1,0
1511885029620613,0,-2,0,0,-3,-3,-3,-1
1511885029620613,-4,1,-1,5,5,8,1,-2
1511885029626629,3,1,-4,2,-4,1,-1,0
1511885029626629,-1,-2,2,-1,2,1,-4,-1
1511885029642671,-3,-2,-3,-1,-9,-9,-1,-3
1511885029642671,-4,0,0,5,7,5,-2,-4
1511885029648688,-2,2,-3,-14,-6,1,0,1
1511885029648688,-4,-3,2,-1,-2,0,-3,-1
1511885029664733,4,0,1,6,-4,-5,1,-2
1511885029664733,1,-1,-10,-6,-8,-3,-2,0
1511885029665736,-2,-5,4,6,6,0,-1,-2
1511885029665736,-2,1,2,-4,-6,-5,-2,-3
1511885029686987,-3,-5,-1,-6,2,7,-3,-3
1511885029686987,-2,0,8,13,8,-3,0,1
1511885029687931,-2,1,-11,-10,-2,-1,-1,1
1511885029687931,1,-2,-2,13,0,-2,2,-1
1511885029702970,2,-1,-1,-14,-1,1,-2,-3
1511885029702970,0,-4,7,1,-2,2,3,0
1511885029709115,1,-7,1,-8,-1,-2,1,0
1511885029709115,0,3,5,18,0,1,-2,-1
1511885029725185,-1,0,2,4,0,-4,1,1
1511885029725185,-1,1,-5,-11,-3,-7,-1,0
1511885029726189,-3,0,0,-1,6,6,-1,-1
1511885029726189,1,-2,1,-15,-3,-5,0,3
1511885029747248,-1,4,1,3,0,5,0,-2
1511885029747248,-2,-1,-1,15,-5,-5,-3,-3
1511885029748246,2,-4,-3,10,3,-1,0,0
1511885029748246,-2,-3,1,-13,-3,1,-2,-3
1511885029763286,-2,0,-2,8,-2,0,2,-2
1511885029763286,1,2,-1,0,1,2,2,2
1511885029769305,0,4,-1,0,-5,-2,-1,-3
1511885029769305,0,-4,-3,-1,-1,-1,0,1
1511885029784345,1,0,1,-1,-2,-5,2,2
1511885029784345,-3,-4,-4,-9,-3,1,-1,-3
1511885029785344,1,1,1,9,0,1,-1,2
1511885029785344,-1,0,-2,-8,-3,-1,-4,-4
1511885029807406,-2,-2,-8,5,2,-2,1,-1
1511885029807406,2,0,5,-15,-1,2,-2,-1
1511885029808406,-4,-1,-1,12,-1,-5,0,-2
1511885029808406,1,-2,-3,-5,4,1,2,0
1511885029823450,0,0,-4,-2,1,2,0,-2
1511885029823450,1,-2,0,-1,0,0,-3,-1
1511885029829463,-3,0,-2,-6,1,-3,-1,0
1511885029829463,1,1,0,8,3,-2,0,-1
1511885029844505,-1,0,1,3,-4,1,-5,0
1511885029844505,0,0,-2,-3,0,-3,-4,0
1511885029845515,0,0,3,-9,-4,0,3,0
1511885029845515,0,-3,-5,3,2,-2,2,2
1511885029867590,-1,0,1,-1,-1,1,-3,0
1511885029867590,-1,-1,-1,-3,-1,0,-1,2
1511885029867590,0,-3,0,-4,-5,-5,-2,-4
1511885029867590,-1,1,1,0,0,0,-1,-1
1511885029882606,-1,-1,-2,1,2,0,0,-1
1511885029882606,1,2,-2,-6,-8,-7,-1,-2
1511885029889622,-1,-2,-7,0,-3,0,-3,-3
1511885029889622,-1,-2,-2,-5,-4,1,3,-1
1511885029904665,-1,1,-2,-3,2,2,-2,0
1511885029904665,0,-2,-3,1,-1,3,-1,-3
1511885029905664,2,2,3,-1,2,0,-3,-2
1511885029905664,-1,-1,-1,2,-4,-5,-1,0
1511885029927769,-2,-1,4,1,4,3,1,-2
1511885029927769,-1,-1,0,-1,1,1,3,0
1511885029927769,-2,0,-3,-1,2,-1,-1,-5
1511885029927769,-1,2,-2,3,-2,5,-2,-1
1511885029942789,-1,-3,5,-4,0,-2,0,1
1511885029942789,0,-3,-9,-3,-3,-1,1,1
1511885029948783,0,0,5,-3,1,-1,2,2
1511885029948783,0,1,-1,3,3,0,-2,-2
1511885029964825,0,1,-2,-1,1,-2,-2,-2
1511885029964825,1,-1,1,1,-3,-1,0,1
1511885029965825,-2,-4,-2,-5,-6,1,0,2
1511885029965825,-1,-3,1,-4,2,0,-2,0
1511885029986883,1,0,-2,3,-2,-3,0,-1
1511885029986883,-2,0,-1,0,-1,1,-2,-2
1511885029987883,-2,-1,0,4,4,2,-4,-3
1511885029987883,1,0,4,-4,-5,-4,0,-2
1511885030002923,-2,0,-5,2,6,1,-1,-4
1511885030002923,-3,-2,0,10,0,0,-1,0
1511885030008939,0,1,-3,-1,-3,-3,-2,-1
1511885030008939,1,0,-4,-2,0,0,0,-4
1511885030024983,0,-1,-3,-6,-2,-2,-2,3
1511885030024983,0,-2,4,3,2,-1,0,0
1511885030026122,0,0,-5,-4,-2,-1,2,-2
1511885030026122,-2,-2,3,-2,-1,3,-5,0
1511885030047041,0,-1,-1,1,-3,-2,0,0
1511885030047041,1,1,-1,-4,0,0,-1,-2
1511885030048043,0,0,0,2,-1,0,-4,2
1511885030048043,-3,-1,1,0,-1,0,2,-1
1511885030063084,-2,-1,1,0,-3,0,-3,1
1511885030063084,-2,-1,0,-1,-1,1,2,0
1511885030069196,0,-1,-2,5,4,-3,0,-2
1511885030069196,-2,-1,-3,0,-3,1,0,0
1511885030085145,-2,-1,-3,-2,-1,-1,-1,-3
1511885030085145,-1,0,1,0,2,1,-3,-3
1511885030085145,0,2,0,-3,-1,0,0,-1
1511885030085145,-1,-3,1,2,-1,1,-1,-1
1511885030107204,0,-2,-6,-5,-1,1,0,3
1511885030107204,-1,-2,2,1,3,-2,-2,-1
1511885030108203,-3,2,-5,2,-3,1,-1,2
1511885030108203,-1,-2,0,2,-3,-1,-2,-1
1511885030123243,-2,1,0,0,-2,0,0,-1
1511885030123243,1,3,-7,-3,-4,-2,1,0
1511885030129368,-2,-5,1,3,5,-4,0,1
1511885030129368,1,2,-4,-1,-1,-3,1,0
1511885030144627,-5,-1,1,0,-3,-3,-1,-1
1511885030144627,-1,2,1,-2,3,1,-2,0
1511885030151467,1,-2,-3,-4,-6,4,3,-1
1511885030151467,1,-1,-2,3,3,-3,-1,-2
1511885030167502,-1,0,1,0,-1,-1,-1,2
1511885030167502,-3,-3,2,-3,-3,-1,7,-4
1511885030168506,0,1,3,-1,-6,0,-1,0
1511885030168506,-1,0,0,-4,2,0,-2,0
1511885030183584,2,-2,-1,1,0,0,-1,-2
1511885030183584,-1,-4,-1,1,3,-2,-2,1
1511885030197589,-3,2,0,-2,-2,-1,0,-2
1511885030197589,-2,-1,0,8,3,1,2,-3
1511885030204601,1,-2,-2,-4,-1,1,-2,-2
1511885030204601,1,0,-1,3,3,-1,-3,-2
1511885030211740,-1,2,4,-5,-5,-1,0,-1
1511885030211740,0,-2,-5,3,2,0,-2,1
1511885030227759,0,1,-4,-5,-4,1,-1,-1
1511885030227759,0,0,-1,-1,-1,-4,0,0
1511885030227759,1,-5,3,0,-2,2,0,0
1511885030227759,-2,-1,0,-4,-7,2,-1,-1
1511885030242724,2,0,2,4,-3,-3,2,-1
1511885030242724,-2,2,-1,-6,-6,0,-5,1
1511885030248719,0,1,-2,-2,-2,-3,-2,-1
1511885030248719,-1,-1,1,-1,0,-1,-3,1
1511885030263759,-1,0,-3,-7,-3,-2,4,-1
1511885030263759,2,-1,-3,14,4,4,-2,-1
1511885030271819,1,-2,2,-2,-4,-4,-1,-1
1511885030271819,2,2,1,-2,0,-3,1,1
1511885030286859,-1,0,1,-2,3,1,0,-1
1511885030286859,-1,0,-3,-4,-1,1,0,-2
1511885030287821,-3,-5,-3,-2,1,-1,-1,-1
1511885030287821,1,1,-1,3,5,2,-3,-2
1511885030302008,-2,-2,-1,-1,-1,1,1,0
1511885030302008,-3,-2,3,-5,-5,1,1,0
1511885030309029,-2,-2,-9,7,5,-2,-1,-1
1511885030309029,-2,-4,3,-3,-9,0,-1,0
1511885030324243,3,-1,-1,5,1,0,0,-2
1511885030324243,-2,0,-1,-3,-3,2,-1,-2
1511885030332102,2,1,2,1,6,-1,-1,2
1511885030332102,-1,1,-7,0,-4,-2,1,0
1511885030347223,-4,-1,0,0,-1,2,1,-3
1511885030347223,0,-2,3,-5,-1,-2,-3,1
1511885030348130,1,-4,-2,0,2,2,-1,-1
1511885030348130,-1,1,-4,0,-3,-1,0,-2
1511885030361311,2,-1,0,-1,-1,-3,-2,0
1511885030361311,-2,0,-6,-2,-2,2,0,0
1511885030369231,1,1,5,-4,-3,1,0,-1
1511885030369231,-2,-1,-3,-3,0,-1,7,1
1511885030384271,-3,0,0,-1,2,0,-2,-1
1511885030384271,-2,2,-1,3,1,-2,-1,-2
1511885030391316,0,1,-1,-1,-6,-5,-1,0
1511885030391316,1,0,2,-2,-3,0,-1,-3
1511885030407550,-1,0,-1,-3,3,0,-2,1
1511885030407550,3,-5,-4,1,-2,-1,0,-1
1511885030408359,-3,3,-2,0,-3,3,-1,0
1511885030408359,0,-2,-3,3,5,-3,-3,-1
1511885030421581,-2,0,-3,0,-5,1,0,-2
1511885030421581,-1,-1,0,0,-3,-1,-2,3
1511885030429499,2,-1,-2,1,1,-1,0,-1
1511885030429499,-2,-2,-5,-7,2,0,0,-3
1511885030444659,2,0,3,5,0,0,-3,1
1511885030444659,-3,0,0,-4,2,2,-2,-1
1511885030451546,0,1,1,3,3,-3,0,2
1511885030451546,-2,0,1,2,-3,2,1,0
1511885030467721,0,-5,-3,-2,1,0,-3,-3
1511885030467721,-2,-1,0,-1,1,0,2,-3
1511885030468592,-4,1,-5,0,0,-1,-4,-2
1511885030468592,0,0,3,4,0,-1,-4,-1
1511885030482833,1,2,2,-1,-1,-2,-3,1
1511885030482833,-1,-2,4,0,-1,0,0,0
1511885030488867,3,2,-5,-5,-1,0,0,-1
1511885030488867,2,-2,1,-4,-1,-2,-1,2
1511885030503908,0,-3,-6,1,0,0,4,-3
1511885030503908,0,-1,2,-4,-4,-2,-1,-1
1511885030511929,-1,-1,1,0,-2,-1,-2,-1
1511885030511929,0,1,1,-2,-2,1,2,0
1511885030526942,1,1,-4,6,2,-1,1,0
1511885030526942,0,-2,5,1,1,3,-3,-3
1511885030527950,-3,-3,-4,-1,-6,-1,0,1
1511885030527950,-3,0,0,-1,-1,-1,-3,-1
1511885030542984,0,-1,1,-7,-5,0,-2,0
1511885030542984,2,-1,1,4,1,-1,-1,-2
1511885030548987,0,-1,-4,2,-2,3,-4,-1
1511885030548987,-1,0,1,2,1,-4,-1,0
1511885030564027,-2,2,-2,0,0,-1,-2,-1
1511885030564027,-2,0,-4,-2,-1,-2,2,-1
1511885030572048,0,-3,3,-1,-4,1,-1,-2
1511885030572048,-4,1,-2,2,-4,-2,-1,-2
1511885030587318,0,-4,-1,3,8,-2,1,1
1511885030587318,-1,-4,-4,-3,0,-5,-4,1
1511885030588229,-1,3,4,2,1,1,1,0
1511885030588229,0,-1,-1,-2,-1,1,0,-1
1511885030603415,0,-1,1,-2,-4,-3,-3,1
1511885030603415,1,2,-4,1,0,0,-2,-1
1511885030609613,0,-2,1,-5,-2,-1,-2,-3
1511885030609613,2,0,-4,4,2,2,5,-1
1511885030624467,-2,-6,1,2,2,1,-3,-4
1511885030624467,-1,3,1,2,0,0,2,0
1511885030631488,-2,-2,-5,-1,2,-2,1,-1
1511885030631488,-2,-2,1,-6,4,-1,-5,-1
1511885030647535,-1,0,0,-1,-3,2,-1,0
1511885030647535,2,-2,1,-5,-2,-1,1,-1
1511885030648531,-1,-2,-3,-3,1,3,-1,0
1511885030648531,-1,0,-1,0,-2,-3,-1,0
1511885030663572,1,1,0,-1,-5,-3,-1,2
1511885030663572,-1,-1,-1,2,-2,-1,-1,1
1511885030669656,-1,0,-2,-3,0,0,1,-1
1511885030669656,0,-2,-1,-4,-5,0,-1,1
1511885030684628,-1,2,-1,2,1,-1,-2,-3
1511885030684628,-2,3,-2,-2,-1,3,2,-2
1511885030691683,0,-1,2,3,-1,-1,-1,0
1511885030691683,1,1,-2,-1,-2,-3,-2,0
1511885030707690,-3,-2,4,-2,2,-2,0,-1
1511885030707690,-2,-4,-5,1,-4,2,-2,2
1511885030707690,2,1,2,0,-1,3,2,-2
1511885030707690,-1,1,-1,-1,1,0,-2,-1
1511885030722781,-1,3,-2,-1,-6,-4,-2,-2
1511885030722781,-1,-4,-1,-1,-2,-2,-2,-2
1511885030729748,-1,-1,1,5,4,-3,0,-1
1511885030729748,-2,-1,-2,-2,-3,0,-2,0
1511885030744792,1,-1,-1,-1,-3,1,2,0
1511885030744792,-3,0,-1,3,3,0,1,-3
1511885030751810,-1,1,-1,-3,-2,-3,-2,2
1511885030751810,0,0,1,4,-1,0,2,-1
1511885030766888,-3,-3,3,-3,-3,-2,1,-1
1511885030766888,2,0,-4,-5,-4,-3,1,-1
1511885030767849,-4,-2,-1,7,7,-3,-2,-1
1511885030767849,-2,1,0,-1,0,5,-2,0
1511885030782888,-3,-1,0,-3,-1,1,0,0
1511885030782888,2,0,1,-2,-2,-2,-1,-1
1511885030788906,1,0,-1,-3,-4,0,-1,-2
1511885030788906,0,-1,-3,-3,1,-3,0,-2
1511885030803948,0,0,-2,1,-2,1,-2,0
1511885030803948,-3,0,-4,0,1,-3,-3,0
1511885030812069,-2,-2,0,-4,-2,2,1,-3
1511885030812069,-1,-1,3,1,-1,1,1,-1
1511885030827009,-2,-2,0,0,-1,0,-2,-2
1511885030827009,0,-1,2,2,0,1,0,0
1511885030828007,-2,-1,-3,-1,-1,0,-2,2
1511885030828007,0,-2,-1,-1,-1,-5,-4,-2
1511885030843059,0,0,-3,-1,0,1,0,0
1511885030843059,-1,0,1,-2,1,-1,-2,0
1511885030849065,-1,1,1,-2,-1,-1,2,-2
1511885030849065,-1,-2,1,0,0,0,1,0
1511885030864258,2,-2,2,1,0,-6,0,1
1511885030864258,3,1,-2,-2,-1,-3,0,-2
1511885030871278,-3,1,-7,0,-2,1,-1,-1
1511885030871278,-2,-2,-3,3,0,-1,2,-2
1511885030887371,-1,1,-2,-3,0,0,-1,-2
1511885030887371,-5,-4,2,1,-2,-1,-5,2
1511885030888465,2,-1,0,-1,0,1,1,-4
1511885030888465,1,-1,1,0,-2,-1,-7,1
1511885030903396,-3,-2,-2,-1,1,-1,3,1
1511885030903396,-1,-2,-3,0,1,2,-1,-2
1511885030909413,0,-3,2,-4,-1,-1,-2,-1
1511885030909413,1,-1,0,-2,2,1,-2,-2
1511885030924451,-3,-1,0,2,-1,3,-1,-1
1511885030924451,-1,-1,1,-2,-1,2,2,0
1511885030931471,-1,-2,-2,0,-2,-2,27,-1
1511885030931471,2,-2,0,-2,-2,-4,-23,-3
1511885030947510,-5,1,-3,0,1,-2,63,-5
1511885030947510,2,-4,-4,0,-1,-1,-4,0
1511885030948514,-2,0,0,1,-1,-1,-12,-3
1511885030948514,0,-3,2,-3,-3,-3,-7,0
1511885030963591,1,0,-5,0,0,-1,-11,0
1511885030963591,-3,1,-2,3,0,3,1,-1
1511885030969569,1,0,3,-2,-5,-3,3,3
1511885030969569,-2,-2,-1,1,1,-2,11,-3
1511885030984613,1,-3,1,-1,-3,0,-20,-1
1511885030984613,0,-1,-4,-2,-1,-4,5,-3
1511885030991789,0,-1,-1,-2,-3,2,-14,1
1511885030991789,-2,3,-2,-1,1,3,3,-1
1511885031007712,2,0,0,-2,-1,-1,-9,2
1511885031007712,0,0,1,0,-4,-2,-8,0
1511885031007712,-2,-2,-1,2,1,0,27,-2
1511885031007712,-2,-5,1,-2,-1,2,0,-1
1511885031022713,-2,-2,-3,0,-1,2,-1,-2
1511885031022713,1,-1,1,2,0,0,0,0
1511885031028729,1,-2,-1,0,-2,1,-9,2
1511885031028729,-3,-1,-2,1,-1,3,3,0
1511885031043918,-1,2,-5,0,-3,-3,-6,-1
1511885031043918,-4,-1,0,-4,-3,-3,-5,0
1511885031051790,-5,-1,-1,-3,2,-6,11,1
1511885031051790,2,-3,-4,-1,0,-2,0,-2
1511885031066830,1,-6,2,-1,-1,3,-9,1
1511885031066830,1,3,-1,0,0,-4,-1,-1
1511885031067831,0,-4,3,1,-3,1,-8,-3
1511885031067831,-6,-2,0,3,-5,7,14,-3
1511885031082870,0,-2,0,-4,2,-1,-16,-2
1511885031082870,0,-3,0,9,6,-2,-12,-1
1511885031088889,2,1,-6,-5,-7,-1,2,1
1511885031088889,-4,0,1,8,4,4,-3,-2
1511885031104000,-4,-1,-1,-4,-4,5,-4,-3
1511885031104000,-1,-1,-3,-12,6,1,1,-4
1511885031112128,2,0,-3,7,-4,-1,-24,4
1511885031112128,-1,3,2,21,2,-2,0,2
1511885031127221,-1,-5,-13,-21,-10,-5,2,-5
1511885031127221,2,1,6,-6,10,3,6,2
1511885031134227,-2,1,-8,4,-4,-3,-2,-5
1511885031134227,1,-1,2,19,-2,0,1,1
1511885031143249,-1,3,5,-22,-3,-2,7,0
1511885031143249,-1,-2,-8,-3,-5,-1,4,-2
1511885031149264,-1,-3,-8,-3,8,3,-4,-4
1511885031149264,2,-2,-1,-1,-2,0,-5,-1
1511885031164407,0,-3,2,17,3,1,-4,0
1511885031164407,1,0,-1,-13,-6,-1,-2,-2
1511885031171326,0,0,8,2,2,-1,-2,0
1511885031171326,0,-1,-2,-7,-1,-4,-2,1
1511885031186425,-1,-1,-2,10,4,1,0,-1
1511885031186425,-3,-1,-3,4,-5,4,2,1
1511885031203446,-1,-4,-3,-11,-1,0,-4,0
1511885031203446,1,0,3,-6,-5,-5,-2,-1
1511885031204448,0,-1,-2,6,6,3,2,-1
1511885031204448,2,3,2,-1,-11,0,-1,0
1511885031209465,-2,-2,0,0,1,-1,-5,-2
1511885031209465,-2,1,-3,-14,-3,1,-3,0
1511885031224529,0,1,2,6,2,-1,-3,-2
1511885031224529,-3,-6,-6,5,4,-1,2,-1
1511885031231740,0,4,8,-5,-2,1,-1,0
1511885031231740,0,-1,-6,-2,0,0,4,0
1511885031246822,6,1,0,11,-6,-1,1,1
1511885031246822,-3,5,1,-8,4,0,1,-2
1511885031253840,0,-4,-2,0,0,-1,-1,0
1511885031253840,-1,-5,-3,-7,-2,1,0,1
1511885031269888,-1,3,4,-2,2,-1,-3,1
1511885031269888,0,-1,1,6,-1,0,-1,-4
1511885031270871,-3,0,-3,-2,0,-1,-2,-5
1511885031270871,-1,-2,2,-4,-3,1,1,-2
1511885031283920,0,0,0,5,-3,-2,-2,1
1511885031283920,2,3,-4,4,-2,1,-1,0
1511885031291931,-1,2,3,-2,-3,-1,1,1
1511885031291931,2,1,9,2,5,-3,1,0
1511885031306943,-3,-7,-4,5,0,2,-2,0
1511885031306943,-3,0,3,-13,-1,0,0,-1
1511885031313963,1,0,2,12,-2,3,-5,-1
1511885031313963,3,1,-6,-15,0,0,-1,-1
1511885031330005,-1,3,-1,11,-4,3,0,-3
1511885031330005,2,-5,8,24,-2,0,0,4
1511885031331006,-3,-2,-6,7,0,1,-1,-2
1511885031331006,-3,3,0,-12,-3,-3,-4,0
1511885031344207,-1,-3,-6,0,1,-1,-4,-1
1511885031344207,-2,-4,-2,-11,-2,-1,2,-3
1511885031351229,5,-1,1,14,-1,-3,0,-1
1511885031351229,-1,1,-7,-10,-1,3,2,-3
1511885031366169,0,3,-2,0,0,1,-2,-2
1511885031366169,-7,-3,3,5,0,-3,0,0
1511885031374325,-2,-7,-3,-5,-2,0,-1,1
1511885031374325,-2,-1,-2,5,0,-2,1,-2
1511885031390367,0,1,3,-7,1,1,1,1
1511885031390367,3,0,-1,-5,0,1,-1,0
1511885031390367,-2,0,-3,-4,2,-3,1,-2
1511885031390367,-1,-4,3,-4,-3,-2,-1,0
1511885031404408,-1,-2,-6,11,-1,-2,2,1
1511885031404408,-1,0,-1,-6,-3,-2,0,0
1511885031411597,2,1,3,14,1,0,-1,4
1511885031411597,-2,-5,-4,5,2,1,1,-2
1511885031426679,-1,2,3,-10,-2,0,-1,2
1511885031426679,-2,-3,-4,3,2,0,-2,-1
1511885031434662,-1,-1,-3,-15,-3,-3,-2,-1
1511885031434662,0,-1,1,5,0,-1,0,0
1511885031449955,-1,2,1,-6,0,-1,-2,-3
1511885031449955,-2,-1,-6,-1,-1,1,-1,1
1511885031450835,0,0,1,7,0,-1,1,-3
1511885031450835,-1,-1,-5,-3,3,0,-3,-3
1511885031463874,-1,-4,-9,-6,0,2,-1,-1
1511885031463874,1,-2,2,2,-2,-3,1,0
1511885031472092,-4,-2,4,-6,-1,2,-3,0
1511885031472092,4,2,-6,0,-5,1,3,2
1511885031486976,-2,-4,1,1,-1,-1,0,-2
1511885031486976,2,2,5,0,0,-2,-1,-2
1511885031493995,-3,-1,-5,-6,4,-2,-1,-1
1511885031493995,-1,2,1,5,-2,-1,-1,-1
1511885031510139,1,0,1,-5,0,1,-3,-2
1511885031510139,3,0,-3,1,-2,4,-5,2
1511885031510139,-1,3,1,-9,0,1,5,-1
1511885031510139,-4,-1,-1,1,-1,-1,-5,0
1511885031524147,-1,-2,2,3,-2,1,2,-4
1511885031524147,-2,-2,-6,-3,2,-3,-2,-1
1511885031531143,-3,-5,-5,1,-1,0,-3,-3
1511885031531143,2,1,-1,1,-5,-2,-1,1
1511885031546222,2,5,-3,0,2,-3,0,-2
1511885031546222,3,1,7,0,-2,-2,-1,0
1511885031554341,1,-2,-2,-7,-3,2,-2,-1
1511885031554341,-2,-1,0,-4,2,0,13,1
1511885031570335,-3,1,1,1,1,-1,-3,0
1511885031570335,0,3,-1,0,4,-2,-1,-1
1511885031570335,-2,0,2,-5,-1,-2,0,-1
1511885031570335,-4,-1,7,11,-3,0,-6,0
1511885031584411,-1,-1,-6,-10,5,1,-5,1
1511885031584411,-1,-1,-9,0,0,-2,8,0
1511885031591391,-1,1,12,-2,-1,-1,-1,-3
1511885031591391,-1,-8,-13,-4,0,1,-4,-1
1511885031606551,2,-1,-2,-12,-3,-3,-2,4
1511885031606551,0,0,4,5,2,3,-4,0
1511885031614448,1,-2,-3,-2,-4,0,-1,1
1511885031614448,1,1,-9,-4,-3,-3,1,-2
1511885031629601,-2,-4,2,1,-1,-3,-1,-4
1511885031629601,-7,-1,0,-5,-3,0,-1,-3
1511885031630602,1,-7,-6,6,4,0,0,4
1511885031630602,1,1,2,-11,0,1,-1,0
1511885031643639,0,-3,0,12,-2,2,-1,0
1511885031643639,-5,-3,-4,-10,-5,4,18,-4
1511885031651660,-1,3,2,-7,-3,-2,-2,0
1511885031651660,-6,5,12,3,0,0,-6,-2
1511885031666729,0,-3,-7,-1,-3,-3,3,-1
1511885031666729,0,-1,2,8,1,0,-2,-1
1511885031674726,-2,2,-2,-3,0,0,0,-4
1511885031674726,4,-4,3,-5,-2,0,-1,1
1511885031689900,2,1,4,0,1,-2,-1,0
1511885031689900,0,2,-3,-16,-4,1,-4,2
1511885031690872,1,0,-3,18,-4,-2,-2,2
1511885031690872,1,0,4,-14,0,-3,-4,2
1511885031703950,2,0,2,26,-1,2,-1,2
1511885031703950,3,-3,-2,7,-5,-3,-3,1
1511885031711972,-1,1,7,-16,6,0,0,-4
1511885031711972,-5,-6,-25,6,1,0,-3,-6
1511885031726997,-4,3,5,13,4,1,6,-4
1511885031726997,-1,0,-2,-10,0,3,-7,-5
1511885031734030,-2,2,4,18,-2,1,-1,-3
1511885031734030,1,-1,-2,-17,-1,-7,-1,-2
1511885031750073,-3,-2,4,-5,-1,0,-1,-4
1511885031750073,2,-1,-16,8,5,0,-3,3
1511885031751032,1,1,1,-9,1,1,1,4
1511885031751032,-1,-3,-1,8,4,1,0,-3
1511885031764070,3,-2,3,-16,-3,-6,0,1
1511885031764070,-1,0,8,12,-1,-1,-3,-4
1511885031772088,0,-6,-3,-3,-2,-2,-3,-1
1511885031772088,-1,1,-17,8,6,1,0,-1
1511885031787127,0,0,8,-4,-1,-3,-3,0
1511885031787127,1,-1,12,-8,2,7,-2,1
1511885031794270,-1,1,-15,3,0,-4,1,2
1511885031794270,0,1,9,-4,-7,-1,-1,3
1511885031810215,2,5,0,18,2,-1,1,2
1511885031810215,-4,-4,-12,-11,1,1,1,-2
1511885031810215,1,-1,12,2,-4,3,1,-3
1511885031810215,4,5,14,1,-1,2,0,1
1511885031824251,-3,-5,-20,-14,-4,0,-3,0
1511885031824251,1,2,4,3,-5,-5,-2,-3
1511885031831245,-1,-3,3,-5,2,2,0,-3
1511885031831245,-2,0,-2,10,2,-3,-2,0
1511885031846285,-1,0,-1,-4,0,0,0,2
1511885031846285,1,-1,-6,0,1,-1,-1,2
1511885031854310,0,1,-5,-4,1,0,-1,2
1511885031854310,-2,-1,1,3,-1,-1,0,-4
1511885031869349,-4,-3,0,-9,-6,1,-1,0
1511885031869349,-1,2,1,6,-2,-2,-3,-2
1511885031870347,-1,-2,-4,-6,-5,-2,-1,-1
1511885031870347,1,-1,1,9,7,3,3,-1
1511885031884385,3,1,-7,-8,-7,-4,-2,1
1511885031884385,0,-6,-1,2,4,3,1,-2
1511885031891405,2,-4,-2,6,-3,-5,-1,0
1511885031891405,-2,-2,2,-4,-4,0,0,2
1511885031906447,-2,-3,1,-4,5,3,0,-4
1511885031906447,3,2,0,-3,-1,-6,-1,1
1511885031914470,-5,0,-2,1,2,4,1,-4
1511885031914470,-1,-1,6,1,-1,-2,-3,-4
1511885031929589,-3,2,-5,-2,-1,-1,1,-3
1511885031929589,-3,0,-1,0,-5,3,-3,-2
1511885031930508,1,0,0,5,4,1,0,-3
1511885031930508,-2,0,-1,-2,-3,-1,-3,-2
1511885031943696,-4,-3,0,1,-1,2,-3,-5
1511885031943696,0,2,1,4,-1,0,-1,-3
1511885031951706,-1,1,-4,-6,-4,-7,-1,-3
1511885031951706,-5,-1,-2,2,3,6,-3,-3
1511885031966868,-1,2,2,0,1,1,-3,0
1511885031966868,-2,-5,-7,2,-3,-4,-2,-1
1511885031974074,-2,-2,1,-1,-1,0,-3,1
1511885031974074,1,0,0,-5,-1,-7,-2,-2
1511885031990055,1,-3,-2,0,0,1,-1,-3
1511885031990055,0,0,4,0,1,-1,0,0
1511885031990957,2,-1,4,-4,1,1,-2,0
1511885031990957,-2,-3,-10,1,-1,-3,2,2
1511885032003967,0,-3,2,-4,-4,4,-2,-2
1511885032003967,-5,-1,3,4,0,-1,-3,-4
1511885032012109,1,0,-2,1,2,2,0,-1
1511885032012109,3,0,1,4,-2,-2,1,-2
1511885032026091,1,-1,-2,-4,-2,-4,1,3
1511885032026091,-1,-1,2,-3,-3,-1,0,2
1511885032034114,-2,-1,-2,3,0,4,-2,-2
1511885032034114,2,1,4,0,-2,1,0,1
1511885032049151,-2,1,-2,1,1,-3,1,-1
1511885032049151,3,-1,1,2,-2,-3,2,2
1511885032056169,-2,-2,-5,-3,-1,-2,-1,2
1511885032056169,0,-1,2,-3,-3,-2,-1,-1
1511885032065235,1,-2,0,-3,-7,-3,0,3
1511885032065235,1,1,-1,-8,2,-2,-2,0
1511885032071375,2,2,6,6,-1,-4,1,0
1511885032071375,-3,0,-7,-8,-2,-1,-1,-2
1511885032086517,-3,1,4,-1,-2,-2,0,-3
1511885032086517,-4,2,-2,5,-1,8,1,-2
1511885032094578,0,-3,-7,-8,-2,-7,-1,1
1511885032094578,0,2,14,2,-3,-6,-2,1
1511885032109753,-1,0,-7,0,0,3,0,0
1511885032109753,-1,-2,-4,0,4,4,0,-5
1511885032116579,-2,-2,4,-2,-3,-2,1,0
1511885032116579,-3,0,-3,-2,3,0,-1,2
1511885032125604,1,1,-4,-2,2,-1,-2,-2
1511885032125604,1,-1,5,-1,-3,-7,-2,0
1511885032131669,0,-1,-5,-4,2,5,1,0
1511885032131669,0,1,2,7,-5,1,1,-2
1511885032146659,-4,4,0,-1,6,0,1,1
1511885032146659,1,-3,2,-2,-2,-3,1,0
1511885032153678,-5,-2,-3,0,-2,-1,-2,-1
1511885032153678,3,-3,-2,4,1,3,0,1
1511885032168842,0,3,3,0,-2,-1,-2,0
1511885032168842,1,-2,-8,-2,0,2,2,1
1511885032176738,-2,-1,-2,-12,2,-5,1,1
1511885032176738,0,-1,-1,10,3,1,1,-2
1511885032192783,1,-5,3,3,-3,-3,-1,-1
1511885032192783,-1,1,-6,-4,-4,-4,-1,0
1511885032192783,-2,3,3,3,-5,0,-1,-1
1511885032192783,0,1,-6,-4,-1,2,0,1
1511885032206819,-1,0,0,-1,-3,1,0,1
1511885032206819,-4,-4,0,0,-4,-2,-2,1
1511885032213841,0,7,6,11,4,5,2,0
1511885032213841,0,-3,-5,-4,1,-1,-1,-3
1511885032229161,-1,0,0,0,0,3,0,-1
1511885032229161,1,0,2,2,-2,-2,2,-1
1511885032237177,-3,-5,-3,-8,1,2,-1,-2
1511885032237177,-1,-2,0,6,-3,1,1,0
1511885032252115,-2,-1,-6,-5,-3,-3,-2,-2
1511885032252115,-3,0,3,3,1,2,-3,-1
1511885032253114,-3,0,2,2,0,0,-1,-1
1511885032253114,-3,-2,-1,-6,1,0,-4,-1
1511885032266148,-2,-3,1,1,-1,1,-1,0
1511885032266148,0,-2,0,1,2,-4,-2,-2
1511885032274175,0,-2,-5,0,-5,-1,0,-4
1511885032274175,0,0,-2,0,2,1,0,0
1511885032289213,1,-2,0,2,3,1,-2,-1
1511885032289213,-2,1,1,-4,-3,0,-3,-2
1511885032296228,3,1,2,3,-3,-1,-1,1
1511885032296228,0,-3,-1,-3,1,0,-2,-3
1511885032312499,-1,0,5,-2,0,-2,-1,-4
1511885032312499,-1,-1,-3,6,0,2,0,2
1511885032313497,0,-1,-2,-2,-4,-5,0,-1
1511885032313497,0,-1,1,-2,-6,-3,-2,1
1511885032326731,-3,-1,1,10,1,-1,2,-2
1511885032326731,0,-3,-3,-6,1,1,-2,0
1511885032334640,-2,-3,2,7,0,-1,0,-3
1511885032334640,0,3,1,-7,-3,-1,0,-1
1511885032348678,-1,-3,-1,-4,-1,-2,-3,-2
1511885032348678,0,1,-1,3,-2,3,0,-2
1511885032356933,0,-2,-9,-4,1,1,1,2
1511885032356933,0,3,0,-4,-3,-2,-3,0
1511885032371946,2,-2,-6,-2,3,1,2,0
1511885032371946,-2,3,3,-2,-2,-3,-2,-2
1511885032372865,-3,1,-1,6,1,0,-3,-2
1511885032372865,1,0,-6,-5,-1,1,1,1
1511885032386905,-2,-1,0,1,-2,-1,0,1
1511885032386905,-4,0,-4,-5,2,2,-1,-1
1511885032394106,3,0,7,1,-3,1,0,2
1511885032394106,-2,-2,1,7,7,1,-1,-4
1511885032409097,0,4,-5,0,0,0,-3,2
1511885032409097,-4,-5,3,-2,0,-1,2,0
1511885032416114,-1,0,-5,-2,2,1,-2,-3
1511885032416114,-4,-4,-1,-1,-2,-1,-1,-1
1511885032432154,-1,1,0,2,1,0,-2,-1
1511885032432154,1,-2,0,2,-4,0,-1,0
1511885032433156,-1,1,-3,0,2,2,-2,-2
1511885032433156,-3,0,5,0,-2,-3,2,1
1511885032446193,1,-2,0,-2,-1,-4,0,-2
1511885032446193,-2,0,4,3,0,-1,0,-1
1511885032454215,-1,-4,-8,-4,-2,-1,1,-1
1511885032454215,-2,-3,2,0,1,-1,-5,0
1511885032469255,0,-1,-2,-1,-1,-4,0,0
1511885032469255,2,-1,5,1,3,0,2,0
1511885032476273,3,-2,-1,1,3,-1,-2,-3
1511885032476273,1,0,-5,1,-1,1,0,0
1511885032492616,-4,0,2,-7,-3,4,0,0
1511885032492616,-2,-1,-4,-4,3,-4,-4,-4
1511885032492616,-2,-2,-2,4,3,1,2,-1
1511885032492616,1,-4,3,-4,-3,-1,1,-1
1511885032506656,-3,-1,-2,2,3,6,-1,0
1511885032506656,-1,2,1,4,7,-1,-1,-2
1511885032513676,0,-2,-1,-6,-4,-2,-2,0
1511885032513676,0,0,14,5,1,1,2,1
1511885032529721,0,-2,-18,0,1,2,-2,-2
1511885032529721,-3,3,4,-3,-7,-3,0,0
1511885032536734,-1,0,-2,1,0,-1,0,-2
1511885032536734,4,5,-6,-1,-5,1,0,1
1511885032551777,-3,-2,5,-2,-3,-2,-4,0
1511885032551777,0,-3,-9,5,10,5,2,0
1511885032552783,-5,-1,15,1,9,0,-3,-4
1511885032552783,-4,-1,-10,-3,-3,-2,-1,0
1511885032566933,-1,-2,5,-2,-2,1,0,1
1511885032566933,-1,1,-5,-1,-5,-2,-2,0
1511885032573957,-1,-1,10,-2,-2,-3,1,0
1511885032573957,2,-2,-8,0,-3,1,1,1
1511885032588899,1,0,0,-1,2,3,-2,-3
1511885032588899,-2,-3,-4,-1,-3,0,-3,-1
1511885032596893,-2,-2,-3,0,-2,-2,2,1
1511885032596893,-1,0,-1,-1,2,-4,-3,-2
1511885032612229,0,0,2,0,-6,1,1,-2
1511885032612229,0,0,0,-2,-3,-1,1,-3
1511885032613043,0,0,-5,0,-2,2,-2,-1
1511885032613043,0,0,-3,2,-2,0,-1,-3
1511885032626388,0,1,2,2,0,-4,0,3
1511885032626388,-1,-3,1,-4,1,-1,0,0
1511885032634347,2,1,-6,-5,-4,-3,-1,0
1511885032634347,-5,-2,4,1,0,2,-2,-2
1511885032649265,-2,-2,-2,-2,-2,1,6,-1
1511885032649265,1,-1,-3,-2,-2,2,-2,-1
1511885032657473,1,2,-4,0,-7,-1,1,1
1511885032657473,-1,1,1,-5,-2,-1,2,-1
1511885032672427,1,-1,-2,2,0,-2,-2,1
1511885032672427,-2,-1,4,2,0,0,-1,0
1511885032673429,-1,0,-2,1,2,5,-2,0
1511885032673429,-2,-1,1,3,0,1,-1,1
1511885032686386,1,-1,-1,-4,-2,-4,2,-4
1511885032686386,1,-1,4,1,-2,1,1,-1
1511885032694494,-1,-6,-12,0,-2,0,-3,-1
1511885032694494,-2,-4,-1,1,1,-4,1,0
1511885032709584,0,-4,0,-3,1,-3,-3,-1
1511885032709584,1,0,-1,-3,-2,-2,-1,1
1511885032717801,0,1,3,6,7,-1,1,1
1511885032717801,0,0,-4,-4,0,0,-1,0
1511885032731917,-4,-2,0,2,-1,0,-2,1
1511885032731917,1,-3,-3,-5,-3,-1,2,-3
1511885032732845,1,2,2,-2,-4,-1,-1,-1
1511885032732845,0,-2,-3,-1,1,-2,0,0
1511885032746884,1,2,1,-1,0,0,-1,-3
1511885032746884,1,0,1,0,-5,-1,0,-3
1511885032753927,-4,-2,0,-4,-3,-2,-3,-2
1511885032753927,1,2,-3,3,3,1,-1,0
1511885032768942,-3,0,2,1,0,1,-2,-1
1511885032768942,-1,1,-2,-1,1,0,-3,2
1511885032777217,-1,-4,5,-2,2,-3,1,-4
1511885032777217,-1,0,3,2,1,3,0,-3
1511885032792305,-3,-2,-4,-4,-1,-1,-3,1
1511885032792305,-1,1,1,5,0,-1,-3,2
1511885032793146,3,-1,-4,-3,-4,-1,-2,0
1511885032793146,-2,-1,-1,-3,2,-1,0,1
1511885032806297,3,-1,1,2,-1,0,-1,-2
1511885032806297,-3,-1,-3,0,5,-2,2,-1
1511885032814200,2,1,-1,-4,-8,-3,2,4
1511885032814200,-1,2,-1,0,1,1,-2,-5
1511885032829489,-2,1,-3,1,2,-1,2,-1
1511885032829489,0,-4,-6,-2,-3,0,0,1
1511885032837425,-1,-1,-1,0,-1,0,0,0
1511885032837425,-1,-1,1,-1,-3,-1,-1,-3
1511885032852466,-1,-2,-2,1,0,2,-1,-1
1511885032852466,-3,2,2,-2,0,-1,-1,0
1511885032853466,-2,3,1,0,0,-3,-1,-3
1511885032853466,0,-9,-10,1,1,0,4,0
1511885032866500,-3,1,8,-2,-7,-3,0,0
1511885032866500,-1,1,-3,8,7,1,2,-3
1511885032874522,-1,-2,3,-6,-5,2,-2,-1
1511885032874522,0,3,0,-2,-4,-3,-2,-1
1511885032888602,1,0,4,4,-2,-1,-1,-2
1511885032888602,-1,-14,-24,-8,-2,-4,0,1
1511885032897585,-1,6,9,4,-3,3,1,-1
1511885032897585,-2,-1,-2,1,4,2,-3,-2
1511885032912854,-2,-3,-7,0,0,-3,2,0
1511885032912854,1,6,20,0,-4,0,-3,-2
1511885032912854,0,-9,-11,-1,0,0,-3,0
1511885032912854,-3,-1,-28,-1,-1,-2,1,2
1511885032926992,1,-2,3,-1,2,0,-1,1
1511885032926992,-2,4,8,0,0,-2,-2,-4
1511885032933885,-1,2,-1,-3,2,0,0,-2
1511885032933885,1,0,12,2,3,2,-3,-3
1511885032948925,0,-5,-4,-1,0,-1,-2,0
1511885032948925,-3,1,-10,-3,-3,2,0,-1
1511885032957073,-2,-2,0,5,2,2,-1,1
1511885032957073,-2,0,8,0,0,-3,2,0
1511885032972169,0,1,-1,-1,-4,-1,1,-2
1511885032972169,-1,-1,0,-1,6,-4,-3,0
1511885032972987,-4,1,-3,-1,3,2,-2,-1
1511885032972987,1,-4,5,-3,-1,1,-1,-1
1511885032987111,0,3,-2,3,0,0,-3,-3
1511885032987111,0,-1,7,-2,-4,5,-1,0
1511885032994148,0,-2,-6,2,2,-3,1,1
1511885032994148,-3,0,3,0,-3,-1,-3,0
1511885033009136,-2,-3,-9,-4,-2,-1,0,-3
1511885033009136,0,-2,1,-1,0,-5,-1,-3
1511885033017181,2,-2,-9,1,-2,-1,0,0
1511885033017181,0,2,4,-5,-3,-3,-3,-2
1511885033031191,1,1,2,0,-2,3,1,-1
1511885033031191,0,-2,-2,0,-4,2,0,1
1511885033040319,0,1,4,-3,-1,-1,-2,-1
1511885033040319,1,-2,-1,-1,-1,-1,0,0
1511885033046228,0,-2,-4,-5,-2,-1,0,1
1511885033046228,-1,4,-4,2,-3,3,-1,-2
1511885033054506,-3,0,2,-3,-4,2,-1,-2
1511885033054506,1,-3,6,0,-2,2,0,0
1511885033069540,0,1,3,6,2,2,-4,-1
1511885033069540,1,-7,-4,-5,-3,-1,-1,2
1511885033076734,-1,-1,1,0,-1,-5,-1,-1
1511885033076734,-3,0,-9,-2,1,-2,-1,0
1511885033091587,-3,-1,3,-2,1,3,1,-5
1511885033091587,1,-1,-5,2,0,-1,0,-2
1511885033099726,-2,0,4,-5,1,1,-1,0
1511885033099726,-1,0,-2,5,-3,-3,-1,-1
1511885033114648,-2,-2,3,3,5,0,-1,1
1511885033114648,0,-2,-2,-1,0,0,-1,2
1511885033115650,2,0,1,-4,-3,1,1,-2
1511885033115650,-2,0,2,-1,-2,5,-1,-1
1511885033128870,-3,-1,-5,3,7,1,-1,2
1511885033128870,0,-1,-3,-1,0,-2,-2,1
1511885033136737,0,-3,-1,-1,0,-3,-2,0
1511885033136737,0,0,-1,-4,-2,-1,1,-1
1511885033151909,0,1,-6,1,-1,-3,0,-3
1511885033151909,-4,-1,-6,2,2,0,1,-2
1511885033160105,-1,-6,6,3,3,-1,-3,-2
1511885033160105,1,-1,1,4,6,1,-3,2
1511885033174968,0,3,2,-3,1,0,3,0
1511885033174968,0,-5,-2,-1,1,-3,0,-4
1511885033176090,1,0,-5,0,-2,-1,3,-2
1511885033176090,0,-2,3,0,-2,-2,3,-2
1511885033189007,-1,-3,10,-5,-4,0,-4,-1
1511885033189007,0,0,-17,1,1,-1,-1,0
1511885033197027,-1,-1,-1,2,-2,2,-1,3
1511885033197027,-1,3,-1,-1,1,2,-3,-3
1511885033212100,0,-2,-7,-6,-5,-2,1,0
1511885033212100,1,1,8,-3,-2,2,1,-1
1511885033220202,1,-3,-2,3,-1,0,1,-2
1511885033220202,-2,-2,1,-9,2,1,0,1
1511885033235126,0,-3,1,12,-3,-2,-1,1
1511885033235126,0,3,0,-13,-3,3,-5,-1
1511885033235126,-1,2,-6,10,0,-3,0,-1
1511885033235126,-2,-1,3,-1,-4,-3,-3,-2
1511885033249232,-1,-2,-5,-20,-1,1,-1,-3
1511885033249232,-4,-1,8,16,-2,1,-2,-1
1511885033256325,-2,6,-1,4,0,0,0,2
1511885033256325,0,-2,-8,-3,-5,-3,-1,-2
1511885033271447,6,3,7,-7,-3,-2,0,3
1511885033271447,-1,-5,-13,-13,-1,-2,3,1
1511885033279283,1,1,4,2,1,1,-2,-2
1511885033279283,2,-4,-3,-8,-1,-2,2,2
1511885033294406,0,0,1,20,-2,1,0,-2
1511885033294406,-9,0,3,-19,-1,-2,1,3
1511885033295326,4,-1,-4,16,-4,0,2,2
1511885033295326,0,1,6,-5,0,1,-1,-1
1511885033309466,-3,-5,-15,-38,-2,1,-1,-3
1511885033309466,2,1,4,20,1,0,-2,1
1511885033316384,-5,-2,-3,-23,-1,-4,-1,-3
1511885033316384,-1,2,-2,2,1,2,0,0
1511885033340448,0,2,-2,0,-2,-3,-1,2
1511885033340448,1,2,3,19,-1,1,-3,-2
1511885033341448,-4,-1,-5,-20,-1,-2,0,-1
1511885033341448,3,-3,-1,29,-1,1,-3,-4
1511885033354614,-3,2,-6,-44,0,-3,-2,-3
1511885033354614,0,-3,3,14,-3,-3,1,2
1511885033355525,3,0,-1,31,1,2,0,0
1511885033355525,-3,-1,1,-25,1,0,0,2
1511885033369566,2,-4,0,46,-1,-2,0,0
1511885033369566,-1,-3,-3,-24,2,4,0,-5
1511885033376585,-4,-2,6,47,-5,-8,2,2
1511885033376585,-4,0,-5,-39,-2,-4,0,-2
1511885033391582,2,-1,0,-4,0,0,0,4
1511885033391582,3,0,3,-5,3,-1,-1,-4
1511885033399849,3,-4,5,-2,-2,1,0,0
1511885033399849,-2,-3,-9,6,2,2,-1,-4
1511885033414889,-4,0,6,33,3,-3,0,-1
1511885033414889,2,5,-1,11,-4,-2,0,4
1511885033415889,-5,1,-4,-45,-1,1,0,-4
1511885033415889,6,-1,0,34,-5,-2,-2,1
1511885033429195,-6,1,6,-21,4,1,-2,0
1511885033429195,-2,-2,-7,28,-4,-2,-1,1
1511885033436427,-6,3,1,-6,-3,4,-3,-7
1511885033436427,5,-2,0,-9,-3,-1,1,5
1511885033451299,-1,-3,-3,21,1,-1,0,1
1511885033451299,4,1,0,-42,-2,0,-4,-2
1511885033459509,5,-1,-11,23,-2,-4,-3,0
1511885033459509,-8,1,7,23,1,2,0,-2
1511885033474357,6,2,1,-3,-1,0,-1,-3
1511885033474357,-2,-2,4,-11,-1,-2,2,1
1511885033475360,0,-3,-1,-23,2,3,-4,1
1511885033475360,5,1,-11,1,3,-1,-4,-2
1511885033489509,-11,2,7,16,-4,1,4,1
1511885033489509,2,-6,-6,-21,3,1,0,-3
1511885033496419,8,-2,6,20,0,-3,-2,0
1511885033496419,-15,0,3,2,1,2,3,-2
1511885033511642,3,-1,1,-15,-1,1,0,-5
1511885033511642,-11,-4,-5,-10,-2,1,-2,-4
1511885033519506,5,3,-3,9,2,-4,-1,1
1511885033519506,-1,-2,-4,-13,-6,-5,-2,-3
1511885033534662,1,-1,-1,-12,0,-1,-1,0
1511885033534662,-4,2,5,19,3,3,4,1
1511885033535661,-3,-2,0,-15,0,1,3,-1
1511885033535661,1,-2,5,8,-1,-3,-1,1
1511885033548698,-3,1,-13,-24,-1,-2,-1,-4
1511885033548698,1,1,10,6,-2,-2,-2,-2
1511885033556848,0,-4,-7,-8,0,3,-3,0
1511885033556848,-2,0,4,-2,-1,-2,-1,1
1511885033571761,-1,-3,-3,10,4,2,2,1
1511885033571761,2,-2,1,8,0,-3,-3,-2
1511885033579904,-1,1,-3,-26,-3,-2,0,1
1511885033579904,1,2,0,-18,0,3,6,-3
1511885033595014,3,-2,-3,15,-4,-1,0,1
1511885033595014,-2,-1,1,2,-1,-3,2,2
1511885033595977,-6,0,1,-7,0,0,0,-2
1511885033595977,-3,-2,-4,-3,-1,-4,-1,-2
1511885033617043,-2,-2,0,2,1,4,-2,1
1511885033617043,3,0,1,2,-1,0,1,-4
1511885033618042,-4,-3,5,-3,0,0,-3,0
1511885033618042,-1,-1,1,7,-2,2,-4,3
1511885033631219,3,4,-8,-2,-1,3,8,-4
1511885033631219,-3,-4,-6,2,-1,-1,-2,1
1511885033640291,-1,1,-3,0,-1,-1,1,-1
1511885033640291,4,-1,6,1,0,3,-1,-3
1511885033654280,-1,-5,-11,6,-1,2,-5,0
1511885033654280,2,5,-5,-20,1,-5,-2,-1
1511885033655279,-2,-6,-15,6,3,1,0,-2
1511885033655279,0,-3,8,14,-4,-5,0,1
1511885033669449,-3,-4,-5,-1,-4,-4,-4,2
1511885033669449,-2,1,4,-15,0,3,-2,-1
1511885033676654,0,3,1,37,1,1,-1,-3
1511885033676654,-5,-1,-1,-15,1,2,-3,-1
1511885033691500,1,-2,10,21,-2,-3,-3,-1
1511885033691500,-2,-6,-9,1,-4,1,1,0
1511885033699718,-2,-3,9,-26,-1,-3,-1,-3
1511885033699718,1,0,3,9,-5,0,-2,-2
1511885033714759,-2,1,5,-5,-4,-3,0,0
1511885033714759,-2,-1,-1,11,-1,1,-1,2
1511885033715762,-1,2,-2,-6,3,-2,-2,0
1511885033715762,2,0,-1,5,2,3,-3,0
1511885033728948,-3,-2,0,-18,-4,-2,2,-2
1511885033728948,1,4,3,6,-1,3,-2,1
1511885033737000,1,0,6,1,-5,-4,5,-2
1511885033737000,-1,-7,-17,-6,4,-2,-3,1
1511885033751996,1,4,2,-5,4,2,-4,0
1511885033751996,-3,-1,-2,-11,-5,-1,-1,-2
1511885033760114,-2,0,5,39,7,4,-4,-2
1511885033760114,1,3,-12,-27,-1,-1,-1,-1
1511885033775149,-4,-2,3,15,4,4,-2,-3
1511885033775149,-1,-5,1,11,1,-2,1,-2
1511885033775149,-3,0,-8,-27,-2,1,-4,-2
1511885033775149,2,0,5,17,-5,-2,-1,1
1511885033789309,0,0,-3,-22,2,-3,1,1
1511885033789309,-1,0,1,3,-1,-2,0,-1
1511885033796289,-2,-1,-2,1,-3,-2,2,-1
1511885033796289,-2,0,2,-1,-1,1,-3,1
1511885033811367,-1,-1,-8,4,-1,-1,0,-3
1511885033811367,0,-1,0,-3,1,2,-2,0
1511885033819388,2,-3,-7,-1,-9,-2,-1,4
1511885033819388,-2,2,3,1,3,1,-3,-1
1511885033834389,-1,-1,10,3,-2,1,-2,-6
1511885033834389,-4,-5,-21,10,-1,-2,-3,-3
1511885033835387,1,3,0,-22,-3,1,0,-3
1511885033835387,0,-3,3,3,1,2,2,0
1511885033849428,1,2,-1,-4,-3,-8,0,2
1511885033849428,2,1,4,5,1,-2,-3,-3
1511885033856448,5,-2,-2,-5,-1,-2,0,5
1511885033856448,0,-1,0,7,-4,-4,-1,-3
1511885033871487,2,1,0,-17,-1,-4,1,-1
1511885033871487,-1,-4,-7,0,-7,1,0,2
1511885033879827,-1,-1,-1,4,-2,5,0,1
1511885033879827,0,-2,4,-13,-3,-1,0,-2
1511885033894692,0,0,2,2,1,2,-1,-5
1511885033894692,0,1,1,8,0,-2,0,-4
1511885033895695,-3,-1,2,-19,2,2,-3,0
1511885033895695,-4,1,-7,20,0,-2,3,-1
1511885033908819,0,-1,3,-27,-8,0,-2,3
1511885033908819,0,-1,-5,26,4,1,-2,1
1511885033916879,0,0,10,-7,2,-1,5,1
1511885033916879,1,0,-3,-15,-3,-1,0,0
1511885033931874,0,2,2,16,1,-3,3,3
1511885033931874,-1,0,9,-3,-2,6,2,2
1511885033939897,-2,-2,-11,6,-3,-4,-4,-3
1511885033939897,2,0,-8,-7,3,-2,-1,-3
1511885033954060,0,-4,5,32,0,3,-6,-1
1511885033954060,2,1,2,-26,-4,-4,-4,0
1511885033961955,-3,-2,6,-2,-4,-4,-4,0
1511885033961955,-2,-1,1,6,1,0,1,-1
1511885033968995,-1,0,-7,-4,-1,-2,-1,-1
1511885033968995,0,1,0,6,-4,-3,0,-3
1511885033977091,2,2,-3,7,6,-6,-2,0
1511885033977091,1,2,4,-1,-3,4,1,0
1511885033991033,-2,-4,-5,-3,-2,-5,1,3
1511885033991033,-3,-5,2,-15,-3,-1,0,-2
1511885034000059,-1,1,-13,-1,-3,0,2,-2
1511885034000059,0,4,3,6,0,-6,0,1
1511885034014208,0,-1,-6,4,-1,2,-1,1
1511885034014208,2,0,-1,-6,0,0,1,1
1511885034022116,2,-2,2,4,-1,0,-1,-1
1511885034022116,-1,-4,-3,-3,-4,0,-2,-4
1511885034029134,0,-3,-6,-6,-3,1,0,1
1511885034029134,1,0,2,4,4,1,-1,2
1511885034037219,1,-1,-1,1,0,-4,0,2
1511885034037219,-2,1,1,-14,4,0,1,-1
1511885034051349,2,-3,0,9,2,-2,1,1
1511885034051349,5,-1,-3,-1,-2,4,3,1
1511885034060348,-2,0,-1,-8,-1,-3,-3,1
1511885034060348,1,-3,-1,2,-6,3,0,0
1511885034074343,0,0,-3,-5,2,0,-1,-3
1511885034074343,-2,-2,4,7,8,-1,-1,0
1511885034082314,1,0,5,5,-2,2,0,-3
1511885034082314,-3,1,-6,-6,-3,0,-2,0
1511885034097351,-3,0,3,1,1,4,-2,-4
1511885034097351,-5,2,-3,4,-8,-3,-1,-2
1511885034098458,-3,-2,2,1,-3,-1,-1,-5
1511885034098458,-2,-5,-2,4,3,1,0,-2
1511885034111565,-1,1,3,0,-2,0,-1,0
1511885034111565,-4,-1,0,-2,-3,0,-1,-3
1511885034119412,-4,-3,0,-2,8,5,-3,-3
1511885034119412,-1,-1,0,1,-3,-5,-1,-2
1511885034134453,-1,-2,4,9,5,3,0,-1
1511885034134453,2,-3,-2,-10,-6,-3,3,2
1511885034142810,2,2,1,-3,-11,-2,-3,-1
1511885034142810,-3,-4,4,6,4,0,-2,-3
1511885034156951,0,3,-3,-6,-5,1,0,0
1511885034156951,-4,1,-4,-1,0,1,1,-1
1511885034157788,-4,-2,-2,0,-1,1,-3,0
1511885034157788,1,2,-1,0,-2,-3,-2,-1
1511885034172087,-2,-2,-6,-2,-3,-1,1,-1
1511885034172087,-2,2,1,1,-1,0,0,-1
1511885034180049,0,-5,-2,-2,-1,-2,-1,0
1511885034180049,0,-2,-6,-1,2,8,1,1
1511885034194314,-5,-1,-2,-8,-2,2,-2,-1
1511885034194314,2,-2,1,9,-1,-3,-1,-3
1511885034202231,0,-1,-5,-1,2,1,3,1
1511885034202231,0,-2,0,1,3,-2,0,-1
1511885034217274,-1,-1,-4,-2,0,-1,-2,-1
1511885034217274,1,0,-2,-2,1,0,-3,0
1511885034218278,0,2,0,0,2,-2,0,0
1511885034218278,-1,-4,-6,0,-3,1,-1,2
1511885034231312,0,-2,-2,2,-5,-1,-2,-2
1511885034231312,-1,2,0,-7,0,0,-4,-2
1511885034239584,-1,0,-3,2,2,3,2,0
1511885034239584,0,1,-1,-2,-1,-1,-3,-2
1511885034254514,2,-1,2,2,5,-4,0,0
1511885034254514,-6,-6,-5,-3,1,-3,-1,-2
1511885034262572,-1,2,-3,1,-3,-1,0,-3
1511885034262572,-2,5,2,1,2,1,1,0
1511885034277699,-3,-2,-3,2,3,0,-2,0
1511885034277699,2,-1,-3,2,-1,-1,-4,0
1511885034278578,-2,-1,1,-4,-5,-2,2,1
1511885034278578,2,-1,-4,-6,-3,-2,-1,-4
1511885034291618,1,3,0,0,-2,0,0,0
1511885034291618,-2,1,2,-1,3,3,2,0
1511885034299673,0,-5,-3,-1,-5,-4,-3,0
1511885034299673,1,1,-1,1,-2,-5,0,-2
1511885034313711,-2,0,2,-5,-1,2,2,1
1511885034313711,2,-1,0,4,-3,-1,-1,0
1511885034322718,3,0,0,-3,2,-1,2,0
1511885034322718,-1,-3,-1,1,-3,-1,0,-2
1511885034337733,1,-1,2,-3,-5,-3,-2,0
1511885034337733,-1,0,-2,-2,1,-1,-3,1
1511885034337733,-3,-1,2,0,2,4,0,-4
1511885034337733,-2,-3,-1,2,1,3,2,2
1511885034351769,-1,3,-2,3,2,-1,-1,-1
1511885034351769,0,0,-3,-12,0,1,-3,-1
1511885034359932,0,-3,5,12,5,2,-3,-1
1511885034359932,3,-8,-6,-2,-2,-4,0,2
1511885034374093,-2,0,-5,2,-4,-4,-1,-4
1511885034374093,-5,-4,1,1,2,-3,0,-3
1511885034381994,-4,1,-1,-9,-2,0,-5,0
1511885034381994,-1,-1,-2,0,-1,-2,-1,1
1511885034397149,2,-1,2,-3,-1,1,-1,-2
1511885034397149,-1,2,3,-1,-2,-1,1,-4
1511885034398042,-2,-1,-1,-2,-3,-1,0,-2
1511885034398042,-1,-2,5,7,0,2,-1,-2
1511885034411357,-4,4,-3,1,-2,0,-2,1
1511885034411357,0,2,-1,-3,-1,3,0,0
1511885034420277,0,1,-1,6,0,2,-2,0
1511885034420277,1,1,-2,-2,-4,1,1,0
1511885034434298,0,-3,8,-2,1,4,2,1
1511885034434298,-1,-3,-7,3,-3,-2,-1,1
1511885034442321,-4,2,-3,0,-2,2,0,1
1511885034442321,0,2,-2,-4,-2,-2,-3,-2
1511885034457400,0,-3,1,8,7,-1,-1,-1
1511885034457400,0,-3,-1,-1,-6,-3,0,-1
1511885034458364,3,-2,-2,-3,-1,-3,0,1
1511885034458364,-1,2,-1,-4,2,4,-2,0
1511885034471594,1,1,5,-2,-7,-2,0,-2
1511885034471594,-3,-1,-4,4,8,-1,3,-1
1511885034479419,0,0,-1,1,0,-1,-1,-1
1511885034479419,-3,-5,2,-2,-1,-3,1,-1
1511885034494633,-2,-2,-5,-3,-3,-3,-3,0
1511885034494633,-2,-2,-4,-3,-1,-1,0,-2
1511885034502480,-1,-4,8,2,-6,1,0,-1
1511885034502480,0,4,-1,3,2,0,-1,0
1511885034517541,-1,-5,-6,2,1,-2,-2,-1
1511885034517541,0,1,4,0,-1,-2,-2,2
1511885034517541,0,-2,-10,-9,3,1,-2,-2
1511885034517541,-4,1,4,11,-3,1,1,0
1511885034531627,3,0,-3,-3,0,0,0,2
1511885034531627,0,2,4,1,-1,-3,-2,1
1511885034539693,0,0,-3,0,0,-1,0,0
1511885034539693,-1,-1,0,-4,0,0,-1,0
1511885034553725,1,1,-3,-3,-2,1,1,-2
1511885034553725,0,-2,3,7,4,2,-1,-2
1511885034562708,-3,0,-2,0,-1,-2,-1,-1
1511885034562708,3,-3,0,-5,-4,-5,1,1
1511885034577750,-1,-5,3,0,-2,0,-2,0
1511885034577750,3,-1,-4,-2,-7,2,-2,0
1511885034577750,2,0,4,3,2,-3,0,1
1511885034577750,3,1,-5,1,-3,3,4,-1
1511885034591788,-4,0,1,-2,-3,-1,1,-3
1511885034591788,2,-5,-6,-7,-4,-2,0,0
1511885034599022,-3,-2,4,9,-3,-1,-2,-4
1511885034599022,-1,4,-2,3,-1,-1,-1,3
1511885034614062,1,2,-1,-3,2,0,-1,0
1511885034614062,-2,1,3,1,3,2,2,-1
1511885034622265,1,-1,-4,-3,-6,0,-1,-1
1511885034622265,-1,-1,-2,0,-2,1,0,-1
1511885034637123,-2,0,-1,1,5,-2,-1,-2
1511885034637123,0,1,3,-2,0,0,-3,0
1511885034638122,0,0,-3,2,1,1,-1,1
1511885034638122,-2,-4,3,0,-1,0,-3,-4
1511885034651160,-2,-3,-7,0,-2,0,-2,1
1511885034651160,-1,1,0,1,-3,1,-2,-1
1511885034660185,-1,-3,0,-4,0,-2,-1,0
1511885034660185,-2,-1,-1,0,-1,0,1,0
1511885034674362,-1,-1,3,3,-1,-1,0,0
1511885034674362,-3,-2,-2,-5,0,1,0,-1
1511885034682343,-1,1,-2,4,-1,1,-1,0
1511885034682343,0,-2,-5,-2,-2,-2,-3,-3
1511885034697283,3,-5,0,-1,-3,1,-1,-3
1511885034697283,-2,0,-1,3,-2,-5,0,2
1511885034698286,0,1,-2,-5,-3,0,2,0
1511885034698286,0,0,1,0,0,-1,0,-1
1511885034711492,0,0,-2,-6,0,1,-1,-1
1511885034711492,-3,-1,-1,4,0,2,1,-3
1511885034719431,0,-1,0,-1,1,-4,0,-1
1511885034719431,-2,0,3,-5,-5,-3,-4,1
1511885034734382,-1,-1,0,2,0,0,-2,0
1511885034734382,-2,1,2,-3,-3,-1,3,-1
1511885034742403,0,0,-5,0,4,-1,2,-1
1511885034742403,0,-2,-1,2,2,3,-2,-1
1511885034757645,-3,0,-6,-3,1,-1,-3,-1
1511885034757645,0,-4,-4,-1,0,1,1,-3
1511885034758443,-1,3,2,0,-3,-5,-4,0
1511885034758443,-1,0,-3,0,6,1,1,0
1511885034771480,-2,2,-4,2,-1,3,1,2
1511885034771480,4,1,-1,0,-1,-2,-2,-1
1511885034779502,-2,-2,-1,0,-1,3,1,-1
1511885034779502,-3,-3,-1,2,6,1,-2,-2
1511885034794564,0,-2,1,3,-3,-2,-1,0
1511885034794564,0,2,-3,-1,-1,2,-1,-1
1511885034802603,-2,-2,2,-3,-3,0,0,-1
1511885034802603,2,2,0,-7,-4,2,-3,-1
1511885034817701,1,-1,-1,2,-2,-2,3,1
1511885034817701,2,-1,1,-1,-2,-2,-1,-3
1511885034817701,-2,1,-1,3,2,-2,-1,0
1511885034817701,-2,0,1,3,3,-2,2,-1
1511885034831897,0,-1,0,-1,-2,1,1,0
1511885034831897,-4,1,-2,2,1,2,0,1
1511885034840225,2,-4,0,-4,-5,-2,-1,0
1511885034840225,-3,-3,0,0,1,-1,0,-3
1511885034854195,0,-1,-4,-1,4,2,1,-2
1511885034854195,2,0,-3,-1,-1,-2,-1,0
1511885034862356,-3,-1,3,0,1,-1,1,0
1511885034862356,2,-1,-2,-2,-5,0,-1,3
1511885034876318,0,0,1,7,8,0,-2,-2
1511885034876318,-4,-3,1,-3,-2,-2,-1,2
1511885034884316,1,-1,-1,1,-2,3,-1,1
1511885034884316,0,0,-4,-5,-4,-4,-2,-1
1511885034891586,-2,4,-1,-4,-4,-1,0,-3
1511885034891586,-1,0,-4,4,1,0,2,1
1511885034898575,-1,-3,0,-2,3,-1,1,-1
1511885034898575,0,-2,1,0,1,0,-1,-2
1511885034913615,-1,-3,-6,-1,3,2,-1,-3
1511885034913615,2,0,4,1,0,2,-2,-2
1511885034922832,-2,-1,-4,-1,-1,1,0,-3
1511885034922832,-1,-1,1,-1,-1,2,-4,0
1511885034936790,-2,-2,-2,-1,-5,-3,0,0
1511885034936790,1,-2,-4,-1,-2,2,-2,0
1511885034944824,1,-3,4,-1,0,-2,0,-5
1511885034944824,0,0,-1,-2,-6,-2,7,2
1511885034951716,1,0,5,6,8,0,-2,0
1511885034951716,-4,-1,1,-2,-3,-1,0,1
1511885034958868,0,2,-2,-2,-4,-1,0,0
1511885034958868,-2,0,-3,-1,-2,-2,-1,-1
1511885034974145,-1,-2,0,0,-6,4,0,2
1511885034974145,2,-4,0,-4,-3,-3,-1,0
1511885034982111,-2,-1,1,-1,2,1,-1,-1
1511885034982111,0,2,-2,0,-1,-1,-1,-1
1511885034996192,-3,-2,3,-4,-4,-1,1,1
1511885034996192,-1,1,1,3,1,-2,-2,2
1511885035005191,-3,-1,0,1,-7,1,0,1
1511885035005191,-1,-3,2,1,1,2,-1,-3
1511885035019314,-2,-2,-5,-3,-2,0,0,-4
1511885035019314,0,0,-1,-2,0,1,0,-3
1511885035020295,-1,0,-2,-2,-1,-2,-1,-2
1511885035020295,0,-1,1,1,2,1,0,2
1511885035034421,-4,2,0,-5,-4,-2,1,0
1511885035034421,-3,-2,-1,-1,1,-2,0,-2
1511885035042326,1,-4,-1,0,3,0,0,1
1511885035042326,0,1,-3,2,-1,-2,-2,-1
1511885035056356,-2,0,2,-1,2,-1,0,-1
1511885035056356,0,0,0,-1,-3,0,-2,0
1511885035064538,0,1,-2,5,2,-1,-3,0
1511885035064538,2,-1,-2,-1,-3,-2,5,-3
1511885035079452,3,0,0,-1,0,-1,-5,0
1511885035079452,-2,-1,-2,0,0,1,0,1
1511885035080451,-2,-2,-1,-3,3,-1,0,-1
1511885035080451,0,-2,-2,1,-4,-1,-6,0
1511885035094623,-1,2,-5,-2,-2,-1,0,0
1511885035094623,0,-1,0,-2,-1,2,-2,-3
1511885035102513,-1,-1,2,2,-6,-3,-2,0
1511885035102513,-4,1,-1,-1,4,-1,-3,-2
1511885035116548,1,-5,2,0,-1,4,0,-1
1511885035116548,-1,0,-4,0,1,-1,-2,0
1511885035124573,2,-2,-2,-2,-2,-2,-1,-3
1511885035124573,-1,1,1,2,-2,2,0,1
1511885035139646,2,0,0,2,-6,0,0,-2
1511885035139646,0,-4,-3,-1,2,-1,0,2
1511885035140637,-2,-1,-3,0,-1,0,0,0
1511885035140637,0,-3,0,0,-1,-3,1,-3
1511885035153736,0,1,-3,-3,2,-3,-3,0
1511885035153736,-1,-1,-1,0,-1,-2,0,0
1511885035162758,-1,0,-3,-1,1,-4,2,-1
1511885035162758,1,0,-1,-1,1,3,-3,0
1511885035176798,0,2,1,1,-3,0,1,-1
1511885035176798,0,-2,-1,0,-2,0,0,-3
1511885035184815,1,-1,-1,-2,-3,-1,0,0
1511885035184815,-5,0,-3,-4,1,2,0,-1
1511885035199858,0,-2,3,-3,-1,-1,-3,0
1511885035199858,2,-1,2,1,1,1,1,-1
1511885035200861,1,1,-1,0,-3,-3,2,0
1511885035200861,-1,-1,-3,2,2,-2,-1,0
1511885035213896,1,-2,-2,-4,1,0,-4,0
1511885035213896,-2,-2,1,-1,-4,0,2,-2
1511885035222923,2,0,-1,-3,0,3,-2,-1
1511885035222923,-3,-3,0,-2,-3,1,0,0
1511885035237072,-3,1,-5,0,-2,2,2,-1
1511885035237072,-1,1,0,0,1,-3,-1,0
1511885035245979,-2,-5,-2,2,1,4,0,-1
1511885035245979,1,1,-3,-3,-1,-1,-1,1
1511885035259018,-6,-4,4,0,-2,-3,-4,-1
1511885035259018,-1,3,-1,-2,-1,1,-1,-2
