timestamp,emg1,emg2,emg3,emg4,emg5,emg6,emg7,emg8
1512354308495839,2,0,4,3,0,-3,3,-1
1512354308495839,-4,-4,-3,-1,-1,3,-4,-1
1512354308495839,-1,0,3,1,0,0,-2,-2
1512354308495839,1,0,-3,0,3,-3,1,1
1512354308496839,-2,-2,-4,0,-1,-2,-1,0
1512354308496839,-1,-1,-1,-2,-1,-1,-2,-1
1512354308497839,1,0,0,2,1,1,1,3
1512354308497839,0,2,4,2,-2,0,2,-2
1512354308501839,-2,-2,-2,-1,3,0,-4,0
1512354308501839,3,-1,0,-6,-3,-6,-1,-1
1512354308516839,1,2,2,0,-2,-5,3,1
1512354308516839,-6,-4,-1,-3,-2,4,-6,-1
1512354308523839,2,-2,-5,-3,-2,-2,-2,1
1512354308523839,4,4,2,0,2,-1,4,-4
1512354308531839,-2,-2,-3,-3,-2,0,-1,-1
1512354308531839,0,-2,0,-1,-1,-1,1,-1
1512354308547839,-2,-1,-2,-3,1,2,2,-5
1512354308547839,1,-2,-2,0,-2,-3,1,2
1512354308553839,0,-4,-3,-3,1,1,-3,-4
1512354308553839,3,1,-2,1,-3,2,2,3
1512354308561839,-2,0,3,1,0,0,-1,-1
1512354308561839,-2,0,-2,0,-1,-1,-3,-2
1512354308576839,-3,-2,-2,-7,-2,1,0,-4
1512354308576839,0,2,1,2,2,1,-4,-3
1512354308616839,-5,-3,-2,1,0,5,-6,-3
1512354308616839,-2,-4,1,-4,1,-1,-3,-1
1512354308617839,0,3,2,3,1,-1,2,1
1512354308617839,-2,-1,-3,-2,-2,1,0,0
1512354308617839,1,3,-3,-5,-5,0,-1,2
1512354308617839,0,0,-2,-1,-1,-2,1,1
1512354308620839,0,-4,-3,3,-5,1,-1,0
1512354308620839,1,0,2,-6,0,-3,-5,-3
1512354308629839,-2,-2,0,1,2,-2,-1,-4
1512354308629839,1,-1,-1,2,-4,2,3,2
1512354308635839,-3,-2,3,-1,0,0,0,-3
1512354308635839,-1,-1,-4,0,1,0,0,0
1512354308644839,-2,1,0,-2,1,-3,1,1
1512354308644839,-2,-1,0,2,0,-2,-1,0
1512354308657839,0,-2,-2,0,2,2,-2,-1
1512354308657839,1,-1,-3,1,-1,-3,0,1
1512354308666839,5,-1,-2,1,2,0,0,1
1512354308666839,-3,-3,1,-2,0,2,-2,-5
1512354308672839,1,0,-1,-3,-1,-1,-3,0
1512354308672839,0,-2,-3,-2,-2,0,-1,-2
1512354308689839,-1,-2,-2,-4,-1,1,-2,0
1512354308689839,1,-3,-1,-3,-1,0,-2,2
1512354308695839,-2,-1,2,-2,-3,4,-1,-2
1512354308695839,0,0,-2,0,1,2,0,-1
1512354308704839,-4,0,0,0,2,-2,1,-2
1512354308704839,-1,0,0,1,0,-1,0,-1
1512354308717839,-1,-3,-5,-1,-1,1,-2,-3
1512354308717839,-3,-2,-2,-1,-2,3,1,-2
1512354308726839,-2,-1,1,-5,-6,-1,0,-1
1512354308726839,-2,1,-3,-2,-2,-1,1,1
1512354308732839,-1,-1,-4,-5,1,2,-1,-1
1512354308732839,-2,1,4,5,0,-1,-1,3
1512354308749839,-3,-1,-5,2,-3,1,-2,-1
1512354308749839,-2,-1,-3,-3,-1,1,-3,-2
1512354308755839,-1,-2,1,-2,0,-2,-3,-1
1512354308755839,-1,0,-2,-3,-3,-1,-1,-1
1512354308764839,-1,-3,3,-1,0,0,-1,0
1512354308764839,-1,0,-2,-2,-1,0,-1,-2
1512354308777839,-2,2,-1,2,1,-1,-1,-5
1512354308777839,1,-1,-1,-3,-2,0,0,0
1512354308786839,2,-1,-4,-4,-1,-2,0,0
1512354308786839,-3,0,-4,-5,-4,-4,0,-2
1512354308800839,0,2,2,1,-1,0,-1,-3
1512354308800839,-2,-3,3,3,4,0,-2,-2
1512354308809839,-1,-2,-1,3,-3,2,-4,-1
1512354308809839,-1,-1,-1,1,-3,0,-2,-2
1512354308815839,-1,-3,-1,-2,-1,0,-5,0
1512354308815839,0,0,0,0,1,-2,-2,0
1512354308824839,0,1,1,-2,2,-1,-1,-2
1512354308824839,0,1,-1,2,-1,-1,-2,0
1512354308837839,-2,-1,-2,-2,-1,0,-2,0
1512354308837839,0,2,1,-1,-2,-1,-3,-1
1512354308846839,1,-1,4,0,2,1,3,1
1512354308846839,-1,-3,-1,0,1,4,-4,1
1512354308860839,2,3,2,1,0,-2,-1,0
1512354308860839,-3,-3,-8,-3,-3,-2,-1,-4
1512354308869839,1,0,0,1,-2,-4,1,1
1512354308869839,-2,0,2,0,1,2,-1,-1
1512354308875839,-3,-3,-1,-3,-1,-1,-1,-4
1512354308875839,-1,-2,3,1,1,1,0,1
1512354308884839,-1,1,0,1,-1,-2,-2,-3
1512354308884839,0,-5,-1,-1,1,-2,0,-2
1512354308897839,-1,3,1,-2,-2,-3,4,0
1512354308897839,0,0,-2,-5,-1,0,-1,-3
1512354308906839,2,0,-1,-4,0,-2,-6,-3
1512354308906839,2,1,1,-2,0,0,0,1
1512354308920839,-1,0,-6,1,2,2,-1,1
1512354308920839,-1,2,-1,2,-5,-1,-1,-2
1512354308929839,0,-1,0,1,-2,1,1,1
1512354308929839,0,0,2,0,2,-3,-1,-2
1512354308935839,-1,-2,-7,-2,1,-1,-2,1
1512354308935839,-2,0,1,1,-1,1,-1,2
1512354308944839,-3,-2,-1,-2,0,-1,-1,-1
1512354308944839,0,-1,1,-1,1,2,0,-2
1512354308957839,1,-1,0,0,-3,-2,2,0
1512354308957839,-2,-2,2,1,3,1,-4,1
1512354308966839,-1,0,1,-1,0,1,-1,-6
1512354308966839,-2,2,-1,1,0,1,-3,0
1512354308980839,0,3,0,-1,-2,0,0,0
1512354308980839,1,-1,1,-6,-1,2,-1,-1
1512354308989839,-1,-2,-2,1,2,-2,2,0
1512354308989839,-3,0,0,-1,-2,0,0,0
1512354308995839,-5,-3,1,2,2,-1,-2,1
1512354308995839,-3,-1,0,1,0,-1,-2,-1
1512354309004839,0,1,3,0,-1,-3,-2,-1
1512354309004839,-2,-2,-6,-1,-5,0,0,-1
1512354309017839,2,-1,2,-3,0,0,0,0
1512354309017839,-2,-2,-1,1,-2,-2,0,-1
1512354309026839,-2,-3,3,0,1,0,-1,0
1512354309026839,-1,1,-3,-1,-1,-1,0,-1
1512354309040839,1,0,0,0,-3,0,-4,1
1512354309040839,-1,2,-1,0,-1,-3,1,0
1512354309049839,0,-3,-1,-1,-4,1,-1,-1
1512354309049839,0,-1,0,-4,4,3,-1,2
1512354309055839,2,0,1,0,1,-3,-2,-2
1512354309055839,1,-2,-3,-1,-3,-1,0,-1
1512354309064839,-1,0,-4,-1,1,0,0,4
1512354309064839,-1,2,3,4,0,-2,-2,-2
1512354309077839,0,-5,-4,-2,-3,2,-2,0
1512354309077839,-3,1,-3,-4,1,2,-1,-3
1512354309086839,0,1,1,0,-3,1,1,-4
1512354309086839,0,1,-5,-4,-3,-8,0,2
1512354309100839,-5,-1,3,0,2,3,1,-2
1512354309100839,4,-1,2,2,1,-2,-2,1
1512354309109839,-2,-1,-5,1,-1,1,-2,1
1512354309109839,0,-1,4,2,0,2,4,-4
1512354309115839,-2,0,-8,-2,-2,-2,-1,-2
1512354309115839,-3,0,-2,0,-2,-1,-2,-3
1512354309130839,-1,4,-1,-2,0,1,0,0
1512354309130839,-1,1,-2,1,-3,-3,0,1
1512354309137839,0,-2,0,-3,0,-3,-4,-1
1512354309137839,0,-1,0,-2,1,-4,2,-1
1512354309146839,0,-2,-1,2,-3,0,-3,1
1512354309146839,-1,-2,2,-1,1,3,-2,-1
1512354309169839,0,1,1,0,-4,-2,-2,2
1512354309169839,1,1,-1,-4,0,3,-3,1
1512354309170839,0,-4,1,-3,2,-2,0,-2
1512354309170839,3,-2,-3,2,1,-1,0,1
1512354309175839,-1,2,-1,1,2,-2,2,-2
1512354309175839,-3,1,-2,-1,1,2,2,0
1512354309190839,0,0,5,1,-1,1,-2,1
1512354309190839,-2,-2,-2,-3,-1,0,-2,-2
1512354309197839,0,2,-5,-4,1,1,3,-1
1512354309197839,0,-1,0,1,-2,-5,-3,-2
1512354309206839,-2,-1,-5,2,-2,-1,1,3
1512354309206839,-1,1,0,-2,1,-4,-3,-1
1512354309220839,-1,-6,3,1,-2,1,2,-1
1512354309220839,-1,-1,1,-2,1,1,1,-4
1512354309229839,0,0,-4,-6,-1,-3,-3,-3
1512354309229839,2,-1,1,-3,-3,-3,-1,-4
1512354309235839,1,-1,-1,-1,1,-4,-1,0
1512354309235839,-2,-4,1,3,0,3,2,3
1512354309250839,-1,0,0,-1,-2,0,2,-1
1512354309250839,2,0,1,2,1,1,1,-2
1512354309257839,-1,0,-2,-3,-1,-2,0,-2
1512354309257839,1,-1,1,4,-2,-1,-1,-1
1512354309266839,-2,2,1,0,0,0,-3,-2
1512354309266839,0,-1,1,-1,0,6,-1,0
1512354309280839,-2,-2,1,1,0,0,0,-2
1512354309280839,1,0,-8,-1,-1,-2,0,1
1512354309289839,-3,-3,0,0,2,-1,2,-1
1512354309289839,-1,0,5,2,0,2,-1,-2
1512354309295839,0,0,1,1,-3,-1,1,1
1512354309295839,-1,-3,0,-2,-1,0,1,-1
1512354309310839,-1,1,-2,-1,-1,0,-5,4
1512354309310839,-1,-1,-2,-2,-4,-2,-1,-3
1512354309317839,-3,-2,-3,-2,-1,0,0,0
1512354309317839,1,-4,0,1,-2,-2,1,0
1512354309326839,0,-4,-1,1,1,-2,1,-1
1512354309326839,-4,-4,-2,-3,-1,-1,0,-1
1512354309340839,0,2,0,0,-3,2,-4,1
1512354309340839,-1,0,-2,-2,2,-1,0,-4
1512354309349839,1,-4,-2,2,-2,-6,-2,1
1512354309349839,2,0,-1,-5,1,2,-4,1
1512354309355839,1,-2,2,-1,2,-1,-3,-1
1512354309355839,-2,-1,0,1,0,3,-2,0
1512354309370839,1,2,-1,-4,0,2,2,-6
1512354309370839,-3,1,-4,3,1,-1,-1,1
1512354309377839,0,-2,-2,-2,-1,-1,0,0
1512354309377839,1,1,-2,-4,-1,1,0,0
1512354309386839,0,-2,-2,1,-1,-2,-3,-1
1512354309386839,-3,-4,1,-1,-1,-2,0,-3
1512354309400839,-2,0,0,-2,3,-1,-4,-1
1512354309400839,-2,0,-1,-1,-2,3,-1,2
1512354309409839,-1,-1,-2,0,2,2,0,0
1512354309409839,0,-1,-1,0,2,1,-4,-4
1512354309415839,-5,-2,-1,0,0,0,3,1
1512354309415839,-3,0,2,-3,-1,-1,-1,-1
1512354309430839,1,-2,0,1,0,0,0,0
1512354309430839,-2,-3,0,-2,0,0,-1,-5
1512354309437839,-2,0,-3,3,1,1,-1,-1
1512354309437839,-1,-1,2,-1,-3,-1,-1,-2
1512354309446839,-2,-1,-3,-1,-2,0,-3,-1
1512354309446839,-2,-3,-4,-5,-3,-1,3,2
1512354309460839,3,-3,2,0,0,3,-1,0
1512354309460839,1,-1,1,1,2,-3,-1,1
1512354309469839,0,-1,5,1,-1,3,-6,-3
1512354309469839,1,0,-3,0,0,-2,1,1
1512354309475839,-4,-2,2,0,-1,-2,-1,1
1512354309475839,-2,2,-2,0,4,4,-3,-2
1512354309490839,0,2,-4,-4,-2,1,0,-1
1512354309490839,3,2,4,4,-1,-1,3,-1
1512354309497839,-4,-1,-3,-3,-2,-1,-3,-1
1512354309497839,0,1,-3,-2,1,1,-1,-2
1512354309506839,-3,0,-1,-3,2,-1,-4,1
1512354309506839,-4,-3,0,2,0,-3,2,0
1512354309520839,-1,0,1,-3,-3,0,-2,-2
1512354309520839,-3,-2,-3,-3,-1,-3,0,-1
1512354309529839,1,0,7,0,-1,1,0,-2
1512354309529839,0,-1,-4,1,-2,0,-5,-1
1512354309535839,0,1,-1,3,3,-1,1,-4
1512354309535839,1,-2,2,-6,-4,-2,-3,0
1512354309550839,-3,-1,-1,-3,-1,0,3,-2
1512354309550839,-1,0,3,4,0,-3,1,1
1512354309557839,1,3,1,-3,1,-2,-4,-2
1512354309557839,-3,-1,-1,0,2,-1,-2,0
1512354309566839,0,-1,-1,0,-2,1,0,1
1512354309566839,5,1,-6,-5,-2,3,-6,-3
1512354309580839,0,-1,-3,1,3,-1,2,4
1512354309580839,-2,0,-1,3,-1,0,2,0
1512354309589839,0,-4,-4,-6,1,-4,-2,-1
1512354309589839,-1,-1,-3,-1,-1,0,0,0
1512354309603839,-1,-1,4,1,2,0,0,0
1512354309603839,0,0,2,0,-2,2,-3,1
1512354309610839,0,-1,-2,3,0,-6,0,1
1512354309610839,3,-2,-2,-3,1,1,-1,-3
1512354309626839,-1,2,-1,-2,-2,1,-2,-4
1512354309626839,1,-2,-3,1,-3,0,-2,-3
1512354309628839,1,2,-5,-2,0,0,2,-3
1512354309628839,-3,1,0,-2,1,-4,-4,2
1512354309640839,-1,0,1,0,-1,0,1,-1
1512354309640839,2,0,3,1,0,0,-1,3
1512354309649839,-3,-3,-3,2,-2,2,0,-2
1512354309649839,0,-3,2,-2,-2,4,3,0
1512354309663839,4,-1,-3,0,-1,-1,1,-6
1512354309663839,-2,-1,-3,-1,1,1,-3,-2
1512354309670839,1,3,1,2,1,-6,0,0
1512354309670839,-2,4,-1,2,1,1,0,2
1512354309686839,-1,-4,-2,-2,-6,5,0,1
1512354309686839,-2,0,-2,-4,0,-2,2,-2
1512354309688839,1,0,1,1,0,1,2,-1
1512354309688839,-4,1,-4,-2,-2,2,0,0
1512354309700839,2,0,-3,-3,-1,1,-1,1
1512354309700839,0,-3,0,3,2,0,-6,1
1512354309709839,-2,1,-1,-2,-1,-2,-1,-2
1512354309709839,-1,-1,-2,2,0,-1,2,3
1512354309723839,-2,-2,-3,0,-3,-1,-3,2
1512354309723839,3,-1,1,-1,-3,-4,1,-1
1512354309730839,1,-2,3,-1,1,1,2,-3
1512354309730839,-1,1,-3,-3,2,-4,-3,-1
1512354309746839,-1,0,-1,0,0,0,-2,0
1512354309746839,0,1,2,-1,-2,-1,3,-1
1512354309748839,2,-2,-3,-1,-1,-1,-2,-1
1512354309748839,-3,1,1,0,-2,0,-1,0
1512354309760839,-2,0,-2,0,2,0,0,0
1512354309760839,-1,2,-1,1,1,0,0,-4
1512354309769839,-2,2,1,-2,-3,1,-2,4
1512354309769839,-2,-1,-3,0,-1,-3,0,-3
1512354309783839,-1,0,2,1,-3,1,-5,-1
1512354309783839,-4,-5,-3,-2,-3,-1,6,1
1512354309790839,-1,1,3,-1,-1,1,-4,-1
1512354309790839,-1,1,-2,0,1,2,-3,2
1512354309806839,-1,-3,0,-3,-1,-4,4,0
1512354309806839,3,2,1,3,0,-2,-8,-3
1512354309808839,-1,0,0,-3,-5,-1,5,3
1512354309808839,-1,-3,2,-2,2,-1,-3,-3
1512354309820839,-2,3,1,1,-4,-1,2,-3
1512354309820839,-2,-1,1,1,4,0,-2,-1
1512354309829839,-2,-5,-5,3,-1,1,-1,-1
1512354309829839,4,2,-1,1,-2,-2,1,0
1512354309842839,-1,2,0,-6,-1,2,2,-1
1512354309842839,-1,1,-4,-5,-1,-1,-2,1
1512354309851839,1,-2,-1,0,0,0,-1,-1
1512354309851839,1,2,2,-4,0,2,0,1
1512354309866839,1,1,-4,1,0,-1,1,0
1512354309866839,-2,-4,1,-4,-4,1,-1,0
1512354309868839,-3,0,0,0,-2,-2,-3,0
1512354309868839,0,-2,-3,-1,-3,-4,1,2
1512354309880839,-2,-1,-1,-4,3,0,-2,-1
1512354309880839,-2,-3,1,-2,-1,5,3,-4
1512354309889839,0,-2,-2,-1,-1,-3,-1,0
1512354309889839,-3,-2,1,0,-4,0,2,-3
1512354309902839,1,-3,-6,-3,-3,-3,-4,-1
1512354309902839,3,0,-2,-4,1,-1,5,2
1512354309911839,-4,-3,1,1,-2,0,-3,-2
1512354309911839,-1,-2,4,1,1,-3,-2,-1
1512354309926839,-2,-4,-2,-3,1,0,1,0
1512354309926839,0,0,-4,-1,-3,-1,-3,-1
1512354309928839,1,4,-2,1,0,-3,3,1
1512354309928839,0,-3,-1,1,-1,4,-1,0
1512354309940839,-2,-3,7,0,4,0,0,-2
1512354309940839,2,1,-2,1,-3,1,2,-3
1512354309949839,-3,-4,-4,-4,2,2,-5,-1
1512354309949839,-3,0,1,-2,-2,-2,1,-1
1512354309962839,2,2,2,2,-1,0,-3,-1
1512354309962839,0,-2,-3,1,-2,1,5,1
1512354309971839,1,0,-2,-1,-1,2,-2,-3
1512354309971839,-3,0,-1,2,-1,-2,4,0
1512354309986839,0,0,1,-3,-3,0,-1,2
1512354309986839,0,2,3,-2,1,-3,-5,2
1512354309988839,-2,-1,-4,-5,-3,-4,2,-2
1512354309988839,3,-2,0,-1,0,0,3,1
1512354310000839,-3,0,-4,-1,-3,1,-2,2
1512354310000839,-3,1,-1,4,-3,-3,-2,-3
1512354310009839,1,-4,0,-1,-1,-2,2,0
1512354310009839,-1,1,0,1,2,-1,-3,0
1512354310022839,3,1,2,2,-1,1,2,-2
1512354310022839,-1,-3,-5,-2,3,1,-2,1
1512354310031839,1,1,0,0,2,1,0,-1
1512354310031839,0,2,-1,-3,1,0,-1,0
1512354310045839,-2,-3,-4,-2,-1,-2,3,0
1512354310045839,0,-3,-1,-1,1,-3,3,3
1512354310052839,0,-1,2,-3,-2,0,1,0
1512354310052839,-2,-1,-1,2,-2,-1,0,-2
1512354310060839,0,3,0,0,-3,-1,-1,-2
1512354310060839,-2,0,-6,1,1,3,-1,-1
1512354310069839,-2,-2,-2,0,-3,1,3,-2
1512354310069839,0,-2,-1,-1,-2,3,1,0
1512354310082839,-1,-1,3,1,2,0,-3,0
1512354310082839,-1,-3,-3,-2,1,-4,-1,0
1512354310091839,-2,1,0,-2,-2,1,-2,1
1512354310091839,-3,-1,0,1,-2,-3,-1,-1
1512354310105839,-3,-3,-4,-2,-1,-2,-1,-2
1512354310105839,1,0,0,2,2,5,-2,1
1512354310112839,-2,2,1,1,-1,-3,0,1
1512354310112839,1,0,-2,-2,-1,1,-2,-1
1512354310120839,-2,-2,2,-2,-4,-2,3,-2
1512354310120839,-3,-2,-1,2,4,-2,-4,0
1512354310129839,0,-2,4,1,-2,-2,-2,-3
1512354310129839,-5,-4,-4,-3,1,-2,0,-2
1512354310142839,2,3,0,1,-3,-1,-3,0
1512354310142839,-2,-1,-1,-5,-6,-1,0,-5
1512354310151839,-1,0,-2,0,0,0,1,0
1512354310151839,-2,1,1,-1,0,0,-3,0
1512354310165839,2,-1,-2,-1,3,-1,-4,-2
1512354310165839,-2,1,3,0,0,-1,-5,-1
1512354310172839,0,-3,0,0,0,1,0,2
1512354310172839,2,0,-4,-4,0,1,0,0
1512354310180839,-2,0,-2,0,0,-2,-3,-1
1512354310180839,0,-3,3,3,0,-3,-1,-2
1512354310189839,3,1,-1,-2,1,-4,-4,-2
1512354310189839,-2,-4,0,2,0,2,0,1
1512354310202839,-3,-3,-4,0,-1,-1,-2,0
1512354310202839,-1,1,1,-1,-2,-7,5,0
1512354310211839,-2,1,2,3,2,2,-2,-1
1512354310211839,-3,1,-8,-1,-2,-1,-2,-2
1512354310225839,-1,-1,-1,1,0,0,-2,-1
1512354310225839,1,0,-4,-2,0,0,2,2
1512354310232839,-4,0,-5,-3,-3,-3,0,-2
1512354310232839,2,1,6,0,-1,1,-4,2
1512354310249839,2,0,-2,1,-1,2,1,-3
1512354310249839,1,-1,-2,0,-3,0,-3,-2
1512354310250839,-1,-1,-2,1,0,2,3,-3
1512354310250839,2,-2,-3,-2,0,-1,0,-1
1512354310262839,0,1,0,0,2,0,1,3
1512354310262839,-1,-2,0,-5,-3,1,-3,0
1512354310279839,1,1,-3,1,0,-2,-3,1
1512354310279839,0,-2,0,0,-3,-1,-3,-2
1512354310285839,2,-3,0,4,1,-2,2,-2
1512354310285839,-3,-2,2,-3,-2,-1,-3,0
1512354310292839,-1,2,-2,-1,-1,1,-2,-1
1512354310292839,-1,-1,-8,-3,-4,-2,0,-2
1512354310309839,1,-3,-4,-4,1,2,-1,-3
1512354310309839,-1,1,3,2,-3,-1,-4,-5
1512354310310839,3,-1,0,1,-1,-4,-1,-2
1512354310310839,3,-1,2,-2,-2,-3,0,-1
1512354310322839,-4,-1,-1,-3,-3,-4,3,0
1512354310322839,0,-2,-2,-1,2,1,6,-1
1512354310331839,-1,1,0,0,0,-2,0,0
1512354310331839,2,-1,0,-1,3,0,0,-1
1512354310345839,-1,-3,0,0,-6,1,-3,1
1512354310345839,-1,2,0,0,0,0,1,1
1512354310352839,0,-2,0,0,-4,-2,2,1
1512354310352839,-2,-1,3,1,0,1,1,-1
1512354310368839,-3,-2,-2,-2,0,0,-4,0
1512354310368839,-1,1,-1,3,0,6,-3,-4
1512354310370839,1,-1,0,3,-1,2,-3,-1
1512354310370839,-5,-1,-3,1,-5,-2,-1,-2
1512354310382839,-1,0,2,0,2,0,4,2
1512354310382839,-2,0,-2,-6,0,-2,-2,0
1512354310391839,2,0,0,-2,0,0,-1,-2
1512354310391839,2,2,3,-1,-2,0,0,0
1512354310406839,-2,0,-3,-2,0,-2,-1,-3
1512354310406839,-2,0,1,-1,3,0,-3,1
1512354310412839,-3,-4,2,0,-1,-1,-4,1
1512354310412839,-5,-3,-4,-1,1,2,-5,-1
1512354310429839,-1,0,-3,-5,-2,-2,-5,-1
1512354310429839,-3,0,-3,-5,0,-4,-1,-1
1512354310430839,-1,-1,-1,-3,-4,0,1,0
1512354310430839,-2,3,1,2,2,2,1,-1
1512354310442839,1,-3,-1,-2,-4,-2,1,0
1512354310442839,0,0,-2,0,-5,1,1,-1
1512354310451839,-4,-1,-3,-3,3,-3,-4,1
1512354310451839,0,-2,-3,-1,-2,-2,2,0
1512354310466839,1,2,0,1,0,0,3,1
1512354310466839,1,1,3,-1,-2,-1,3,1
1512354310472839,2,-1,-3,1,1,1,0,-1
1512354310472839,-3,1,-2,-4,-1,-1,-1,-1
1512354310489839,1,-2,-3,1,0,-3,-1,0
1512354310489839,1,-1,1,1,-1,-3,-1,-3
1512354310490839,0,0,-1,1,0,-1,4,-1
1512354310490839,-2,-1,3,0,-3,3,1,-1
1512354310502839,-3,-1,0,-1,-2,0,0,-3
1512354310502839,-2,-1,-4,0,-3,0,1,-1
1512354310511839,-1,-2,1,0,0,-3,2,-4
1512354310511839,1,-1,-1,-3,0,-3,-3,-2
1512354310525839,1,-1,5,5,0,-1,-2,2
1512354310525839,-4,-2,-5,-4,-1,2,-3,-1
1512354310532839,-1,1,-1,-3,0,-1,-3,0
1512354310532839,4,-3,0,-2,-1,-3,1,-2
1512354310548839,-2,1,2,0,1,0,-4,-2
1512354310548839,4,-3,-3,-4,-1,2,-2,3
1512354310556839,-2,1,-2,-1,-1,3,-1,0
1512354310556839,-2,2,1,3,-1,-3,-1,0
1512354310562839,3,0,-3,-7,-3,-2,-1,0
1512354310562839,2,-4,1,4,2,1,-1,-3
1512354310571839,-3,-1,1,-4,-1,0,0,-1
1512354310571839,1,-1,-1,-4,0,0,0,1
1512354310585839,-2,-1,2,2,-1,1,-1,-5
1512354310585839,2,2,0,-1,2,-1,-6,1
1512354310592839,2,-2,1,-2,0,0,-2,-1
1512354310592839,-4,2,6,1,2,0,-2,-2
1512354310609839,-3,-1,-7,-5,-2,-2,0,-3
1512354310609839,-4,-2,0,-2,-2,-2,-4,-2
1512354310610839,-3,1,-1,1,-1,1,-2,-1
1512354310610839,-1,0,1,-2,1,-3,0,-2
1512354310622839,-1,2,0,-2,1,-1,-3,0
1512354310622839,1,-3,0,2,0,-5,1,-2
1512354310631839,-1,-1,-1,-4,-1,0,0,-2
1512354310631839,1,0,-1,0,-4,0,0,-1
1512354310645839,-2,0,0,2,-3,-3,1,1
1512354310645839,0,0,1,-3,-2,-2,-2,-2
1512354310652839,-2,-2,-3,-2,-1,3,3,2
1512354310652839,-1,-3,-2,0,-1,-4,1,-2
1512354310669839,-2,-1,-2,0,-2,2,1,0
1512354310669839,0,2,-1,1,-2,-2,0,1
1512354310670839,3,0,0,3,3,2,-1,-3
1512354310670839,-1,0,-4,-2,-3,-1,-2,0
1512354310682839,-2,1,1,3,1,-4,-6,-1
1512354310682839,-2,-2,-1,-2,-2,-2,1,1
1512354310691839,-2,-2,2,-1,-2,-1,-5,2
1512354310691839,-2,-1,-2,0,4,3,-3,-1
1512354310705839,-3,-1,-4,-2,0,1,-4,0
1512354310705839,-3,1,-4,0,-1,-1,-1,0
1512354310712839,-1,0,-3,-6,-1,1,-1,-3
1512354310712839,-4,-3,0,-2,-2,-4,-2,-1
1512354310729839,2,-3,-2,0,-1,1,4,4
1512354310729839,-1,0,3,-2,4,-2,-2,-4
1512354310730839,2,-2,1,0,-2,-6,-1,-1
1512354310730839,1,-1,-1,0,0,-1,1,-1
1512354310742839,2,-1,-2,-1,3,0,-1,-6
1512354310742839,2,-2,-1,-1,0,1,1,3
1512354310751839,0,-1,-2,-2,-2,-2,5,1
1512354310751839,1,0,0,-2,-1,-2,1,2
1512354310765839,-1,-3,0,-1,-2,-3,-1,-2
1512354310765839,-1,-1,-6,0,0,1,1,-1
1512354310772839,-4,-3,0,2,0,-3,0,-2
1512354310772839,-1,-2,0,1,-4,0,-2,-2
1512354310789839,1,-1,1,-3,2,-3,3,-1
1512354310789839,-5,-4,-2,-4,0,1,5,-1
1512354310790839,0,1,-3,1,-3,0,-3,1
1512354310790839,0,0,-3,1,-1,0,1,-4
1512354310802839,-1,-2,-1,-2,-3,-1,1,-3
1512354310802839,0,-2,-3,1,-2,-1,-4,0
1512354310811839,-2,1,0,-1,0,1,-4,0
1512354310811839,-1,0,0,-1,1,-1,0,0
1512354310825839,-1,-1,0,-3,-4,4,-6,0
1512354310825839,2,3,-2,0,-1,-6,-2,-2
1512354310832839,-1,1,0,-1,1,0,-4,-2
1512354310832839,0,-4,0,1,0,-1,-3,-1
1512354310849839,-2,0,-2,2,1,-2,-2,0
1512354310849839,0,-2,3,-1,-1,-1,1,-1
1512354310850839,0,2,-1,-3,1,-2,-2,-1
1512354310850839,1,-1,-1,1,-3,0,-1,-1
1512354310862839,-2,-3,0,0,0,0,25,-3
1512354310862839,-4,2,0,-3,-1,-1,77,0
1512354310871839,-2,-2,-1,-4,0,-4,17,0
1512354310871839,-1,1,-1,-10,-1,1,-12,2
1512354310885839,2,2,1,-6,0,-2,-45,2
1512354310885839,1,-2,1,-1,0,1,-45,0
1512354310892839,2,-1,2,1,-4,-3,-12,2
1512354310892839,-3,-1,-2,3,-2,-2,1,1
1512354310909839,1,0,-1,1,-2,2,7,-1
1512354310909839,0,-2,2,0,-1,-3,-2,2
1512354310910839,-2,-3,0,2,0,-2,6,-3
1512354310910839,-1,-1,-2,1,-1,-1,-3,-1
1512354310922839,-2,2,-1,-2,2,1,6,0
1512354310922839,-2,0,1,1,-2,-1,-7,-3
1512354310931839,4,-4,-4,3,1,2,-4,-3
1512354310931839,0,1,0,-1,0,-1,1,-4
1512354310945839,-2,-1,-3,-2,2,-4,2,2
1512354310945839,3,0,-1,-3,-1,0,-1,1
1512354310952839,3,-2,-3,-2,-2,0,-7,-1
1512354310952839,-1,-2,-2,-2,1,-1,-1,-1
1512354310968839,-2,-2,2,2,-2,-1,-1,-2
1512354310968839,-3,0,-3,-2,0,1,-10,-2
1512354310975839,0,0,1,1,3,2,-1,-3
1512354310975839,-1,0,1,1,1,1,1,1
1512354310982839,-2,3,1,10,-1,-3,-1,2
1512354310982839,-4,2,-2,9,-3,-1,-8,1
1512354310991839,-4,-2,0,2,-1,-3,1,0
1512354310991839,-1,-4,-1,3,0,3,2,-1
1512354311005839,0,-1,-1,-3,-2,0,0,-2
1512354311005839,1,-2,-2,-8,-1,-1,-3,-4
1512354311012839,1,0,-2,-8,-4,-3,1,-2
1512354311012839,0,-2,-1,-9,-2,-1,-8,-2
1512354311028839,2,-4,-2,-7,-1,-1,-3,-1
1512354311028839,1,-1,1,-1,-1,-2,-3,-2
1512354311035839,-4,1,0,0,-1,-1,0,0
1512354311035839,-2,0,0,4,-1,-3,0,2
1512354311042839,2,2,2,1,0,-2,0,-2
1512354311042839,-1,-2,-1,4,0,-2,-1,1
1512354311051839,-1,-1,-1,-1,-3,1,-3,-4
1512354311051839,0,1,0,0,1,0,-1,-2
1512354311065839,0,-1,-1,2,-2,0,1,-2
1512354311065839,-1,-4,1,-2,0,3,-2,-1
1512354311072839,1,0,-4,0,1,-1,-1,3
1512354311072839,0,2,-2,0,0,-1,3,-1
1512354311088839,1,-1,0,-1,-1,2,0,-4
1512354311088839,2,-1,0,-1,-3,-1,-1,-3
1512354311095839,-2,-1,3,2,-5,0,2,0
1512354311095839,-2,-2,-5,-3,-1,-2,2,-1
1512354311102839,0,0,-1,-1,-1,-1,2,3
1512354311102839,1,0,-2,-2,-2,1,-1,1
1512354311111839,0,2,0,0,3,-1,-1,0
1512354311111839,-2,-2,1,-1,-3,-2,-2,0
1512354311125839,-1,1,3,-1,-3,1,-3,0
1512354311125839,-1,1,0,2,3,2,-1,1
1512354311132839,-2,-1,-1,1,-1,1,0,0
1512354311132839,-1,0,0,1,1,1,2,-3
1512354311148839,-1,-1,0,-4,-2,1,1,-1
1512354311148839,0,-1,1,-2,-1,-2,-2,-2
1512354311155839,-1,0,-2,-1,1,1,-4,3
1512354311155839,-2,-2,-1,1,2,1,0,-1
1512354311162839,-4,-1,2,-1,0,2,1,1
1512354311162839,-1,-1,-1,1,1,-1,-1,1
1512354311171839,0,-1,-4,-3,-1,1,-3,-2
1512354311171839,0,1,-1,-1,-1,0,0,1
1512354311185839,-1,-1,-2,1,0,-1,3,1
1512354311185839,-1,-1,2,0,1,2,1,-5
1512354311192839,-1,-1,-3,-1,0,0,-1,-2
1512354311192839,0,0,-5,-2,1,1,-4,2
1512354311208839,1,0,-4,-2,1,3,-1,-3
1512354311208839,-2,-3,-3,-3,-2,-1,2,0
1512354311215839,1,1,7,0,1,1,1,-1
1512354311215839,3,3,4,0,-4,-2,-2,-2
1512354311231839,-1,-3,-2,-1,3,-3,1,-1
1512354311231839,0,0,-3,-4,-4,-5,-4,-2
1512354311233839,-2,-1,-2,1,1,-1,3,-3
1512354311233839,2,-1,1,0,-3,-1,-1,0
1512354311245839,-3,2,1,0,-2,-1,1,-2
1512354311245839,3,-1,0,0,2,1,3,-2
1512354311252839,-1,0,1,-3,-2,0,0,1
1512354311252839,-2,1,-5,-2,-1,1,3,-1
1512354311268839,0,-3,0,0,-1,1,-3,-3
1512354311268839,1,-1,-2,-2,1,1,-3,0
1512354311275839,-3,-2,4,2,1,-1,1,1
1512354311275839,1,0,0,-2,1,0,1,0
1512354311291839,-1,-3,1,-1,-4,3,-1,-4
1512354311291839,0,-3,-4,0,0,2,-1,-1
1512354311293839,1,1,-3,-1,-1,-2,0,0
1512354311293839,0,-2,-2,1,-2,-1,0,0
1512354311305839,-1,0,-3,1,0,-3,-1,1
1512354311305839,2,0,4,1,-2,0,1,-1
1512354311312839,0,2,-3,0,-1,-1,-3,-1
1512354311312839,2,-2,1,-2,1,-3,4,0
1512354311328839,-3,0,1,-1,0,-3,-1,-1
1512354311328839,1,3,6,3,0,0,1,1
1512354311335839,-1,-3,-6,-2,2,1,-5,-2
1512354311335839,-3,0,1,-1,-2,0,-1,-5
1512354311351839,3,2,-4,1,-3,-1,-3,-1
1512354311351839,-2,0,-4,-1,-1,-2,-10,-1
1512354311353839,4,3,2,-5,-5,0,3,0
1512354311353839,-4,-1,1,-6,-4,-1,-8,-5
1512354311365839,1,3,1,-1,-2,1,3,-1
1512354311365839,-3,-3,-5,0,-1,0,0,0
1512354311372839,0,-1,1,0,3,-1,1,0
1512354311372839,1,0,-3,0,0,-1,-5,-1
1512354311389839,-2,1,-3,-3,-3,1,0,0
1512354311389839,-1,0,2,-1,2,2,1,0
1512354311396839,-2,-4,-4,-4,-5,-2,1,1
1512354311396839,-3,-4,2,0,2,0,3,0
1512354311411839,-2,-3,-4,-1,2,1,-3,1
1512354311411839,0,0,0,-2,-2,1,0,0
1512354311413839,1,2,1,7,-5,1,-2,-2
1512354311413839,-1,-3,-1,-1,0,1,-1,-1
1512354311425839,-2,-3,-4,2,3,-1,-5,-3
1512354311425839,-3,-3,-2,-2,-4,-2,0,-3
1512354311434839,0,-3,3,-1,4,1,1,4
1512354311434839,-2,0,-5,8,7,-1,1,1
1512354311448839,3,0,2,-4,1,-1,-4,-2
1512354311448839,-3,2,1,-2,0,0,0,1
1512354311455839,-3,1,-1,0,0,0,-4,-4
1512354311455839,1,-2,2,-2,-5,-2,-1,-2
1512354311471839,0,0,-4,-2,2,0,5,-2
1512354311471839,1,0,2,-3,-1,3,0,-1
1512354311473839,-3,1,0,-1,-1,-6,-1,0
1512354311473839,-2,1,0,-2,0,-2,-2,1
1512354311485839,-1,-2,3,1,-2,1,0,-2
1512354311485839,-2,-4,-6,-1,-3,-5,-2,-1
1512354311494839,-3,0,-5,-2,2,1,-3,-2
1512354311494839,0,-3,-1,-1,-2,0,2,0
1512354311508839,1,3,5,1,-1,-1,1,-1
1512354311508839,-1,1,2,-2,-3,-2,-2,1
1512354311515839,0,-3,-5,-1,2,1,-1,0
1512354311515839,0,-1,-1,-5,-4,-5,0,1
1512354311531839,-3,-2,0,-4,0,3,-3,5
1512354311531839,2,1,1,0,3,-2,4,0
1512354311533839,5,-1,-2,-1,-4,1,-3,-3
1512354311533839,-1,2,-1,-3,-1,1,0,-4
1512354311545839,1,-3,-2,-4,-6,-3,3,4
1512354311545839,-1,-1,-1,4,5,-3,1,0
1512354311554839,-5,-5,0,-1,-1,-3,0,-4
1512354311554839,0,0,-1,2,2,5,3,3
1512354311568839,-2,-4,-1,2,0,-2,-2,-4
1512354311568839,-1,-1,-6,-3,0,-3,-3,0
1512354311575839,0,1,1,-2,-4,-1,3,0
1512354311575839,1,-2,1,-2,-1,-2,-2,-2
1512354311591839,-2,0,-2,-1,0,-1,-1,0
1512354311591839,-2,-1,1,0,0,4,-2,1
1512354311593839,2,-3,-1,1,3,3,-1,-1
1512354311593839,1,0,2,-3,-3,-4,-3,-2
1512354311605839,3,-1,1,0,1,0,-1,1
1512354311605839,1,-2,-5,-1,2,-2,1,-2
1512354311614839,0,-2,-2,-4,-1,-2,1,2
1512354311614839,-1,0,-3,2,1,1,-1,-3
1512354311628839,0,2,0,1,0,-2,3,0
1512354311628839,-1,-2,2,3,-3,-1,-5,-2
1512354311635839,-4,-4,-1,-5,-1,-1,-5,-2
1512354311635839,-1,2,3,0,-4,0,-1,2
1512354311651839,0,-1,1,-1,1,1,-1,0
1512354311651839,5,1,1,0,-5,2,-3,0
1512354311653839,-4,-1,-2,2,-1,-3,1,4
1512354311653839,1,-2,-1,0,1,3,-2,-2
1512354311665839,-1,-1,0,-3,-1,-2,-1,-3
1512354311665839,-4,-1,-5,-3,-1,-4,2,-4
1512354311674839,-1,0,-1,-4,-1,-1,-3,-2
1512354311674839,-1,-2,-2,0,0,0,0,0
1512354311688839,-1,0,-1,0,-2,0,-1,0
1512354311688839,0,1,5,-4,0,0,2,-4
1512354311695839,-3,0,-1,5,-4,0,2,-4
1512354311695839,0,-4,-4,-2,-3,-1,-1,-1
1512354311711839,-1,-1,0,-1,0,-2,-1,-3
1512354311711839,-2,-1,-2,-5,-1,1,0,1
1512354311713839,-2,3,2,-1,0,2,-1,-1
1512354311713839,-2,-2,1,-2,2,-1,-3,2
1512354311725839,2,-1,-3,-3,1,-1,-3,-5
1512354311725839,-2,0,0,2,2,3,-2,-4
1512354311734839,0,-1,-1,-3,1,0,-1,-1
1512354311734839,-2,0,-2,-1,-2,3,0,0
1512354311748839,-2,-3,-1,-1,-2,1,-1,1
1512354311748839,1,1,0,-3,-3,-2,-1,2
1512354311755839,2,-2,1,-1,2,1,0,-1
1512354311755839,-3,0,3,2,0,-3,-1,0
1512354311771839,0,2,-2,2,-3,0,-2,-1
1512354311771839,0,-3,-3,-2,0,0,-1,2
1512354311773839,0,-1,-8,-1,-1,-1,1,0
1512354311773839,2,0,-2,-3,-1,-4,-2,-3
1512354311785839,-2,-1,3,2,3,-2,-2,2
1512354311785839,-1,0,2,-2,-3,0,-3,-1
1512354311794839,0,1,3,-1,-3,0,0,1
1512354311794839,-2,2,0,-1,1,1,2,-2
1512354311808839,0,-1,-5,-1,1,0,-3,1
1512354311808839,2,-2,0,1,0,3,1,-1
1512354311815839,1,0,5,3,3,-4,1,-1
1512354311815839,1,-2,-2,-1,-2,-4,0,0
1512354311831839,-1,3,2,4,-2,-1,2,-2
1512354311831839,0,0,-2,-3,0,-3,-2,-1
1512354311833839,-3,-4,-2,-2,-1,-1,0,-1
1512354311833839,2,-2,-2,-1,4,-1,2,-1
1512354311845839,-1,0,1,-1,-2,-2,1,-1
1512354311845839,-4,-3,-1,3,-1,0,1,-1
1512354311854839,3,2,2,-2,-1,0,-1,2
1512354311854839,2,0,2,1,-3,-4,-2,-2
1512354311868839,-2,-4,0,-2,1,1,-4,-3
1512354311868839,2,-1,-3,-3,-1,-1,0,1
1512354311875839,0,0,-3,2,-2,1,0,2
1512354311875839,-3,-3,-2,0,1,1,-3,-2
1512354311891839,0,-2,-1,-5,1,2,2,-1
1512354311891839,0,0,2,1,1,-4,-1,0
1512354311893839,-2,1,-5,-1,-2,0,1,0
1512354311893839,-3,-2,0,-1,-1,-3,-3,-1
1512354311905839,2,1,-4,-1,-5,-2,1,-2
1512354311905839,1,3,-1,-1,0,-1,0,-2
1512354311914839,1,-5,2,3,0,-4,-2,-5
1512354311914839,-4,-1,-3,-2,1,2,-3,-1
1512354311928839,-2,-3,-2,0,-1,-3,0,1
1512354311928839,-1,0,-1,-1,3,-1,0,-1
1512354311935839,2,0,1,-3,0,4,-2,-2
1512354311935839,0,2,6,5,-2,-1,1,0
1512354311950839,-1,-2,-1,2,2,2,-4,0
1512354311950839,-1,-1,-6,-4,-4,2,-2,-1
1512354311957839,2,1,-2,-3,2,-1,-2,-3
1512354311957839,-2,-3,0,-3,1,1,-2,-1
1512354311965839,1,1,2,-3,-2,-3,-1,3
1512354311965839,0,-1,-1,4,-1,0,-1,-3
1512354311974839,-4,3,-2,-3,-2,0,-3,-1
1512354311974839,-2,2,-6,-1,-1,3,1,0
1512354311988839,-2,0,2,-2,1,1,-1,2
1512354311988839,-2,-1,1,-2,1,-1,0,0
1512354311995839,2,-3,2,0,-1,-2,-3,1
1512354311995839,0,0,-4,-2,-2,0,-1,0
1512354312010839,-4,1,0,-1,2,-3,-1,-1
1512354312010839,-2,1,0,-2,-5,-2,-2,1
1512354312017839,-3,-3,-1,1,0,0,6,-1
1512354312017839,-1,1,-2,-3,1,2,-1,1
1512354312025839,2,0,1,2,-1,1,-2,0
1512354312025839,1,2,-3,0,1,-1,-2,-1
1512354312034839,1,0,0,-2,-1,-2,-3,-2
1512354312034839,0,-1,0,3,1,0,0,-2
1512354312048839,1,-2,-2,0,-2,0,-2,0
1512354312048839,-3,-5,-1,3,-1,-4,-4,-3
1512354312055839,0,-2,-5,-8,-3,1,-3,-1
1512354312055839,0,-4,2,2,-2,-1,0,0
1512354312070839,-1,2,-2,-1,0,0,-1,-5
1512354312070839,0,-1,2,0,-5,4,5,3
1512354312077839,-4,1,-3,-1,3,-2,-2,-2
1512354312077839,1,-1,1,-3,-3,-3,-3,0
1512354312085839,1,-2,1,1,-2,1,-2,-3
1512354312085839,-1,-1,-1,0,-1,4,-1,-1
1512354312094839,0,3,-2,3,-3,-1,-1,-2
1512354312094839,1,-3,1,-4,2,2,2,-1
1512354312108839,3,-3,-1,-2,-1,-2,1,2
1512354312108839,2,3,1,-1,2,-1,1,0
1512354312115839,-3,-1,1,2,1,1,-2,1
1512354312115839,-2,0,-3,0,-4,4,-2,0
1512354312130839,-1,-1,-3,0,0,-1,-3,0
1512354312130839,4,-2,-1,-3,1,-1,3,0
1512354312137839,-1,-5,-2,-3,-3,0,-1,1
1512354312137839,-1,-1,0,0,2,-4,2,-1
1512354312161839,0,-1,-1,-1,0,1,0,-1
1512354312161839,-5,-2,-4,-3,-2,2,-1,-4
1512354312163839,0,1,0,-1,-3,-4,-3,0
1512354312163839,-2,-4,-4,0,-3,-3,2,1
1512354312168839,-2,-2,-2,-3,-1,-1,-2,-4
1512354312168839,0,0,1,-2,-1,-2,-1,-1
1512354312182839,-2,-2,4,2,0,-1,-1,1
1512354312182839,-2,0,-3,1,0,-2,2,1
1512354312190839,-2,0,-3,-5,0,-1,2,-2
1512354312190839,0,-2,-1,0,1,1,-3,2
1512354312205839,-2,1,-2,1,1,0,-2,-2
1512354312205839,1,0,1,-1,0,4,-3,0
1512354312214839,0,-4,-5,-3,-3,-1,-2,0
1512354312214839,-2,-4,0,-3,-1,-1,-3,-2
1512354312215839,0,1,-3,-2,1,1,3,3
1512354312215839,1,-5,0,-1,0,-2,-3,-1
1512354312229839,-2,4,5,4,-2,0,0,-2
1512354312229839,0,-3,-2,3,2,1,-1,-1
1512354312235839,-1,0,-4,-4,-1,0,-1,-3
1512354312235839,-4,0,-2,1,0,-5,-2,4
1512354312250839,-2,1,0,1,-3,-1,-2,1
1512354312250839,-2,-1,2,-3,-1,-2,1,-2
1512354312257839,0,3,-1,1,0,-1,-1,-1
1512354312257839,0,1,-3,1,-3,-1,0,-5
1512354312273839,-2,-2,-4,0,-1,0,-2,0
1512354312273839,-1,0,2,1,-2,3,1,2
1512354312275839,0,-2,1,-1,1,0,-1,-2
1512354312275839,4,-1,1,-1,0,0,-4,-3
1512354312288839,3,-1,0,-1,-2,-2,1,0
1512354312288839,-2,-3,-6,-3,-1,-3,-1,0
1512354312295839,-2,-3,2,-4,-1,2,3,-3
1512354312295839,-1,0,2,0,-3,1,4,0
1512354312310839,-1,-3,-2,-1,1,3,2,1
1512354312310839,3,3,1,1,1,-5,-3,-3
1512354312317839,-1,0,0,-2,-1,-1,-2,2
1512354312317839,0,-1,0,-1,0,-3,-2,-2
1512354312334839,-2,1,-1,-1,-2,1,-2,0
1512354312334839,-4,-2,-3,1,4,0,1,3
1512354312335839,0,0,2,1,-4,-3,-3,-2
1512354312335839,-3,-2,1,-1,0,-1,-1,-1
1512354312348839,3,-1,0,0,-1,1,-1,-2
1512354312348839,0,1,-2,-1,-2,1,0,2
1512354312355839,1,0,3,0,1,0,0,-3
1512354312355839,-2,-1,-4,0,1,2,4,-1
1512354312370839,0,-1,1,-1,2,-1,1,-1
1512354312370839,3,-1,-1,-2,-1,0,-3,-3
1512354312377839,0,-1,0,1,-3,-1,2,0
1512354312377839,0,2,0,-2,0,1,-3,-4
1512354312394839,-4,-1,-7,-7,-2,-3,1,0
1512354312394839,-4,0,2,-1,-4,-3,6,-2
1512354312395839,-3,-4,-2,-3,0,-3,1,1
1512354312395839,-4,-1,-2,0,0,2,0,0
1512354312408839,-1,-2,3,4,1,-2,4,0
1512354312408839,2,-1,-2,-3,-3,3,-3,0
1512354312415839,-2,1,-4,-5,-2,0,0,-5
1512354312415839,0,-1,0,-1,2,-2,-2,0
1512354312438839,0,2,2,1,0,1,-4,-2
1512354312438839,-3,0,-1,2,-1,2,-2,0
1512354312440839,-1,0,-1,1,3,2,0,0
1512354312440839,2,0,-3,1,-3,-1,-3,0
1512354312461839,-1,-1,1,-3,2,-2,4,-2
1512354312461839,1,-4,-1,1,2,-1,-1,-1
1512354312463839,1,0,-2,4,-1,0,-1,1
1512354312463839,0,0,0,-2,-3,-1,0,0
1512354312467839,-1,0,2,3,-4,-4,-1,-1
1512354312467839,3,-3,0,-1,2,-1,0,-4
1512354312484839,-1,-4,-6,-3,2,2,-3,-2
1512354312484839,-2,1,2,0,0,-2,-1,-1
1512354312490839,-1,-1,-4,-5,-3,-2,-1,0
1512354312490839,0,2,-2,-2,1,-1,-3,-1
1512354312505839,-2,-2,1,1,-1,1,1,-1
1512354312505839,3,0,-2,-4,0,3,-1,-3
1512354312513839,-2,-1,1,1,4,1,0,-1
1512354312513839,-1,1,0,-2,-2,1,-1,-4
1512354312515839,1,-1,-2,1,-3,-3,1,-1
1512354312515839,-2,-1,-6,-1,-2,1,0,2
1512354312528839,1,-1,0,1,1,2,0,1
1512354312528839,-2,0,0,0,-2,-1,2,-1
1512354312535839,0,-3,1,-1,-1,1,-4,-2
1512354312535839,-2,-2,2,-5,-3,-1,1,1
1512354312550839,-1,0,2,-3,1,1,-2,-1
1512354312550839,-1,-1,-2,1,1,-2,0,-1
1512354312557839,-2,-2,-5,-2,-2,-1,-1,1
1512354312557839,-2,-3,2,2,-2,-4,-1,0
1512354312573839,1,-1,-3,-2,1,0,-2,-1
1512354312573839,-3,-1,3,0,-6,-2,1,2
1512354312575839,1,-1,0,0,3,-3,-1,4
1512354312575839,4,0,0,3,4,2,-1,4
1512354312588839,-1,-1,0,0,-1,2,-6,-2
1512354312588839,-1,-1,-2,-2,-3,2,0,0
1512354312595839,-1,3,4,-2,-3,-3,1,-1
1512354312595839,-4,0,-1,-3,-1,-2,1,-3
1512354312610839,0,1,-4,0,-1,-3,-2,-4
1512354312610839,-1,2,-2,-1,-2,1,-3,-2
1512354312617839,-1,-2,0,-2,1,0,-1,1
1512354312617839,4,-3,-1,2,0,-1,-3,-3
1512354312633839,1,-1,0,0,-2,-5,2,2
1512354312633839,-2,-1,-4,1,4,-5,-2,1
1512354312635839,-2,-1,-4,-1,-1,0,0,-1
1512354312635839,-1,0,0,-1,3,4,1,-3
1512354312647839,2,-2,-1,-3,-2,-2,0,-2
1512354312647839,1,0,3,2,1,0,-2,3
1512354312656839,-3,0,2,2,-1,-3,-4,0
1512354312656839,-4,0,-3,-4,1,0,-1,-2
1512354312670839,0,-2,0,0,1,0,-3,-1
1512354312670839,2,-1,-4,-4,1,-5,1,-1
1512354312677839,3,1,-2,0,-1,-2,0,0
1512354312677839,-3,0,-1,-1,-2,2,-4,-3
1512354312694839,-1,0,0,-2,-1,3,-2,2
1512354312694839,-3,-2,2,0,2,2,-2,0
1512354312695839,0,-2,-1,0,1,1,-1,-1
1512354312695839,0,-2,-4,-3,-1,-5,-1,-1
1512354312707839,-1,-2,-4,-1,1,2,2,-1
1512354312707839,2,0,2,1,-5,1,0,-1
1512354312716839,2,0,0,3,-2,2,1,-4
1512354312716839,0,0,3,-2,3,0,-2,0
1512354312730839,-4,-1,-2,0,-2,-4,-1,0
1512354312730839,1,-3,-4,-3,0,-2,-1,-1
1512354312737839,1,0,-2,-2,-2,-3,-3,2
1512354312737839,-2,-1,-1,0,-3,-5,0,-2
1512354312754839,-4,-1,1,0,-2,-1,1,-2
1512354312754839,-2,-1,4,0,-2,0,-2,1
1512354312755839,-1,-4,-6,-7,-3,-1,-3,0
1512354312755839,1,1,1,0,1,-4,-1,0
1512354312783839,-6,-2,-3,-1,2,-1,-1,0
1512354312783839,-4,1,2,-3,1,-1,0,-1
1512354312785839,4,1,3,3,0,-1,-1,-4
1512354312785839,-2,-1,0,0,0,-3,0,1
1512354312790839,1,-3,-4,-1,-2,-2,0,1
1512354312790839,-3,-3,1,3,1,-2,2,3
1512354312805839,-4,-2,-1,-1,2,3,-5,-1
1512354312805839,-1,0,-6,0,-5,2,2,-3
1512354312813839,3,3,1,1,0,4,-2,1
1512354312813839,0,-3,-1,-1,-2,2,-2,-1
1512354312815839,-3,-2,0,-2,1,0,1,2
1512354312815839,0,-3,0,0,0,-2,-3,0
1512354312827839,2,-2,-2,-1,-1,-1,-2,-1
1512354312827839,2,-2,-3,-1,-2,0,0,0
1512354312836839,-5,-2,-1,-1,0,0,4,-2
1512354312836839,0,-2,-3,-5,0,0,-1,-1
1512354312850839,-2,2,1,1,-3,-2,-1,-2
1512354312850839,-2,1,-2,2,0,1,-4,-2
1512354312857839,3,-2,-3,1,-3,-6,3,-1
1512354312857839,-2,-2,0,-2,1,3,-5,3
1512354312873839,-2,-1,-3,-4,1,-2,-5,0
1512354312873839,-2,-1,0,1,-2,-1,-1,1
1512354312880839,-3,-3,4,0,-2,3,-1,-2
1512354312880839,-1,-1,-2,4,-3,-2,-3,-2
1512354312887839,2,0,3,-3,3,-1,-1,1
1512354312887839,-1,2,-3,-2,-1,0,-1,-1
1512354312896839,0,-2,-7,-5,2,-4,0,0
1512354312896839,-1,-2,-1,0,0,0,0,-3
1512354312910839,-2,0,1,0,-1,-3,-5,0
1512354312910839,2,2,1,0,0,-1,3,-1
1512354312917839,-2,1,2,1,1,2,-2,2
1512354312917839,-2,-1,2,-1,-3,-2,0,-2
1512354312933839,-1,0,-3,-4,-1,-2,-1,0
1512354312933839,1,-2,0,-2,-2,-1,-2,-4
1512354312940839,0,3,0,-1,-4,-1,-4,-3
1512354312940839,-2,-1,-2,-2,1,-2,2,2
1512354312947839,-2,-5,-1,0,0,2,1,0
1512354312947839,-2,-1,-5,3,0,0,-1,-4
1512354312956839,-1,-2,-2,-2,-1,4,-3,2
1512354312956839,3,0,3,-2,0,2,-2,-1
1512354312970839,-4,-4,-2,0,-2,1,0,1
1512354312970839,0,-1,1,-3,-2,-4,-1,2
1512354312977839,0,-1,1,-1,2,1,1,-1
1512354312977839,-2,-1,2,-1,-2,1,0,1
1512354312993839,2,1,-1,-2,0,-2,-1,-2
1512354312993839,0,-4,-3,-2,1,0,-2,-1
1512354313000839,-1,1,0,0,-2,-3,-5,0
1512354313000839,-2,-2,-3,1,-3,-3,-1,-1
1512354313007839,-1,0,4,1,1,-1,2,-2
1512354313007839,-2,2,-1,-5,-1,2,-2,2
1512354313016839,-4,-1,-4,0,1,1,0,0
1512354313016839,-1,1,1,-4,2,0,0,2
1512354313038839,-1,0,0,3,-3,-3,0,3
1512354313038839,2,2,0,-2,1,0,-2,0
1512354313040839,-1,-1,1,-3,-3,-2,1,0
1512354313040839,2,-1,-2,2,2,-4,-4,0
1512354313053839,2,-1,-2,1,-3,-2,-3,-3
1512354313053839,0,-2,-1,-2,-3,2,-4,-1
1512354313060839,0,3,-1,-2,-2,-1,0,0
1512354313060839,-4,-1,1,1,-1,2,-1,0
1512354313076839,-1,0,0,-1,2,0,0,-4
1512354313076839,-2,-3,1,2,-2,-1,3,-2
1512354313078839,-1,-4,-1,0,0,-2,-1,3
1512354313078839,0,-2,-6,-2,-3,-2,-1,-2
1512354313090839,-3,-1,5,-2,0,2,0,1
1512354313090839,-2,-1,-2,-1,-2,-2,-4,-4
1512354313097839,-1,-2,-2,-4,-3,1,-1,-1
1512354313097839,1,-1,2,2,1,-2,0,1
1512354313113839,0,-1,-7,0,-2,1,3,-1
1512354313113839,0,1,2,-1,1,-2,2,-2
1512354313120839,0,1,0,1,1,-1,0,1
1512354313120839,2,-1,-5,-4,0,-1,3,0
1512354313136839,-2,-2,-4,-1,-4,1,0,-1
1512354313136839,-1,-1,-1,-3,1,1,0,0
1512354313138839,-2,-3,-1,0,-2,0,-2,-4
1512354313138839,2,0,2,-2,1,-2,0,-2
1512354313150839,-1,3,2,-1,-1,-3,-3,1
1512354313150839,-3,0,-1,2,-1,-1,0,1
1512354313157839,1,-1,1,1,1,0,0,1
1512354313157839,1,1,3,1,1,-1,-3,-1
1512354313173839,-2,-1,-3,-2,2,1,-4,-2
1512354313173839,0,-1,-3,-1,0,0,2,-1
1512354313180839,-2,-1,-5,-2,0,0,1,-2
1512354313180839,-3,-3,1,0,2,0,-2,0
1512354313196839,0,2,2,3,2,3,-4,-3
1512354313196839,-4,-2,-2,-1,0,0,-1,0
1512354313198839,0,1,4,2,-1,-1,2,1
1512354313198839,-2,-1,-6,-4,-4,-3,0,-2
1512354313210839,2,-2,-1,-3,2,-2,2,0
1512354313210839,0,-3,-2,-2,-1,0,-3,-1
1512354313217839,1,-1,-1,0,2,1,-1,-5
1512354313217839,-1,1,-1,-1,-4,0,-3,-4
1512354313233839,0,-2,2,-1,-3,-1,-1,-3
1512354313233839,-2,0,1,-4,-1,0,-3,0
1512354313240839,-3,1,-4,-1,-1,0,-4,1
1512354313240839,0,0,2,1,2,3,2,-2
1512354313256839,0,-2,-1,3,-1,1,-1,0
1512354313256839,1,-2,3,2,-3,2,-1,-2
1512354313258839,-1,-3,-1,-1,0,0,2,-1
1512354313258839,-3,0,-3,-6,1,0,-2,0
1512354313270839,2,-2,1,-1,0,-3,0,-2
1512354313270839,0,2,-3,-2,-3,1,-4,-1
1512354313279839,1,1,-1,0,0,3,-3,2
1512354313279839,-2,-1,-1,3,-2,0,-1,2
1512354313293839,-2,0,-5,0,1,1,0,2
1512354313293839,2,-4,0,3,1,0,-3,2
1512354313300839,0,-3,-1,-1,-2,-5,-2,-2
1512354313300839,0,-2,-1,0,-2,3,1,-2
1512354313316839,-4,-2,0,0,-1,0,2,2
1512354313316839,2,-2,0,0,2,-6,1,0
1512354313318839,-1,-2,-3,-3,0,1,0,0
1512354313318839,1,3,1,0,0,4,0,-1
1512354313330839,0,-2,-5,-1,-2,0,-2,1
1512354313330839,-3,0,-1,0,2,2,0,-2
1512354313339839,-3,0,-2,0,-1,-4,-1,-2
1512354313339839,-1,-3,0,-6,-1,0,0,3
1512354313353839,0,-1,0,0,-5,-3,-1,-2
1512354313353839,1,0,0,-2,-1,3,0,-3
1512354313360839,0,0,3,2,1,0,1,-1
1512354313360839,-2,-1,-5,2,-2,-1,-1,-2
1512354313376839,-3,1,0,-3,1,-1,0,-1
1512354313376839,-3,2,-1,0,-3,-3,-3,-5
1512354313378839,2,2,4,-6,-2,1,2,-1
1512354313378839,1,-1,-2,-1,-1,-1,-6,-1
1512354313390839,1,0,1,1,-2,-2,1,2
1512354313390839,-1,-1,-1,-1,-1,0,1,0
1512354313399839,2,-2,-5,-2,-4,0,-4,0
1512354313399839,0,1,-6,-3,1,-2,-1,-2
1512354313413839,-1,-3,3,-3,-3,0,0,-2
1512354313413839,2,0,5,-2,0,1,0,1
1512354313420839,-3,-3,-2,1,0,-3,-1,3
1512354313420839,-2,1,-2,0,-1,-2,-2,-1
1512354313436839,-4,2,0,0,-2,2,-5,-1
1512354313436839,-1,2,1,0,-3,-4,2,0
1512354313438839,1,-3,0,-3,-3,0,4,-2
1512354313438839,-1,1,2,-2,3,-2,-1,2
1512354313450839,-2,0,-5,-2,2,2,0,1
1512354313450839,-1,-3,-3,-3,-1,-1,-3,2
1512354313459839,-2,3,0,-1,-1,0,-2,1
1512354313459839,1,1,4,1,0,0,0,-4
1512354313473839,-2,-3,0,-1,-3,3,-2,-1
1512354313473839,2,-2,-3,-3,-3,-1,-1,-3
1512354313480839,-1,1,-5,3,1,0,-1,0
1512354313480839,-1,1,0,-3,-2,0,0,0
1512354313496839,-1,0,0,1,1,-2,1,0
1512354313496839,-2,1,1,2,1,2,0,-1
1512354313498839,0,-5,-3,-1,1,-1,-5,0
1512354313498839,-5,-1,-1,2,0,-4,0,-1
1512354313510839,0,0,-2,0,-2,1,-2,-3
1512354313510839,-1,-2,-3,-1,0,0,-1,-1
1512354313519839,2,-2,1,-2,-2,-1,-5,-5
1512354313519839,3,-2,-1,-3,0,-3,-1,1
1512354313533839,-3,1,1,-3,0,-4,-1,-1
1512354313533839,0,-4,-3,3,1,-3,1,2
1512354313540839,-6,-3,0,0,-2,-1,-5,-3
1512354313540839,-1,-1,-4,0,-1,5,1,1
1512354313556839,0,-1,2,-3,0,1,1,2
1512354313556839,-3,-2,-2,-5,-1,-2,-1,-3
1512354313558839,-1,-1,1,2,0,-1,-1,1
1512354313558839,0,-4,-3,-1,-4,-3,-6,-1
1512354313570839,0,0,-1,2,0,1,-3,1
1512354313570839,1,1,3,-1,-2,0,2,-1
1512354313579839,1,2,1,3,-1,-3,2,1
1512354313579839,0,-2,7,2,0,-2,-2,-1
1512354313593839,0,-2,-3,0,-2,-1,0,-3
1512354313593839,-1,-1,-5,-4,4,-1,-3,1
1512354313607839,-3,-1,-2,-3,0,-3,0,-4
1512354313607839,0,-1,-1,3,-1,1,1,0
1512354313616839,-1,-1,0,-1,-1,2,-2,0
1512354313616839,0,0,-3,0,2,2,-1,-1
1512354313618839,-1,-4,-3,-3,-2,2,3,-3
1512354313618839,-1,-2,7,3,1,-1,1,-2
1512354313630839,-2,-4,-10,-4,0,1,-4,0
1512354313630839,0,0,-7,0,-2,0,-4,-2
1512354313639839,-1,1,0,-4,-1,1,1,0
1512354313639839,-1,-2,-1,-1,0,-2,1,2
1512354313653839,-2,1,4,2,0,0,0,-4
1512354313653839,4,0,7,2,-2,-2,-1,-3
1512354313660839,-3,-2,-3,2,-3,2,-2,-1
1512354313660839,0,-1,-2,-4,-3,2,2,4
1512354313676839,2,-6,-5,-6,-1,-1,0,0
1512354313676839,0,-1,-1,-2,-2,1,-2,0
1512354313678839,-4,-3,6,1,2,-3,-2,-3
1512354313678839,-2,5,-2,1,2,3,-1,-4
1512354313690839,-2,1,-3,-2,-2,-1,0,-2
1512354313690839,-2,-5,0,-4,-3,-3,0,4
1512354313699839,1,2,-3,-5,-1,1,-3,-2
1512354313699839,-4,-4,-4,0,-2,-1,0,-1
1512354313713839,2,0,3,0,0,-4,0,-2
1512354313713839,-2,2,2,3,1,-2,0,-1
1512354313720839,-1,3,-1,0,-1,2,-1,6
1512354313720839,-1,-2,1,-1,-2,2,-4,-3
1512354313736839,0,-1,-3,1,2,-2,-1,0
1512354313736839,-4,-2,-1,0,-3,-1,0,0
1512354313738839,0,1,5,1,1,-5,-1,-4
1512354313738839,-2,-2,-7,-1,-3,-4,-2,-1
1512354313750839,-3,0,2,-2,-2,-4,-1,-1
1512354313750839,0,-2,0,-5,1,-1,-1,0
1512354313759839,-1,-2,-6,1,0,4,2,-2
1512354313759839,-1,1,1,-5,1,4,0,-2
1512354313773839,2,1,-1,3,-1,1,3,-2
1512354313773839,-1,1,-2,-1,1,-1,0,-4
1512354313780839,-1,-3,0,-3,-5,-3,1,-2
1512354313780839,-2,-2,-3,-5,0,-3,2,2
1512354313796839,-1,-1,-2,-2,0,0,-4,3
1512354313796839,2,2,5,2,1,-2,-2,-3
1512354313798839,0,1,3,3,0,-1,0,2
1512354313798839,0,0,-1,3,-3,0,-2,-2
1512354313810839,0,1,0,-8,1,1,2,0
1512354313810839,0,-2,2,-1,-3,-1,0,3
1512354313819839,-1,1,-2,3,1,3,-4,-1
1512354313819839,-2,0,0,-3,0,-1,0,-3
1512354313833839,-1,1,-3,1,-3,1,-1,1
1512354313833839,-2,-3,-6,-6,-2,0,0,2
1512354313840839,0,-1,0,0,0,2,0,2
1512354313840839,-1,-1,-1,2,1,-1,0,2
1512354313855839,-2,-2,1,1,1,-1,-3,-2
1512354313855839,-2,1,-1,1,-1,2,-1,-3
1512354313862839,2,2,0,-4,-3,-5,0,-2
1512354313862839,1,-3,0,-4,0,1,1,-4
1512354313870839,-1,-5,-2,1,-1,5,-1,1
1512354313870839,0,0,-2,-2,-1,4,1,2
1512354313879839,0,-3,1,-3,0,-4,-3,1
1512354313879839,0,2,4,-1,1,-8,0,1
1512354313893839,-1,2,0,-1,0,-5,2,-3
1512354313893839,0,-2,-5,2,-1,0,-1,-1
1512354313900839,-3,-3,1,-1,2,6,-1,0
1512354313900839,1,3,0,-1,-2,1,-1,0
1512354313915839,1,-1,3,1,1,1,0,0
1512354313915839,-4,0,1,3,0,2,-1,1
1512354313922839,-3,-2,-1,-3,1,-3,-1,-1
1512354313922839,0,-3,1,2,2,0,-4,2
1512354313930839,-2,0,-2,1,-2,-1,-1,-2
1512354313930839,-1,-1,0,-3,1,-2,-1,-2
1512354313939839,1,-1,-4,2,1,0,-1,-2
1512354313939839,-2,-4,3,0,0,0,-2,-2
1512354313953839,4,0,-1,-3,-1,4,1,1
1512354313953839,-2,0,-5,-4,-1,7,5,2
1512354313960839,0,1,-6,0,-1,-4,3,1
1512354313960839,-4,0,2,1,-2,-4,-2,0
1512354313975839,0,1,4,0,4,-7,-6,-3
1512354313975839,1,1,0,-3,-5,-4,-3,-4
1512354313982839,1,-6,-3,-3,0,2,-5,0
1512354313982839,1,4,-3,-2,-1,3,-4,-2
1512354313998839,-4,-2,0,1,0,2,-3,1
1512354313998839,-1,0,-3,0,2,3,-6,-1
1512354313999839,-6,1,5,1,0,-4,1,-1
1512354313999839,-1,-1,-3,-2,-1,-1,0,-2
1512354314014839,-2,-1,0,2,-4,3,6,-2
1512354314014839,-1,-5,-10,-4,-1,2,1,1
1512354314020839,-4,-4,-3,-7,1,10,-5,-1
1512354314020839,1,0,-3,1,0,0,-5,-1
1512354314035839,-1,2,1,-3,-1,-2,-6,-2
1512354314035839,1,1,6,3,-1,-8,-1,-3
1512354314042839,0,-1,-1,1,-4,-3,4,-1
1512354314042839,0,0,-9,-4,-1,2,-4,-2
1512354314058839,-2,1,-5,-7,-2,0,-1,-2
1512354314058839,-1,-3,4,2,1,-7,1,3
1512354314059839,1,0,8,2,1,-4,0,-3
1512354314059839,-3,-3,2,5,-1,3,1,-2
1512354314074839,-2,-6,-3,-2,-1,1,-2,2
1512354314074839,-5,4,-2,-7,-3,5,-2,0
1512354314080839,-2,-2,-6,-1,0,-1,-1,-4
1512354314080839,0,0,1,-1,2,0,2,1
1512354314095839,1,0,3,3,-1,-2,-2,-2
1512354314095839,2,-1,2,0,-1,1,4,0
1512354314102839,-2,2,-1,-1,-2,-3,0,1
1512354314102839,-3,0,-4,-3,-2,-3,-3,0
1512354314118839,-2,0,2,4,0,-6,-2,-1
1512354314118839,-2,0,1,3,0,-1,-4,-4
1512354314119839,-3,2,-5,-3,0,6,1,2
1512354314119839,0,1,-4,-7,-6,2,1,0
1512354314134839,-4,-3,0,-2,0,5,0,1
1512354314134839,0,-1,2,3,0,2,0,-2
1512354314139839,1,1,5,4,-2,-1,-2,1
1512354314139839,1,-5,-2,-1,0,-2,-2,-2
1512354314155839,-1,-4,-3,-1,-2,-2,1,0
1512354314155839,0,0,-1,2,4,-1,-1,0
1512354314162839,-1,-2,0,1,-2,-1,2,3
1512354314162839,-2,-5,1,2,1,-1,-2,0
1512354314178839,0,2,0,-3,-1,0,-1,-4
1512354314178839,1,-3,-4,0,-1,-1,-1,1
1512354314179839,-1,-2,-9,-6,-2,3,-4,-2
1512354314179839,4,0,-1,0,3,-1,0,2
1512354314193839,-1,1,1,0,-2,3,4,-1
1512354314193839,-2,2,1,0,1,0,7,1
1512354314200839,1,0,-2,-2,0,-1,8,-2
1512354314200839,1,3,8,0,-6,-4,-5,1
1512354314216839,-1,-1,-5,0,0,-2,-7,1
1512354314216839,0,-1,-1,-6,1,-1,-6,-2
1512354314222839,1,0,-1,0,1,-2,-6,-1
1512354314222839,1,0,-1,-1,-3,2,2,0
1512354314238839,-2,0,6,5,3,0,0,0
1512354314238839,-4,1,-1,-3,-2,-2,-1,-4
1512354314238839,1,-5,0,0,3,-2,-1,-3
1512354314238839,-5,-1,-3,2,-1,-1,1,-1
1512354314253839,2,2,-1,-5,1,0,0,-1
1512354314253839,0,-1,-3,1,-2,-1,-1,-2
1512354314260839,-2,2,1,1,-3,-1,-3,0
1512354314260839,-4,0,1,-2,3,3,3,-3
1512354314276839,-1,-3,-6,0,-1,-2,4,-2
1512354314276839,-3,1,1,1,1,-2,2,3
1512354314282839,0,-1,2,2,-1,0,-4,0
1512354314282839,-2,-2,-1,0,-1,3,-1,-4
1512354314298839,0,1,-2,-1,0,-5,1,-3
1512354314298839,1,-4,0,-1,-1,2,-7,2
1512354314298839,-2,0,-4,-3,-3,-3,0,-2
1512354314298839,-1,0,-2,0,2,0,-2,2
1512354314313839,0,-3,1,0,2,-1,2,0
1512354314313839,1,-1,-2,0,-1,1,-1,-2
1512354314320839,3,5,-1,-6,-3,-4,-1,0
1512354314320839,1,-1,-4,-1,-1,-2,0,-2
1512354314344839,0,1,1,0,1,-1,-1,-3
1512354314344839,0,-2,0,2,-2,-1,2,0
1512354314345839,-1,0,1,0,-3,-1,-1,-2
1512354314345839,-3,0,3,-1,1,-1,4,-2
1512354314358839,2,0,0,0,1,3,-1,2
1512354314358839,0,-1,1,-5,0,0,1,-2
1512354314358839,-2,-2,-4,0,3,4,-2,1
1512354314358839,2,-1,-2,-1,-5,-4,-3,-2
1512354314374839,-2,1,0,-1,-1,3,-8,1
1512354314374839,0,-1,-4,-2,-2,-1,-3,0
1512354314380839,0,-4,1,2,0,2,-4,-1
1512354314380839,-2,1,0,-1,2,1,-3,0
1512354314396839,-4,1,-2,-1,-6,-1,2,1
1512354314396839,-1,-2,0,1,-1,-2,-1,-2
1512354314410839,0,2,-2,-1,-1,5,1,0
1512354314410839,-5,-1,1,-2,1,2,-2,-1
1512354314418839,-1,0,-1,0,-4,-1,-1,-2
1512354314418839,3,-2,0,-1,-2,2,1,-2
1512354314418839,1,0,3,1,-1,-4,0,-2
1512354314418839,0,0,1,-1,-4,-1,2,-1
1512354314433839,-2,1,-3,-3,3,2,-2,1
1512354314433839,-2,0,-2,-2,-4,-5,-1,0
1512354314440839,-3,-1,1,-2,-1,-1,2,-2
1512354314440839,3,2,-1,1,1,2,-4,-3
1512354314456839,1,0,0,-2,-3,0,-5,0
1512354314456839,0,1,-3,-4,0,-4,0,-1
1512354314462839,-1,-5,-3,-1,3,2,-2,0
1512354314462839,1,1,-3,-3,-1,-2,-2,2
1512354314478839,3,-1,-1,2,-2,0,5,-5
1512354314478839,-3,-2,-1,-2,0,3,-2,0
1512354314478839,1,-1,-1,-1,-4,2,-2,-3
1512354314478839,3,-2,-2,2,0,-1,-4,-1
1512354314493839,3,-3,-1,-1,1,1,-1,1
1512354314493839,-2,0,-2,-1,0,3,1,-2
1512354314500839,-1,2,1,-1,-2,-4,-1,2
1512354314500839,-3,0,-2,0,-3,1,2,-3
1512354314516839,-1,1,-1,2,-4,-4,3,1
1512354314516839,0,2,0,-1,2,-1,-2,1
1512354314522839,2,-1,2,-1,2,-4,3,-1
1512354314522839,-3,-2,2,5,-1,-3,1,-1
1512354314538839,-2,-2,0,-4,-1,1,-2,2
1512354314538839,-2,-1,0,1,0,0,1,-2
1512354314538839,-3,-1,-3,2,2,2,-1,2
1512354314538839,-2,2,2,1,0,2,-5,1
1512354314560839,-1,-1,-5,2,0,2,-3,2
1512354314560839,-3,0,0,2,-3,1,-1,-2
1512354314561839,2,-3,-1,-1,1,-1,2,-2
1512354314561839,-4,-3,-2,-5,2,-1,2,2
1512354314576839,-1,-2,-2,2,0,-1,1,-1
1512354314576839,-1,-3,-3,-2,-1,1,-5,0
1512354314582839,0,1,0,0,-2,-3,-2,1
1512354314582839,0,-2,-4,-5,-2,2,2,-2
1512354314598839,-2,-3,2,-2,-1,-1,1,-2
1512354314598839,1,0,-3,3,-2,-3,-4,-2
1512354314598839,-4,0,0,-7,0,4,-2,2
1512354314598839,0,-1,0,0,1,-2,-1,0
1512354314620839,1,0,0,-1,1,2,-4,0
1512354314620839,-3,-4,-3,0,-2,4,0,-2
1512354314621839,3,2,3,1,0,0,-3,0
1512354314621839,0,-2,-2,-3,1,1,2,3
1512354314636839,-1,0,0,1,-1,-1,-3,0
1512354314636839,-1,1,0,-1,-2,-5,2,-1
1512354314642839,0,-1,-2,-3,-1,-3,-6,-1
1512354314642839,-1,-1,-1,-1,-3,0,0,0
1512354314658839,1,-4,0,0,0,0,5,1
1512354314658839,-1,-1,2,-1,0,0,-1,-3
1512354314658839,-2,1,-2,-2,0,3,-2,-1
1512354314658839,0,-2,1,1,0,-1,-4,-5
1512354314680839,-1,1,-1,0,-3,-3,3,0
1512354314680839,1,2,1,2,3,-5,-2,1
1512354314681839,-2,1,2,3,0,-1,1,0
1512354314681839,-1,1,0,-2,5,-1,-4,0
1512354314696839,1,-2,-4,-1,0,-2,-2,-2
1512354314696839,2,-2,0,-2,-5,2,0,0
1512354314702839,2,-5,-1,-2,-1,-4,1,-1
1512354314702839,-2,2,1,1,-5,-3,-7,-2
1512354314719839,-1,1,1,-3,1,-5,1,1
1512354314719839,1,-2,0,-6,-1,3,6,2
1512354314720839,0,-2,-2,1,-2,3,-3,0
1512354314720839,1,0,0,2,0,2,1,-2
1512354314740839,-2,-1,2,-1,3,1,-8,-2
1512354314740839,0,0,0,-4,-1,-8,-3,-3
1512354314741839,-2,-3,0,1,0,-3,-3,-4
1512354314741839,-1,-3,0,1,-1,7,-2,1
1512354314756839,-1,-1,-4,2,1,5,2,2
1512354314756839,2,-2,-2,-1,2,7,-4,2
1512354314762839,-4,1,0,-3,-2,2,-2,-1
1512354314762839,1,2,-2,0,2,-2,-4,-1
1512354314777839,0,-1,1,-1,-2,-1,1,0
1512354314777839,1,0,-2,-2,0,1,-1,-1
1512354314784839,0,-1,-1,0,1,4,1,2
1512354314784839,3,-4,-2,-3,-3,0,4,-4
1512354314800839,-2,-3,2,0,-4,-7,3,3
1512354314800839,-1,-1,1,1,2,-5,0,1
1512354314801839,2,-1,-2,0,-1,5,-2,-3
1512354314801839,-3,-1,-1,-1,-1,3,1,0
1512354314816839,0,1,0,-1,0,1,-4,-3
1512354314816839,-8,-1,-1,2,-2,3,3,-2
1512354314822839,-2,-4,0,0,-1,0,0,2
1512354314822839,0,-1,0,0,-1,-3,-2,1
1512354314837839,2,1,-3,1,0,0,-2,-2
1512354314837839,0,2,-1,2,0,-1,-6,3
1512354314844839,3,1,-3,-1,-1,-2,-2,0
1512354314844839,0,-3,0,-4,-3,0,-1,1
1512354314860839,0,-2,1,-2,-2,-1,-2,0
1512354314860839,-1,-1,0,-1,5,-2,2,-4
1512354314861839,0,0,-2,2,0,0,1,2
1512354314861839,-7,-2,-1,0,-1,-3,3,2
1512354314876839,-2,-3,0,-4,-2,3,1,-1
1512354314876839,-3,-3,0,1,-4,1,-3,-2
1512354314882839,2,0,0,0,3,5,-13,-5
1512354314882839,0,3,-3,-1,1,-3,0,-2
1512354314897839,-2,1,0,-2,-3,-2,-1,-3
1512354314897839,-2,-1,0,-1,-2,-8,2,2
1512354314904839,1,0,-2,0,0,0,3,-4
1512354314904839,-2,-3,-2,0,-3,-4,2,-1
1512354314920839,2,-2,-1,0,-1,0,0,-1
1512354314920839,1,1,0,0,-2,3,1,-3
1512354314921839,0,0,-1,-3,-3,-7,2,2
1512354314921839,1,1,0,-2,1,-2,3,0
1512354314936839,-4,0,-2,1,-4,-2,1,-2
1512354314936839,2,-2,-2,0,-2,-3,-4,-1
1512354314942839,0,0,2,-1,-3,-2,1,7
1512354314942839,3,3,-1,-2,0,0,-1,40
1512354314957839,-1,-3,-2,-3,2,3,-3,45
1512354314957839,-3,-1,-2,-4,-3,1,-3,81
1512354314964839,-5,-1,1,4,-1,-4,7,-93
1512354314964839,1,0,1,4,-3,-3,0,-109
1512354314980839,0,-2,2,0,0,4,2,-126
1512354314980839,-2,2,-1,2,-5,2,1,-67
1512354314981839,1,2,-1,0,1,0,-2,26
1512354314981839,-3,-4,0,1,-2,-2,0,26
1512354314996839,-1,1,-1,2,0,-1,-5,43
1512354314996839,3,4,0,-2,2,-3,2,27
1512354315002839,-4,-2,0,-3,-1,1,-3,40
1512354315002839,-1,-3,-3,-2,1,-1,-3,23
1512354315017839,-4,1,0,-2,-5,1,-4,21
1512354315017839,-2,-1,-5,-5,-1,-1,-2,2
1512354315024839,-1,-4,-5,-2,-4,3,0,2
1512354315024839,1,-2,1,-1,2,-1,-2,8
1512354315040839,2,-6,-3,-2,1,0,2,11
1512354315040839,1,0,1,2,4,-2,-6,-15
1512354315041839,-2,-4,7,1,0,-15,0,2
1512354315041839,-2,-2,-7,0,-3,-13,0,7
1512354315056839,-2,1,-8,-9,2,-6,0,-1
1512354315056839,1,-2,0,-1,-2,8,3,-10
1512354315062839,-3,-5,0,2,0,10,0,-1
1512354315062839,-2,1,6,-2,-6,16,-5,2
1512354315077839,-4,1,3,3,2,9,0,0
1512354315077839,-3,-2,-1,-2,-1,7,-4,-6
1512354315084839,0,-1,2,-2,0,3,1,2
1512354315084839,-2,-1,-2,-2,3,2,-3,-4
1512354315100839,3,1,0,0,-1,-1,0,2
1512354315100839,1,-1,3,4,0,-2,1,-2
1512354315101839,-1,1,-4,2,0,-3,-3,1
1512354315101839,-1,-1,-2,-3,-2,-5,1,1
1512354315116839,1,1,3,-1,-1,-2,0,-1
1512354315116839,-4,-2,1,3,1,-3,2,-5
1512354315122839,-3,-6,-6,-5,-3,-4,1,-1
1512354315122839,-2,2,2,-3,0,4,1,0
1512354315137839,-1,-3,-2,2,-3,0,-3,0
1512354315137839,0,1,-3,-3,-1,-4,1,-5
1512354315144839,0,2,-1,0,1,-1,-2,1
1512354315144839,0,2,0,-3,-4,0,-1,2
1512354315160839,-2,-3,-4,2,5,-2,3,1
1512354315160839,-1,0,1,0,-1,-1,-1,-1
1512354315161839,0,1,-2,-2,-1,2,-2,1
1512354315161839,-2,-3,-2,1,2,-1,2,1
1512354315176839,2,1,3,-1,-2,0,-2,1
1512354315176839,-3,-3,0,2,-3,-1,-5,-2
1512354315182839,1,0,1,-6,-2,-2,-2,2
1512354315182839,0,2,0,5,3,-5,0,1
1512354315197839,-2,0,0,-2,-1,-3,-3,-1
1512354315197839,-1,-4,-6,-6,-2,-3,0,-5
1512354315204839,-3,0,-4,-1,-1,5,0,0
1512354315204839,-1,0,-1,0,1,6,-1,-2
1512354315220839,-1,0,2,0,-2,0,-4,-1
1512354315220839,1,1,4,1,-3,1,0,2
1512354315221839,-3,-1,-5,-2,0,-4,-2,-1
1512354315221839,-1,-2,-4,-3,-1,-2,0,-3
1512354315236839,0,1,-2,-1,-1,-5,5,1
1512354315236839,1,2,1,-1,-3,-1,-2,-2
1512354315242839,1,3,5,5,5,3,-3,-2
1512354315242839,1,0,4,3,2,2,2,-1
1512354315257839,1,-3,1,-3,-1,-4,-4,-4
1512354315257839,-1,-1,-1,1,1,-2,0,0
1512354315273839,-1,-1,-4,-7,-7,-4,-1,0
1512354315273839,-2,-4,0,0,1,0,6,3
1512354315280839,-2,-1,-5,-1,-1,4,-1,-4
1512354315280839,-5,-2,-1,-5,2,2,5,-1
1512354315281839,6,-1,1,1,2,-1,-1,4
1512354315281839,-1,-2,-2,-5,-1,1,-7,-3
1512354315296839,-4,-3,-1,1,1,2,1,1
1512354315296839,-4,-2,3,-3,0,2,-7,1
1512354315302839,-1,-3,-8,-2,-3,3,2,0
1512354315302839,-2,-1,-1,-3,-2,1,-1,-3
1512354315317839,-1,2,2,1,1,0,-4,-1
1512354315317839,1,0,4,6,0,3,-1,2
1512354315324839,-2,1,3,0,1,-3,3,-3
1512354315324839,1,-6,-4,-1,-2,-1,1,1
1512354315340839,0,-1,-6,-1,-2,-3,4,1
1512354315340839,-3,-3,-4,-4,-3,-2,-3,0
1512354315341839,1,4,4,-1,-2,0,-4,-1
1512354315341839,-2,1,4,3,0,-2,1,0
1512354315356839,-1,0,-2,-1,-3,-1,-4,-1
1512354315356839,-1,-2,-9,-1,1,-1,-2,-3
1512354315362839,1,-3,2,0,-1,-4,4,1
1512354315362839,0,2,-2,-4,1,-2,-5,-1
1512354315377839,-3,-1,0,-1,-1,3,-1,2
1512354315377839,6,-2,-1,1,6,-1,-1,1
1512354315384839,-3,1,-3,0,-2,1,-3,-1
1512354315384839,-3,1,-2,0,-4,-2,-1,1
1512354315400839,-2,0,-1,1,-1,0,1,0
1512354315400839,-1,-1,0,-3,1,0,-4,-3
1512354315401839,-2,2,0,-2,2,-5,1,0
1512354315401839,0,2,-2,-1,-1,1,1,-3
1512354315416839,1,-1,-4,-1,-2,-3,-1,0
1512354315416839,-1,0,2,1,-2,-1,2,-1
1512354315422839,2,-3,-2,1,0,-1,-1,-2
1512354315422839,0,3,1,-1,-1,0,-6,-2
1512354315437839,1,-1,4,0,3,-2,-2,-3
1512354315437839,-4,1,-3,-3,-3,-1,2,0
1512354315444839,-1,-3,-2,0,4,-1,0,-1
1512354315444839,-2,-3,-1,-3,-4,-2,-1,-2
1512354315460839,1,1,-2,0,3,0,1,4
1512354315460839,-2,-2,-1,1,-1,2,0,-1
1512354315461839,-1,-1,-3,-3,-3,1,-4,-1
1512354315461839,5,-3,-3,-2,-6,-5,3,-1
1512354315476839,1,3,2,2,0,-1,0,-3
1512354315476839,-1,4,2,-2,-4,-3,-2,-1
1512354315482839,0,-3,-3,1,1,-3,1,0
1512354315482839,-2,0,0,-2,-6,0,1,0
1512354315497839,-4,2,0,1,-3,3,-2,-2
1512354315497839,-3,-2,0,1,-1,-2,-1,-3
1512354315504839,-3,2,-1,0,-3,-3,-4,-3
1512354315504839,-1,0,-1,-3,3,0,-4,-1
1512354315520839,0,-2,-3,-6,-1,0,1,-1
1512354315520839,1,0,3,-1,-2,1,2,-2
1512354315521839,1,-2,3,0,-3,-3,-3,-1
1512354315521839,0,-1,-5,-4,-2,0,0,0
1512354315536839,-5,-2,-2,-5,-1,0,-3,1
1512354315536839,-1,2,0,-1,0,0,-2,-1
1512354315542839,-1,-1,-3,-3,1,2,-1,2
1512354315542839,-2,-2,3,-1,0,-3,-1,-1
1512354315557839,-1,-4,-2,-4,-3,0,1,-4
1512354315557839,2,0,-3,-2,1,3,-3,0
1512354315564839,-1,1,5,6,0,-2,-3,-3
1512354315564839,-1,-2,-3,0,1,-2,-3,-2
1512354315580839,0,0,-1,0,-2,-2,-5,-1
1512354315580839,1,-1,-5,-4,-4,-4,-1,-1
1512354315581839,-1,1,-2,-5,-2,3,4,1
1512354315581839,0,1,3,0,0,-3,-4,-3
1512354315596839,-1,1,1,2,1,0,2,0
1512354315596839,-1,1,-1,1,-1,-1,-1,0
1512354315602839,0,0,-3,-7,-1,2,-2,0
1512354315602839,1,1,-1,-1,1,-1,-3,0
1512354315617839,-2,0,-2,3,1,-5,-1,1
1512354315617839,0,-3,-2,1,6,3,2,-1
1512354315624839,-5,1,-2,-1,1,3,-3,-3
1512354315624839,0,0,0,-2,1,1,-1,0
1512354315640839,2,-2,-3,-6,1,-2,2,-2
1512354315640839,-1,-4,-2,-2,1,-3,-1,1
1512354315641839,0,1,1,2,-1,1,-1,1
1512354315641839,-2,1,4,2,1,2,-1,-1
1512354315656839,0,1,2,0,-1,-1,-5,-3
1512354315656839,-3,0,-2,-2,-2,2,0,1
1512354315662839,0,-2,5,-2,-1,-5,-1,0
1512354315662839,1,-2,-7,-4,-2,-2,2,1
1512354315677839,1,-3,0,2,1,6,0,5
1512354315677839,1,-3,-4,0,-4,-2,2,-2
1512354315684839,-3,0,-3,0,0,-1,-2,-1
1512354315684839,3,3,-2,0,1,2,-2,3
1512354315699839,1,-2,1,0,-1,-3,1,-3
1512354315699839,1,0,4,1,0,-2,-2,2
1512354315707839,-1,-1,3,-1,-3,1,1,0
1512354315707839,-1,0,-2,2,1,0,1,-4
1512354315716839,-5,0,0,0,2,0,-1,2
1512354315716839,-3,-3,0,-1,-4,-2,1,1
1512354315722839,0,0,-1,2,0,-4,2,-2
1512354315722839,-3,-1,0,2,0,1,-1,2
1512354315737839,0,-2,-2,-3,1,0,0,-1
1512354315737839,0,0,-2,-3,-2,0,-1,-3
1512354315744839,0,0,-3,1,1,1,0,1
1512354315744839,1,-2,-1,0,-3,0,4,1
1512354315759839,-2,0,-3,-2,-4,-1,-1,0
1512354315759839,-2,-4,0,-5,0,-2,-1,-2
1512354315767839,2,0,-1,-2,-1,-1,2,-1
1512354315767839,-3,0,0,-6,0,0,1,-2
1512354315776839,-2,3,0,-2,-5,1,-3,2
1512354315776839,2,2,-2,0,1,1,-1,-2
1512354315782839,0,-2,-3,0,0,0,-4,3
1512354315782839,-1,-4,1,3,1,-3,-2,-3
1512354315797839,-1,1,1,-2,0,-3,-2,-2
1512354315797839,-2,1,-5,0,-3,3,-3,-2
1512354315804839,0,0,1,-3,1,2,4,-1
1512354315804839,-4,1,-2,-3,0,-1,2,2
1512354315819839,-3,-4,2,0,-2,-1,1,1
1512354315819839,-3,2,2,1,4,-3,1,-1
1512354315827839,0,-1,0,-2,-2,1,-1,-2
1512354315827839,-1,0,-1,1,-3,0,-2,0
1512354315836839,0,-1,0,1,-2,-3,0,1
1512354315836839,-3,-5,-2,-3,2,2,1,0
1512354315842839,-2,1,-3,-1,-1,-1,2,-2
1512354315842839,-3,-2,0,-2,0,5,-3,-3
1512354315857839,4,-2,3,1,-1,3,-1,-1
1512354315857839,1,2,-3,-1,-3,1,-1,0
1512354315864839,-2,-3,-3,2,-2,-5,-1,-1
1512354315864839,-4,-1,2,-1,-1,3,-4,2
1512354315879839,-1,0,-4,-1,-3,0,0,-6
1512354315879839,-4,-3,0,-2,-1,1,-5,1
1512354315887839,1,2,0,-3,-2,0,1,-2
1512354315887839,-5,3,0,0,1,0,-2,0
1512354315903839,0,-2,-3,1,0,-3,-6,0
1512354315903839,-2,-4,-3,-5,-2,-5,-1,-1
1512354315903839,-1,-2,-1,0,3,5,-1,2
1512354315903839,1,-1,-1,-3,-3,-1,-1,0
1512354315918839,-2,-1,1,-2,0,1,-2,-3
1512354315918839,-1,-1,0,-2,-1,-1,-3,-2
1512354315924839,-4,-2,0,-1,-5,5,-3,-2
1512354315924839,-2,-4,1,2,0,-3,3,0
1512354315941839,-2,-1,-3,0,-2,-3,-1,2
1512354315941839,0,-4,1,5,3,0,1,-3
1512354315947839,0,-3,0,-3,2,-1,-2,0
1512354315947839,3,-1,1,-3,-2,-3,-3,-2
1512354315964839,-1,0,-4,-1,-1,1,-1,-1
1512354315964839,-4,2,0,3,-1,-3,0,-2
1512354315965839,-2,-1,3,-2,0,-3,-2,-3
1512354315965839,2,-3,-6,1,2,0,0,4
1512354315985839,-1,0,0,-4,-2,-4,-2,-1
1512354315985839,-1,-2,-1,0,1,-2,-1,0
1512354315986839,0,-1,-2,4,1,-1,-6,-2
1512354315986839,-1,1,-5,-1,-1,0,1,0
1512354316008839,0,2,3,0,0,1,5,1
1512354316008839,3,-2,0,-2,-3,-1,0,0
1512354316008839,0,-2,-2,0,-1,-3,1,1
1512354316008839,-1,-1,0,0,-1,-1,2,-3
1512354316031839,0,-3,-5,-1,0,2,-3,-1
1512354316031839,0,1,2,2,0,-2,0,-1
1512354316032839,-1,1,1,1,-1,-2,-3,0
1512354316032839,-1,2,0,-4,0,1,-1,-2
1512354316037839,1,1,-2,-3,2,2,0,0
1512354316037839,2,4,1,0,-3,1,-4,-2
1512354316053839,2,-1,-2,0,1,-4,-3,-1
1512354316053839,-2,-3,1,-1,1,-1,-3,3
1512354316059839,-2,-1,0,-1,-1,-2,4,-2
1512354316059839,-1,0,-2,0,0,2,-5,2
1512354316075839,-1,0,0,-2,4,0,2,-3
1512354316075839,4,-1,-2,0,0,2,-2,0
1512354316083839,-1,-1,0,-6,0,-3,-4,0
1512354316083839,4,1,3,1,1,-3,3,6
1512354316083839,-3,-1,-2,-2,0,-1,3,-1
1512354316083839,1,-1,-2,1,0,-1,1,2
1512354316098839,1,-1,-1,-3,0,2,-2,1
1512354316098839,2,0,-5,-3,-2,-3,-4,-6
1512354316104839,2,0,4,-2,-4,2,0,-1
1512354316104839,-2,3,1,3,-3,-1,-7,-2
1512354316121839,-2,2,1,2,0,-1,1,-3
1512354316121839,-2,-3,-1,-1,-1,1,-1,1
1512354316127839,-1,2,-2,1,0,-2,3,0
1512354316127839,-3,-2,2,1,-2,-4,-4,-3
1512354316143839,1,-1,1,2,0,1,-1,-3
1512354316143839,0,4,2,-1,2,-5,-4,0
1512354316143839,-3,-4,-3,-2,-3,1,3,3
1512354316143839,1,0,0,-4,0,-1,3,0
1512354316157839,-2,3,0,1,0,-1,0,1
1512354316157839,-2,-5,-1,-1,0,0,-4,4
1512354316164839,2,-1,6,1,-1,-2,-3,1
1512354316164839,2,-1,-5,0,-1,2,5,-3
1512354316179839,-2,-1,-2,0,-2,-5,-5,0
1512354316179839,-3,-3,-1,-4,-1,2,2,-2
1512354316187839,-1,-1,-2,-4,-2,-1,-3,-2
1512354316187839,-3,1,4,-1,0,2,-3,-2
1512354316203839,2,0,-1,3,0,1,-1,1
1512354316203839,-2,-1,-1,1,0,3,0,0
1512354316203839,-1,0,-5,1,0,-1,-2,-1
1512354316203839,-2,0,-1,-2,-2,1,4,1
1512354316218839,-1,-4,2,-1,-1,-1,5,-3
1512354316218839,-4,2,-1,-4,-1,-1,-2,-1
1512354316224839,1,2,-4,0,-2,2,-5,2
1512354316224839,1,0,-5,-6,-3,-4,-2,1
1512354316249839,-2,-1,-1,-1,-3,2,-4,-1
1512354316249839,2,-3,0,4,0,-5,2,1
1512354316250839,-5,-1,0,-2,0,1,-1,-1
1512354316250839,0,-1,-1,1,-1,3,-2,-2
1512354316263839,-3,-3,-6,-5,0,1,-2,3
1512354316263839,-1,3,-2,-3,0,0,-1,-1
1512354316263839,-3,-3,1,-3,-1,-5,-2,-2
1512354316263839,-2,-2,1,2,0,-1,-1,-4
1512354316277839,-1,-3,-1,-3,1,2,-1,-1
1512354316277839,-4,-2,-1,0,-1,2,1,1
1512354316284839,1,-1,-3,-1,1,-1,-1,1
1512354316284839,1,-3,2,0,1,-1,-1,1
1512354316299839,-1,0,-4,1,-3,-4,4,-1
1512354316299839,-3,-1,-3,-2,-1,1,-2,1
1512354316307839,0,1,3,-2,2,0,-4,-3
1512354316307839,2,2,-1,-1,-1,1,-6,-2
1512354316323839,0,0,0,2,-1,1,-5,0
1512354316323839,2,-4,-4,-2,1,3,-3,0
1512354316323839,0,1,-1,-2,-3,-5,-1,-1
1512354316323839,-1,-2,3,2,1,-1,-3,1
1512354316337839,-3,-3,2,0,0,0,-1,-1
1512354316337839,1,1,1,2,2,-3,3,0
1512354316344839,1,0,-5,-3,2,-3,1,1
1512354316344839,-2,-2,-4,-4,-2,0,2,-1
1512354316359839,0,-1,1,-1,-5,-1,-2,-2
1512354316359839,-2,-2,2,-3,0,5,-2,-3
1512354316367839,0,1,-3,-3,-1,-2,2,2
1512354316367839,2,1,2,-2,1,-3,-3,-2
1512354316391839,-1,2,-3,-4,-1,-1,1,1
1512354316391839,2,-1,-1,1,-4,-2,-4,0
1512354316392839,0,-1,-3,2,2,4,-4,-3
1512354316392839,-4,1,1,-1,0,0,-4,1
1512354316397839,0,-4,1,1,0,-1,0,-1
1512354316397839,1,2,1,-3,0,0,3,-4
1512354316413839,-1,-6,-1,1,-2,0,1,-1
1512354316413839,0,1,-1,0,-4,-6,3,-3
1512354316419839,-2,2,1,-1,1,1,-1,-3
1512354316419839,-1,2,-2,-4,-3,0,1,0
1512354316435839,0,1,4,0,-4,2,4,2
1512354316435839,-1,-1,-6,-3,-1,-3,-1,0
1512354316443839,0,-2,-5,-1,1,1,-1,-2
1512354316443839,1,0,0,-2,2,0,-2,-1
1512354316443839,0,-2,1,-1,1,1,0,0
1512354316443839,-1,-4,0,-1,0,-2,1,3
1512354316458839,-1,1,0,-3,-2,-3,-4,-4
1512354316458839,-4,0,1,4,-3,1,-1,1
1512354316464839,-2,0,0,0,3,0,-3,-1
1512354316464839,0,0,-3,-2,-3,2,2,-1
1512354316479839,0,-2,-5,-1,0,-3,2,3
1512354316479839,-1,-4,-2,-3,-2,2,-2,-1
1512354316487839,-1,1,1,3,-1,0,-1,-2
1512354316487839,0,-1,2,0,-2,0,1,-4
1512354316503839,0,-1,3,1,1,-2,1,1
1512354316503839,1,-1,0,1,-1,1,-3,-2
1512354316503839,0,-2,-6,-3,-3,-3,0,1
1512354316503839,-1,0,2,1,0,3,1,-3
1512354316517839,0,0,-4,-3,-3,0,-2,0
1512354316517839,-1,0,0,3,2,-2,0,2
1512354316524839,-2,-2,-1,1,-3,-4,0,-2
1512354316524839,-3,-1,-5,-3,0,-1,4,1
1512354316539839,0,-1,0,-2,-2,3,-2,0
1512354316539839,0,-2,0,0,-1,-4,-5,-2
1512354316547839,-1,0,2,-1,-3,1,-3,-4
1512354316547839,0,-1,0,2,3,0,0,1
1512354316562839,2,1,0,-4,-1,-2,-3,2
1512354316562839,-1,-1,-1,-1,-4,1,-2,-1
1512354316563839,0,0,-3,-4,-1,-4,-1,1
1512354316563839,-1,-4,0,-1,-1,3,-3,-5
1512354316577839,-3,0,5,4,-2,0,-1,0
1512354316577839,0,0,-3,0,1,-3,5,-1
1512354316584839,1,-1,0,-4,-4,1,0,2
1512354316584839,3,-1,-2,-4,0,2,-5,1
1512354316599839,-1,-3,-1,2,-2,2,1,-1
1512354316599839,-1,-3,0,-3,-1,-1,2,0
1512354316607839,-4,-1,0,1,0,-1,2,-3
1512354316607839,-2,1,0,0,0,-1,-1,-4
1512354316624839,-3,1,1,0,0,0,-3,-1
1512354316624839,0,1,-5,-4,-1,-3,-3,-3
1512354316625839,-1,-4,1,0,2,0,-1,-1
1512354316625839,0,-1,-6,-1,-2,1,-5,1
1512354316645839,0,-3,-3,1,0,-2,1,-2
1512354316645839,-1,2,-3,0,-2,-1,-1,-2
1512354316646839,-2,0,2,1,5,0,1,-1
1512354316646839,-1,-3,2,0,0,2,-3,3
1512354316669839,0,-1,2,1,0,3,3,-2
1512354316669839,0,-3,-1,-1,-3,-1,1,0
1512354316670839,0,0,-2,-2,-2,0,0,-2
1512354316670839,1,-2,-1,1,3,-3,-6,-2
1512354316682839,3,-2,-2,2,4,-2,-6,-2
1512354316682839,-2,-3,2,0,0,2,1,-3
1512354316691839,1,-1,-1,-3,-3,1,-2,1
1512354316691839,-1,-1,-2,-4,0,-1,2,1
1512354316697839,-1,-1,0,-1,-1,-1,-1,1
1512354316697839,-1,0,-1,-2,-1,-1,0,0
1512354316704839,-2,1,-3,1,-2,-2,-3,-6
1512354316704839,-2,-1,2,1,-1,-3,2,1
1512354316719839,1,0,4,0,-2,-1,-5,-1
1512354316719839,1,-1,-4,-3,2,2,-1,4
1512354316727839,-2,-3,-3,-1,-2,-1,4,-1
1512354316727839,1,-2,-1,0,-3,-5,-1,3
1512354316742839,0,-1,-3,-1,-2,-2,3,0
1512354316742839,-2,0,0,-2,-1,-3,2,-1
1512354316750839,1,0,0,-1,0,2,-2,-2
1512354316750839,-2,1,-1,1,-3,1,-2,-2
1512354316757839,1,-1,0,-4,-2,0,0,-1
1512354316757839,-1,-3,-1,1,-1,-1,-4,1
1512354316764839,1,-3,-1,-1,-4,0,-1,2
1512354316764839,-3,1,2,0,-3,-4,-2,1
1512354316779839,2,0,-2,-2,-2,2,-4,-3
1512354316779839,-1,-1,1,-2,-2,0,-3,-3
1512354316795839,1,0,-7,0,2,-1,0,2
1512354316795839,2,0,-3,-5,-3,-1,2,-5
1512354316802839,-1,2,2,0,-1,2,-3,2
1512354316802839,-1,0,-2,3,1,2,-3,-1
1512354316810839,-1,-2,7,1,2,2,-3,2
1512354316810839,1,-3,-4,-1,1,0,3,1
1512354316825839,0,-1,-4,-2,-2,0,2,-1
1512354316825839,-4,1,-2,2,-1,0,-3,-1
1512354316826839,-1,-3,-2,-1,-2,0,-5,1
1512354316826839,-3,2,2,-1,-2,-2,1,0
1512354316839839,-2,-2,2,-2,-1,-1,-1,-4
1512354316839839,0,1,-1,0,-1,4,1,2
1512354316847839,-1,-1,-4,-3,3,1,2,-4
1512354316847839,0,-4,-2,-1,1,2,1,-3
1512354316862839,-2,-1,-2,0,1,0,-3,0
1512354316862839,-2,-1,-3,-3,-3,-6,0,-2
1512354316870839,-3,-1,4,0,-1,-3,-2,0
1512354316870839,3,0,2,-1,-2,1,-1,0
1512354316885839,3,-2,-2,-1,2,-1,-6,2
1512354316885839,0,-1,0,-1,-2,1,-1,-2
1512354316886839,-2,0,-3,0,2,2,-2,-3
1512354316886839,2,0,1,2,1,0,-3,0
1512354316899839,-2,-3,1,-1,0,1,2,1
1512354316899839,-2,-1,-2,-1,3,1,-2,-2
1512354316907839,0,-1,2,-3,0,-1,1,-2
1512354316907839,-1,-3,1,0,-2,3,1,-2
1512354316922839,-2,-2,1,-2,-1,0,0,-1
1512354316922839,-2,-1,0,0,-3,-1,2,-1
1512354316930839,0,3,-1,-1,-5,3,-1,0
1512354316930839,-3,-1,-2,0,-4,1,-6,-1
1512354316945839,-1,1,-1,2,1,-3,-3,-2
1512354316945839,1,-3,-3,-3,-2,-1,-1,2
1512354316946839,1,1,-2,5,-4,-1,-4,-2
1512354316946839,0,0,0,-4,1,-3,-3,1
1512354316959839,-2,-4,-1,1,-2,0,6,1
1512354316959839,0,3,1,1,0,1,-1,1
1512354316967839,0,-1,-1,-3,-2,-3,0,0
1512354316967839,-1,-1,0,0,5,4,1,0
1512354316982839,-1,1,2,0,-2,1,0,0
1512354316982839,-3,-3,1,-1,-1,0,-1,0
1512354316990839,-3,-1,0,-2,-2,0,-6,0
1512354316990839,-1,0,0,-4,-2,-1,-3,-1
1512354317005839,-2,0,-2,-3,2,-2,-2,0
1512354317005839,2,0,1,-1,-2,1,1,-1
1512354317006839,-1,2,1,2,3,-2,0,0
1512354317006839,-2,-1,-1,-3,-2,-1,0,-2
1512354317019839,-2,-2,-2,2,-1,-1,-1,-2
1512354317019839,-1,-2,0,1,2,1,-1,0
1512354317027839,-1,-2,-5,-4,-6,-1,2,-3
1512354317027839,-1,0,-1,-2,-3,-1,-3,-2
1512354317042839,-2,-1,2,-3,0,1,-2,-1
1512354317042839,-1,1,0,-1,1,-1,0,-1
1512354317050839,1,-3,-1,-2,1,1,0,3
1512354317050839,0,2,-1,-4,0,0,1,3
1512354317065839,-1,2,1,2,-3,1,0,-3
1512354317065839,-2,-1,1,0,-1,-1,-2,-1
1512354317066839,2,-3,-2,-1,0,1,1,0
1512354317066839,1,1,2,4,0,1,-3,0
1512354317088839,1,0,-6,-3,1,0,-2,2
1512354317088839,2,-2,-3,-2,1,-1,-3,-1
1512354317088839,1,-3,-2,-1,-4,-3,0,-2
1512354317088839,-1,1,-3,2,0,0,1,-1
1512354317102839,-4,-2,0,1,-1,0,-6,0
1512354317102839,1,1,2,-1,0,-2,-1,-2
1512354317110839,-1,1,1,1,3,0,2,-4
1512354317110839,-2,-2,0,1,-1,-4,-1,-5
1512354317125839,1,-2,-2,-4,-3,-1,1,-2
1512354317125839,-2,-1,-1,-1,-2,-2,-4,4
1512354317126839,0,1,-3,-1,-1,-1,-4,-1
1512354317126839,-3,-1,0,-4,-1,0,-2,0
1512354317139839,0,-2,1,1,-3,-2,1,-4
1512354317139839,-1,-3,0,3,2,2,2,1
1512354317147839,-2,-1,0,0,2,-3,-3,-2
1512354317147839,0,-3,-3,0,1,1,-1,0
1512354317162839,1,-2,-3,-2,-2,-6,0,0
1512354317162839,-1,0,-2,0,3,0,1,-1
1512354317170839,-1,-1,1,-2,-2,0,0,3
1512354317170839,-2,0,0,-2,-4,-3,1,-4
1512354317185839,-3,4,-1,-3,-2,1,2,-3
1512354317185839,-2,-2,0,0,-3,-1,0,-2
1512354317186839,-1,0,-1,0,2,-2,3,1
1512354317186839,3,1,-3,-3,2,3,-1,3
1512354317199839,1,0,-1,-2,-2,3,-3,1
1512354317199839,-2,-1,-1,0,-1,-4,-3,-2
1512354317207839,-1,0,1,-2,-2,3,-7,0
1512354317207839,1,-4,0,-1,1,-3,2,-3
1512354317222839,-1,3,-5,-4,4,2,-2,1
1512354317222839,-2,2,-2,-2,-4,-1,3,-1
1512354317230839,-4,1,2,0,-2,1,-3,0
1512354317230839,-2,1,2,1,0,-2,-2,1
1512354317245839,0,0,1,0,1,1,1,-2
1512354317245839,-1,-1,1,-2,-1,1,1,-1
1512354317246839,1,-1,-2,3,-1,0,0,1
1512354317246839,0,0,-4,-3,2,0,-3,-1
1512354317259839,-1,-2,0,4,2,0,-2,1
1512354317259839,-1,0,1,-4,-2,1,-6,-1
1512354317267839,0,-1,1,-1,-2,0,-2,-1
1512354317267839,-4,-2,-1,1,0,-3,0,0
1512354317282839,0,0,2,-2,-2,-1,-3,1
1512354317282839,-1,-2,-3,0,1,1,1,0
1512354317290839,0,0,2,0,-1,1,3,2
1512354317290839,2,-5,2,-3,1,5,2,-1
1512354317305839,-4,-1,1,2,2,-4,2,-1
1512354317305839,-1,-2,-6,0,-2,0,1,-1
1512354317306839,0,-1,-3,-6,0,0,-3,-2
1512354317306839,2,1,-3,-4,0,-1,-2,-2
1512354317321839,2,-2,-1,0,1,-2,-1,-2
1512354317321839,2,1,4,-1,0,-2,-3,0
1512354317327839,-1,-1,0,0,0,3,-1,2
1512354317327839,-2,-3,0,5,1,-1,-3,1
1512354317342839,0,0,-3,0,-2,1,0,-1
1512354317342839,-5,1,-1,-3,-4,-1,1,1
1512354317350839,0,-1,0,-1,-2,-1,1,1
1512354317350839,-2,1,-1,-5,-3,2,0,-1
1512354317365839,1,2,-3,0,1,-1,2,-1
1512354317365839,2,-1,0,1,1,-7,1,1
1512354317366839,-3,0,-2,0,4,2,-1,0
1512354317366839,-2,-2,2,-2,-1,2,6,-2
1512354317379839,-4,-3,-4,-1,-1,-1,-1,0
1512354317379839,2,-3,1,-2,-3,4,-4,-1
1512354317387839,-1,-1,-3,-5,-1,-1,-2,-3
1512354317387839,3,1,0,4,4,-1,-1,1
1512354317402839,0,-1,0,-4,-6,-2,-2,0
1512354317402839,0,-4,-2,3,1,1,1,-3
1512354317410839,0,-1,0,-1,-3,-4,0,1
1512354317410839,-3,-1,-1,1,-1,3,-3,0
1512354317425839,0,0,0,-3,1,0,-3,0
1512354317425839,-4,0,-2,-1,-1,1,-5,-1
1512354317426839,1,-2,-1,-2,-1,-2,0,-1
1512354317426839,0,2,-1,1,-2,-1,0,-3
1512354317439839,-3,2,-1,0,0,-1,-1,0
1512354317439839,0,-3,-1,-2,1,0,4,-2
1512354317447839,-1,-1,0,3,-1,-2,0,-1
1512354317447839,2,1,1,-3,0,-4,-4,2
1512354317462839,0,0,1,-1,1,5,3,-1
1512354317462839,3,0,-5,-5,1,1,-1,-2
1512354317470839,0,-1,-4,1,0,2,1,-3
1512354317470839,3,-1,3,-4,-2,-1,-4,-2
1512354317485839,0,-1,7,3,0,1,-1,-2
1512354317485839,-2,0,-10,-4,-3,-2,-1,1
1512354317492839,0,-1,-4,-4,2,-3,-2,1
1512354317492839,-4,-1,-6,-4,-2,-1,2,-3
1512354317499839,-3,1,7,3,0,1,-3,3
1512354317499839,1,3,12,3,0,0,0,1
1512354317507839,-1,0,2,0,3,0,-1,-3
1512354317507839,-1,-1,-3,4,0,-1,-1,0
1512354317522839,1,-6,-9,-5,-1,-1,4,3
1512354317522839,2,1,0,0,-1,2,-2,-1
1512354317529839,-4,1,4,3,-1,-3,-2,0
1512354317529839,-2,-1,1,0,-1,-3,-3,1
1512354317545839,-3,-5,-4,-3,2,2,1,-4
1512354317545839,-3,2,-1,-2,-4,-2,-2,0
1512354317546839,2,1,0,5,1,0,1,-2
1512354317546839,-2,-3,-4,-2,-2,2,0,0
1512354317559839,-1,-2,-1,-3,-3,-2,-3,-1
1512354317559839,-1,-1,0,-1,2,1,1,-2
1512354317567839,-2,1,-2,-5,-2,-2,1,-4
1512354317567839,-3,0,-1,-2,-1,-2,5,1
1512354317582839,3,1,0,-2,-1,-2,-1,0
1512354317582839,-1,-4,-1,-2,0,1,-1,2
1512354317589839,-1,-2,-4,3,-3,-2,-2,-2
1512354317589839,-2,3,-3,-1,-4,-3,-2,-1
1512354317604839,-3,-2,-3,1,0,-3,-5,0
1512354317604839,2,2,-2,0,0,-4,0,-3
1512354317612839,1,0,3,-1,-5,1,1,-1
1512354317612839,1,-2,-4,-1,-1,4,2,1
1512354317619839,-1,0,-1,-2,-2,-1,-1,-1
1512354317619839,-2,-3,1,3,-3,-1,1,-1
1512354317627839,0,-5,2,-3,-1,0,-7,5
1512354317627839,-2,-1,-1,0,2,-2,-5,-1
1512354317642839,2,2,1,-3,-4,1,0,0
1512354317642839,0,-2,1,0,4,2,-4,0
1512354317649839,-1,0,-4,-6,-1,1,6,-2
1512354317649839,3,0,4,1,-1,1,2,-4
1512354317664839,-1,-2,-7,0,-1,0,1,1
1512354317664839,-4,-1,-1,-3,-2,-1,2,-1
1512354317672839,2,0,3,2,0,2,1,-2
1512354317672839,-3,1,1,1,0,0,0,0
1512354317679839,0,-2,-1,-5,-3,0,0,0
1512354317679839,-2,0,2,1,1,0,-2,1
1512354317687839,2,-2,-7,-4,-3,-1,-1,-1
1512354317687839,1,-1,6,2,-1,-1,-3,-1
1512354317702839,-3,1,2,2,-1,2,-1,-3
1512354317702839,-1,0,0,2,-2,-2,-4,3
1512354317709839,-1,-1,0,-2,-3,-1,-1,-1
1512354317709839,2,1,-3,-3,-1,1,0,-2
1512354317724839,-2,-2,5,0,-1,-2,-2,-2
1512354317724839,-1,-2,-4,0,1,1,1,-2
1512354317733839,-3,2,-2,-5,0,0,0,4
1512354317733839,0,-3,-5,-3,-5,-2,0,-1
1512354317739839,1,-1,-1,0,0,0,0,0
1512354317739839,2,2,2,1,-2,0,1,0
1512354317747839,0,-2,1,2,0,0,-3,-2
1512354317747839,-2,2,2,0,-1,-2,-1,3
1512354317762839,-3,3,0,1,4,0,-2,-4
1512354317762839,-2,-7,-10,-8,-2,-2,-4,-3
1512354317769839,0,-2,-1,1,-1,-1,-2,-2
1512354317769839,0,-1,3,-1,-1,-1,0,0
1512354317784839,-2,-2,-1,1,-1,0,2,1
1512354317784839,1,0,5,0,3,3,-1,-2
1512354317792839,-5,-1,6,1,0,0,-2,-2
1512354317792839,-2,-3,-7,-2,-1,-2,1,-2
1512354317807839,2,0,-5,-7,-3,-1,0,-1
1512354317807839,-3,0,4,0,-4,-5,-3,-3
1512354317808839,-1,0,-1,0,1,-1,3,1
1512354317808839,0,0,4,2,0,0,-1,3
1512354317822839,0,-5,-4,-1,-2,-1,-1,-4
1512354317822839,-1,3,0,2,-1,2,-2,0
1512354317829839,2,-3,-5,-1,1,-3,-4,-1
1512354317829839,-1,-3,-5,-1,4,3,-2,-1
1512354317844839,5,0,1,3,1,2,-3,2
1512354317844839,-1,-1,3,-1,-1,-3,0,0
1512354317852839,-1,-3,-7,-1,-1,-1,-2,1
1512354317852839,-2,0,0,2,2,-3,1,-2
1512354317867839,-3,0,-3,-1,2,2,1,0
1512354317867839,1,2,2,2,-2,-2,-4,-3
1512354317868839,-2,3,0,0,0,1,0,-3
1512354317868839,-2,-3,-6,-4,-6,-2,-1,0
1512354317882839,-3,2,1,-2,-1,-3,2,0
1512354317882839,-1,-1,-1,-4,-3,-2,3,1
1512354317889839,0,-2,-1,0,0,-3,-3,1
1512354317889839,3,1,-2,-2,-1,0,1,-1
1512354317904839,-3,0,5,3,0,-2,-3,1
1512354317904839,0,-1,-1,-4,3,1,0,-3
1512354317913839,1,-2,-9,-2,-5,-4,-2,0
1512354317913839,-3,-3,2,-2,-4,-6,-3,-2
1512354317927839,-2,-2,0,2,2,0,-5,1
1512354317927839,1,-1,4,2,1,-2,1,1
1512354317928839,0,3,3,1,-1,2,-1,1
1512354317928839,1,0,-3,-2,0,-1,0,-4
1512354317942839,-3,-2,0,-4,-1,-4,1,1
1512354317942839,-5,-2,-6,-1,-1,2,-3,-3
1512354317949839,-3,-1,0,0,-1,-2,1,-4
1512354317949839,1,3,2,1,0,1,1,1
1512354317966839,-1,2,-3,3,-2,-2,-3,-1
1512354317966839,-1,-2,-3,-5,1,2,-2,0
1512354317972839,2,0,-3,-4,-1,-3,-3,0
1512354317972839,-1,1,-1,-3,1,2,-5,0
1512354317987839,-3,-2,5,1,1,-1,-1,-2
1512354317987839,4,0,1,4,-2,1,4,2
1512354317988839,0,-2,0,1,0,0,-2,-2
1512354317988839,0,-2,0,-2,0,-2,2,2
1512354318002839,0,1,-2,-2,0,0,4,-1
1512354318002839,-2,-2,-5,0,-3,-2,-2,2
1512354318009839,2,2,3,2,1,4,0,0
1512354318009839,1,-2,2,-1,-5,-3,0,-4
1512354318024839,5,0,-8,-5,-2,-1,-1,-3
1512354318024839,0,2,-5,-4,0,0,0,-2
1512354318033839,-2,3,3,1,-1,-1,-1,1
1512354318033839,-3,-3,-2,-2,1,1,0,1
1512354318048839,-1,-3,5,4,-1,3,1,0
1512354318048839,-1,-2,-2,-2,1,-2,-2,-2
1512354318049839,-2,-4,-7,-2,3,4,2,-1
1512354318049839,-1,0,2,-1,-2,3,-1,-1
1512354318062839,1,2,0,-1,-3,-3,-1,-1
1512354318062839,-2,-1,1,3,-1,-3,-2,1
1512354318069839,0,2,1,-1,-2,0,0,-2
1512354318069839,-3,-2,-8,-1,-2,1,-2,-2
1512354318086839,0,0,0,-1,1,0,-1,-1
1512354318086839,-2,3,5,1,1,2,0,-2
1512354318093839,-2,-1,-2,-2,-2,-2,0,3
1512354318093839,1,-4,-3,-2,0,-4,-4,-3
1512354318107839,2,1,-9,-8,1,-2,-2,1
1512354318107839,3,2,1,1,-2,0,4,-4
1512354318108839,0,-2,3,1,1,3,-3,1
1512354318108839,1,3,9,5,-2,1,-3,1
1512354318122839,-2,-4,-6,0,-4,-1,-6,-3
1512354318122839,-2,-4,-5,-2,3,4,-3,0
1512354318129839,1,0,-2,-3,-4,-4,0,-2
1512354318129839,0,1,-1,-3,0,-1,-1,0
1512354318144839,0,1,1,0,2,1,-1,2
1512354318144839,-1,0,-2,0,0,-2,1,0
1512354318153839,-1,1,5,1,1,3,1,-2
1512354318153839,-4,-1,0,-1,3,-1,1,-1
1512354318167839,-1,1,-2,1,0,1,4,-3
1512354318167839,0,1,2,4,-4,-2,-1,-3
1512354318168839,-1,1,2,1,2,1,-3,-1
1512354318168839,-1,0,-3,-3,0,-4,2,4
1512354318182839,-3,1,-8,-3,-1,1,4,1
1512354318182839,-2,-6,-7,-5,-3,-1,-2,-3
1512354318189839,-2,2,4,1,-2,-3,1,1
1512354318189839,0,-2,1,3,1,-1,1,-1
1512354318206839,2,-2,-2,-5,-2,-1,-4,1
1512354318206839,2,-2,-6,-2,2,4,-3,-2
1512354318213839,-1,-3,-1,0,-2,0,0,-3
1512354318213839,0,0,4,1,0,2,-4,-4
1512354318228839,-2,-1,6,5,0,-1,-2,-1
1512354318228839,-2,1,-2,-3,-4,-3,-1,0
1512354318228839,0,-3,-2,-3,0,1,-1,-1
1512354318228839,0,-2,-2,0,1,-1,0,1
1512354318242839,3,-4,-10,-3,1,1,-3,-5
1512354318242839,0,2,-1,-2,-1,1,-2,1
1512354318249839,-3,-4,0,-3,0,-3,-2,-1
1512354318249839,3,1,-4,-3,-5,1,0,0
1512354318264839,-3,-2,10,1,3,-2,-3,-3
1512354318264839,-2,-2,-7,-3,-2,-3,1,-2
1512354318273839,0,-3,-1,-1,5,2,-2,-3
1512354318273839,0,1,7,3,-3,-3,3,-1
1512354318287839,-5,2,-5,-7,-2,1,-1,2
1512354318287839,3,-2,0,2,2,-3,3,0
1512354318288839,-2,1,0,-3,-5,-2,-2,-1
1512354318288839,0,-1,4,3,-3,1,-5,1
1512354318302839,-1,-4,3,3,-1,1,1,-1
1512354318302839,-4,-2,-3,-1,1,3,-1,0
1512354318309839,-1,-2,-14,-7,-1,0,0,0
1512354318309839,1,0,-3,-2,2,0,-1,-2
1512354318326839,-2,3,9,1,-3,-2,-1,-1
1512354318326839,-1,-2,3,3,-1,3,1,2
1512354318333839,1,-4,2,6,-2,-2,-4,-3
1512354318333839,-4,-3,-7,-5,0,-3,2,0
1512354318347839,1,-6,-4,-3,-3,0,-2,0
1512354318347839,-2,0,3,-2,0,-4,3,-2
1512354318348839,2,-4,0,1,0,4,1,-1
1512354318348839,-2,0,6,2,3,0,1,2
1512354318362839,1,2,1,3,-1,-3,5,0
1512354318362839,-2,1,-7,-4,-5,1,-7,0
1512354318369839,-3,-2,-4,-5,-2,-4,-1,-1
1512354318369839,2,-1,-6,-2,-2,3,1,-3
1512354318384839,-2,-2,4,1,0,1,1,0
1512354318384839,0,-3,6,5,0,-1,-1,-1
1512354318392839,-5,1,-3,3,-1,-3,0,1
1512354318392839,-2,0,1,1,-1,-2,-4,-2
1512354318407839,1,-1,-9,0,0,-6,-1,0
1512354318407839,0,1,3,-1,-1,0,0,-1
1512354318408839,-2,-3,-3,-2,-2,-1,-1,0
1512354318408839,-5,-4,-2,-1,-1,-1,0,0
1512354318422839,1,1,0,2,0,1,-4,-3
1512354318422839,1,-1,1,-4,-4,-2,-2,-3
1512354318429839,3,-3,-1,-3,-3,-2,-1,1
1512354318429839,-1,-1,-3,-6,-2,-2,0,-1
1512354318444839,-4,0,0,4,1,-2,-3,-2
1512354318444839,1,2,-4,-5,-2,-1,0,-1
1512354318452839,-1,1,4,3,2,-2,3,-2
1512354318452839,4,-3,-1,4,2,-1,-2,-1
1512354318467839,1,-3,-1,-4,-1,0,2,0
1512354318467839,-6,3,-4,-4,1,0,-3,-2
1512354318468839,0,0,1,3,-3,0,-3,-1
1512354318468839,-1,0,-1,-1,-5,1,-2,1
1512354318482839,-1,2,-3,-5,0,2,-4,3
1512354318482839,0,-4,-5,0,-3,3,-2,1
1512354318489839,0,3,-2,-1,4,0,-2,-1
1512354318489839,1,1,-4,-3,-3,2,-2,-3
1512354318504839,-1,-4,0,0,2,2,3,-3
1512354318504839,-2,2,5,3,-1,-1,4,0
1512354318513839,1,0,4,-1,-2,-2,1,-1
1512354318513839,-3,-2,-1,2,1,2,0,-2
1512354318527839,0,-1,-8,-8,-5,-2,0,-2
1512354318527839,-4,-4,-1,0,2,0,-1,-2
1512354318528839,-2,-3,-3,0,0,-5,2,-2
1512354318528839,-3,1,3,2,-3,0,-3,1
1512354318542839,-1,-1,4,-3,-2,-2,-4,-3
1512354318542839,1,-4,3,0,2,0,-2,-2
1512354318549839,0,1,-1,-2,0,2,-7,-1
1512354318549839,2,1,-5,-3,-1,0,-1,0
1512354318564839,0,-1,1,5,2,-1,-1,0
1512354318564839,-2,0,1,0,-3,-2,-3,-1
1512354318573839,-1,-2,-1,-4,-1,2,1,-2
1512354318573839,-4,0,-3,-3,0,-3,0,-3
1512354318587839,-1,0,1,0,-1,5,-4,1
1512354318587839,0,-1,-1,-4,1,-1,0,-3
1512354318595839,-5,2,1,-2,-2,-2,2,2
1512354318595839,-3,0,0,0,-3,-1,-2,-2
1512354318602839,-1,-3,0,0,1,-4,5,-2
1512354318602839,1,3,0,0,-1,-2,-2,0
1512354318609839,2,0,0,2,-2,2,-1,0
1512354318609839,-4,-1,-1,-2,3,3,1,-2
1512354318624839,-1,2,0,0,-3,0,-2,0
1512354318624839,0,-4,0,0,-1,-4,3,-1
1512354318633839,0,-1,-1,0,-1,1,0,-4
1512354318633839,2,1,0,0,-1,0,1,1
1512354318647839,-1,-1,0,-3,-2,-3,0,0
1512354318647839,-1,0,-1,-2,2,4,-2,0
1512354318655839,0,-6,-2,-3,1,-3,-1,1
1512354318655839,-2,-2,1,0,0,-4,-3,-1
1512354318662839,-1,-2,-2,-1,-2,1,-2,0
1512354318662839,1,0,0,1,-3,1,0,0
1512354318669839,-1,1,-1,0,0,-2,-1,0
1512354318669839,-1,2,1,1,-1,2,-5,0
1512354318684839,-2,-1,0,2,0,-1,-1,1
1512354318684839,-1,1,-1,2,2,-2,-10,-1
1512354318692839,-1,0,-4,-2,-1,2,4,0
1512354318692839,0,-6,-3,1,0,-1,5,-2
1512354318707839,-2,2,-1,-1,-1,0,2,-2
1512354318707839,2,-1,-3,-1,-2,-3,2,-1
1512354318715839,2,0,1,-2,0,-1,-3,-2
1512354318715839,-1,0,-3,0,-2,-3,-3,-2
1512354318730839,0,-4,-3,-3,-2,0,0,-2
1512354318730839,-2,3,-3,-1,-2,-1,1,-2
1512354318731839,1,2,1,3,0,0,-6,-1
1512354318731839,1,-1,-1,2,4,1,2,0
1512354318744839,1,0,-1,-4,1,-3,1,1
1512354318744839,-3,0,3,1,-3,-1,1,1
1512354318753839,-1,-2,0,-3,-2,-2,2,1
1512354318753839,1,-1,-1,0,-4,-4,-3,-3
1512354318767839,-1,1,3,3,-2,-2,-4,1
1512354318767839,1,-2,-3,-2,0,0,-1,1
1512354318775839,-4,-2,1,1,-1,1,2,-2
1512354318775839,6,-4,4,1,-1,3,3,0
1512354318790839,0,1,-5,-1,-1,3,2,1
1512354318790839,-2,-1,0,1,-2,-1,-2,-3
1512354318791839,0,0,0,0,1,-2,1,0
1512354318791839,-3,0,-5,-3,-2,-3,-4,-3
1512354318806839,1,2,2,2,0,-2,0,1
1512354318806839,0,-2,1,-2,2,-2,1,-3
1512354318813839,-3,0,-2,-2,-1,-2,0,2
1512354318813839,-5,-2,1,-2,0,1,3,2
1512354318827839,0,-1,-2,-1,1,0,-2,-4
1512354318827839,0,-2,-3,2,-1,-3,2,-1
1512354318835839,-1,-1,-3,1,-5,-5,4,0
1512354318835839,0,1,0,-4,1,2,0,1
1512354318850839,-1,-1,-4,-4,-2,4,0,1
1512354318850839,-1,-2,0,-2,-2,-4,1,-1
1512354318851839,-1,2,-3,1,-2,1,-6,-5
1512354318851839,-2,-3,-1,-1,1,0,0,0
1512354318864839,1,1,1,-3,-5,0,3,1
1512354318864839,2,-5,0,-1,-2,1,-3,1
1512354318872839,0,-4,-3,-3,-2,5,1,3
1512354318872839,1,1,0,-3,-1,0,-3,-2
1512354318887839,-5,-3,-2,1,2,-1,-1,2
1512354318887839,-3,1,-2,-5,-2,-1,1,-1
1512354318895839,-1,-1,1,0,-2,-1,1,-1
1512354318895839,1,-2,0,-2,0,0,-2,2
1512354318910839,-1,-2,0,0,0,1,-1,-2
1512354318910839,-3,2,-2,-1,0,-1,-2,1
1512354318911839,-1,-1,2,-3,-3,1,-3,-2
1512354318911839,0,-1,-3,0,-2,-2,-1,-3
1512354318924839,0,0,2,2,0,-2,-6,-2
1512354318924839,0,-5,2,1,2,4,-2,0
1512354318933839,-4,-3,0,-3,0,0,-3,1
1512354318933839,-3,-3,-1,2,0,0,-1,-2
1512354318947839,-2,4,-4,0,1,-3,2,0
1512354318947839,-2,2,-2,-2,1,0,0,1
1512354318955839,-1,-3,-2,1,1,2,-1,-2
1512354318955839,2,-4,12,0,-1,0,-1,-4
1512354318970839,-1,-1,13,1,-1,-2,-3,0
1512354318970839,-1,-5,6,1,1,-1,-3,1
1512354318971839,1,2,0,0,1,-2,0,-1
1512354318971839,-4,4,-11,-2,-2,-2,0,-1
1512354318984839,-1,0,-9,-2,-1,2,-1,-3
1512354318984839,-2,0,-10,-2,-1,0,1,-1
1512354318993839,0,0,-6,-1,0,-2,-2,0
1512354318993839,-2,2,-4,1,2,-4,0,3
1512354319007839,2,-1,0,0,-3,1,0,-1
1512354319007839,2,-2,1,-3,0,-1,3,1
1512354319015839,-1,-4,-3,-1,-2,-5,2,1
1512354319015839,1,4,1,0,-2,-1,-1,0
1512354319030839,1,-3,0,-2,1,0,-1,-2
1512354319030839,2,-2,0,1,-1,-2,0,0
1512354319031839,1,2,2,-1,2,0,-2,-1
1512354319031839,-5,-1,0,-2,-4,-1,-2,0
1512354319044839,-6,-4,-2,-4,-1,-4,-4,-2
1512354319044839,2,0,3,0,0,1,3,0
1512354319053839,0,0,1,0,-1,0,-1,-2
1512354319053839,1,-1,0,0,1,2,-2,2
1512354319067839,3,-1,-2,1,0,0,-2,-2
1512354319067839,-1,1,0,-2,-1,1,-4,0
1512354319075839,-2,-1,-1,-1,0,-2,-1,-2
1512354319075839,1,-2,-4,-6,-2,-1,-2,-4
1512354319090839,-2,1,0,-1,-3,3,4,-2
1512354319090839,-1,-2,-1,1,-1,1,-2,-3
1512354319091839,3,0,0,-1,0,-1,-1,-4
1512354319091839,-2,1,3,-1,-2,-2,0,3
1512354319104839,0,2,-3,-1,0,-1,-1,-1
1512354319104839,-2,-2,-5,0,-4,0,3,-1
1512354319112839,0,0,2,-2,-2,-1,0,4
1512354319112839,-2,-2,-1,4,4,2,-1,-1
1512354319127839,-2,3,0,0,-1,-2,3,-2
1512354319127839,0,1,2,-2,-3,1,2,-1
1512354319135839,-1,-2,-3,1,0,-1,0,-2
1512354319135839,2,0,0,-3,-2,-6,-2,-1
1512354319159839,0,-3,1,1,2,-2,2,-3
1512354319159839,-1,0,-3,-1,-2,-2,-1,-3
1512354319159839,-3,2,0,-4,-3,-2,6,2
1512354319159839,-1,-2,0,1,0,0,2,0
1512354319164839,0,-3,1,0,2,-2,-2,1
1512354319164839,-2,-1,-6,-2,-1,3,-2,0
1512354319172839,-2,0,2,0,0,-4,-5,2
1512354319172839,1,1,-3,-1,-4,2,-2,-4
1512354319187839,-2,0,-1,2,1,-3,-3,0
1512354319187839,-2,1,6,1,1,-1,-4,-1
1512354319202839,-2,0,0,0,4,1,-3,-1
1512354319202839,-1,-1,-4,-2,2,1,-1,1
1512354319210839,2,-1,0,-3,0,2,3,3
1512354319210839,-1,5,-1,3,-1,1,-1,0
1512354319211839,0,3,-2,4,-4,-2,0,2
1512354319211839,-3,-2,-6,-7,0,-1,0,0
1512354319224839,0,-2,0,-3,-1,2,-1,0
1512354319224839,1,1,2,-1,1,-3,2,0
1512354319232839,0,0,2,1,-2,3,-2,-1
1512354319232839,2,1,2,3,2,-3,0,-4
1512354319247839,0,0,1,-2,-6,-3,-3,0
1512354319247839,-2,-3,-3,-3,-2,-2,-1,1
1512354319255839,1,-1,-3,-2,1,0,0,-3
1512354319255839,-1,2,0,1,0,-1,2,2
1512354319270839,-2,2,-3,-4,-3,-2,-1,-3
1512354319270839,0,2,3,4,1,2,-3,0
1512354319271839,-1,-4,-2,-1,-2,1,0,-1
1512354319271839,-2,0,1,-3,-3,0,-3,-3
1512354319286839,-1,-2,2,2,2,2,1,-1
1512354319286839,0,-4,-1,-1,0,0,4,-2
1512354319292839,0,0,2,-1,2,0,-2,-2
1512354319292839,-2,-1,-5,-5,-3,-4,-2,-4
1512354319307839,-3,-1,-3,-3,-4,-3,-6,2
1512354319307839,2,-2,-3,-2,-3,-1,-5,-1
1512354319315839,0,-3,5,1,0,-1,-2,3
1512354319315839,-2,-3,0,2,-4,3,-1,3
1512354319330839,0,-1,1,0,4,-1,0,-3
1512354319330839,-1,1,0,2,0,-3,-1,-3
1512354319331839,-1,4,2,-2,0,0,0,-2
1512354319331839,0,-4,-8,0,-2,-4,1,-1
1512354319344839,-4,-2,-6,-3,0,1,0,0
1512354319344839,-1,-3,0,-3,0,-4,0,0
1512354319352839,-2,-2,-2,-4,-3,0,-1,-2
1512354319352839,2,-1,11,1,1,2,1,2
1512354319367839,-1,0,1,6,-3,3,2,1
1512354319367839,-3,-3,-9,-5,-2,1,1,0
1512354319375839,3,0,-4,-6,-4,0,-2,-3
1512354319375839,0,-3,-1,1,3,0,-2,-2
1512354319390839,3,0,8,1,-2,-6,3,1
1512354319390839,0,-1,2,4,-1,5,-3,0
1512354319391839,1,-3,1,4,0,1,-1,0
1512354319391839,-5,-1,-5,-6,-2,1,1,-2
1512354319404839,0,-2,-13,-7,1,-1,-2,-4
1512354319404839,-3,0,2,0,1,-1,0,-1
1512354319412839,-1,1,4,0,1,-1,-4,-1
1512354319412839,0,1,7,2,1,0,-1,-2
1512354319436839,1,-1,2,0,0,0,-1,2
1512354319436839,-2,-1,-8,-6,-1,-5,1,-1
1512354319436839,-5,-2,2,1,-1,-1,0,-4
1512354319436839,0,1,1,1,1,-3,-3,-1
1512354319450839,-2,-2,-2,-1,-4,4,-1,1
1512354319450839,2,4,-1,-1,1,-3,1,1
1512354319451839,1,-2,0,2,-2,-1,1,1
1512354319451839,0,-2,-6,-4,-2,-4,1,-1
1512354319464839,0,-3,-3,1,3,0,-3,-1
1512354319464839,0,-1,5,2,-2,0,3,1
1512354319472839,-1,1,-7,-3,2,4,2,-2
1512354319472839,0,4,-2,-4,-3,4,-3,3
1512354319487839,-2,2,-1,0,3,-5,-1,-2
1512354319487839,1,-1,7,-1,-1,2,-2,-1
1512354319495839,0,-5,-1,0,-3,-3,-4,1
1512354319495839,-3,-5,-4,-1,0,-2,2,-3
1512354319509839,0,-1,1,-2,1,1,1,-1
1512354319509839,-3,-2,-3,-2,0,-1,-1,0
1512354319517839,0,1,1,-1,-2,-3,1,2
1512354319517839,-1,1,1,2,1,-3,-1,0
1512354319524839,-3,1,3,-1,-3,-1,2,-1
1512354319524839,-3,-1,-4,3,-2,-1,1,0
1512354319532839,-1,-3,-3,-2,1,1,1,0
1512354319532839,2,3,1,1,-2,-1,2,1
1512354319547839,1,0,3,2,-3,0,-1,-1
1512354319547839,2,-4,0,-4,-1,0,-3,-2
1512354319555839,-3,-3,-3,0,3,-2,-2,2
1512354319555839,3,-1,0,0,0,4,0,0
1512354319569839,-4,1,-2,-1,-1,1,0,-1
1512354319569839,-3,-1,1,-2,-2,-1,0,-3
1512354319577839,2,-3,-3,-1,-1,-2,-1,-1
1512354319577839,-2,1,1,-2,-1,-4,1,-1
1512354319584839,-1,-1,2,-2,-2,0,-3,-1
1512354319584839,-3,0,-3,-2,1,2,-4,0
1512354319592839,-2,0,1,-1,-1,0,0,0
1512354319592839,-2,0,-1,0,-2,1,0,-2
1512354319607839,0,-2,-2,-1,1,-2,-2,-1
1512354319607839,0,0,-1,0,0,-4,0,-1
1512354319615839,1,-1,0,-1,0,-4,-2,-1
1512354319615839,-2,-2,0,1,2,2,-2,4
1512354319629839,0,-1,-2,-4,-3,-2,-3,-2
1512354319629839,2,-2,-2,-3,0,2,-2,0
1512354319637839,-2,0,0,-1,-5,3,-4,-1
1512354319637839,0,-3,-3,0,0,-4,-1,-3
1512354319652839,-1,-3,-3,-3,2,0,-4,-2
1512354319652839,-3,0,-1,-2,-1,-1,-1,-2
1512354319653839,-4,0,0,0,2,-3,-2,0
1512354319653839,1,0,5,3,-3,4,-2,-4
1512354319667839,-2,-2,-1,-3,-2,0,0,-4
1512354319667839,0,-4,-5,-3,-1,0,-3,-1
1512354319675839,0,-2,0,0,-1,0,-2,-1
1512354319675839,0,0,2,0,1,-1,-4,-1
1512354319689839,2,4,4,3,-3,0,-2,-1
1512354319689839,3,1,4,-1,1,2,-3,2
1512354319698839,-1,0,-11,-1,-3,-2,0,-2
1512354319698839,-3,-1,-6,-8,-2,-3,1,-1
1512354319712839,1,-3,3,4,0,-1,-1,1
1512354319712839,-2,-2,2,0,2,0,1,0
1512354319713839,0,1,5,0,1,1,-3,1
1512354319713839,-3,0,0,1,-2,3,-2,1
1512354319727839,-5,2,-3,-2,-2,-2,0,1
1512354319727839,-2,-1,-2,1,-1,-2,-2,-6
1512354319735839,1,1,2,0,1,-2,4,-2
1512354319735839,-2,-3,-3,-4,2,-2,-2,1
1512354319749839,0,-1,-2,3,2,-1,-1,0
1512354319749839,-1,-2,-3,-1,-3,3,1,0
1512354319757839,-1,2,0,0,2,-1,-3,-1
1512354319757839,0,0,1,0,-1,1,-2,-1
1512354319772839,-2,-4,-6,0,-1,0,2,1
1512354319772839,-4,0,-1,-6,1,-3,-3,-2
1512354319773839,2,-2,-5,-3,-5,-2,1,-4
1512354319773839,0,-5,1,-2,1,-2,0,-2
1512354319787839,4,-3,1,0,-2,-4,0,-1
1512354319787839,-1,4,1,5,-3,-2,-3,0
1512354319795839,0,-1,0,0,0,2,0,0
1512354319795839,0,1,3,-2,-1,0,-2,-3
1512354319809839,0,-1,-5,-5,-2,0,-1,0
1512354319809839,-1,-3,-1,2,-2,-4,0,-2
1512354319817839,0,1,-2,0,-3,-2,1,-5
1512354319817839,1,0,-1,0,-3,0,-2,-1
1512354319832839,-4,-3,0,0,2,0,-4,-1
1512354319832839,0,0,0,-1,-3,2,3,1
1512354319833839,-3,-1,1,-1,-1,-1,-2,0
1512354319833839,0,-3,-5,1,-1,-1,2,0
1512354319847839,-1,0,2,-2,-3,-1,-3,0
1512354319847839,0,-1,0,0,1,-5,-1,-1
1512354319855839,0,-4,-3,-2,-1,1,-3,-1
1512354319855839,-1,3,-3,-1,-1,0,2,1
1512354319869839,0,-3,1,-2,-2,0,4,-5
1512354319869839,-3,0,-1,0,1,0,0,-2
1512354319877839,-1,0,-3,-7,0,-1,0,1
1512354319877839,-2,-1,2,0,-2,0,-4,-1
1512354319892839,-3,0,-5,-4,-3,-1,-2,3
1512354319892839,-1,-4,-5,1,0,-1,1,-2
1512354319893839,-3,-2,2,2,-2,0,-1,1
1512354319893839,0,0,3,4,0,1,0,-2
1512354319907839,0,1,0,1,-4,1,-1,-1
1512354319907839,1,-3,-1,-2,-1,1,-2,-3
1512354319915839,1,-1,-1,0,0,-3,2,0
1512354319915839,1,-2,-4,0,0,0,-2,0
1512354319929839,0,2,2,-1,-2,0,0,-4
1512354319929839,-1,2,-2,-1,-2,0,-2,1
1512354319938839,-1,-2,-2,0,-2,-1,-3,-1
1512354319938839,-1,1,3,0,1,-4,-1,-1
1512354319952839,-4,0,-1,0,0,-1,1,-3
1512354319952839,2,1,-2,0,-2,-1,-1,0
1512354319961839,-1,-1,-1,-2,1,-2,0,0
1512354319961839,-1,-1,2,2,-1,-2,-2,2
1512354319967839,-1,0,3,0,-1,0,0,-1
1512354319967839,-3,1,2,-3,1,0,-1,0
1512354319976839,-3,-3,-2,-2,-1,1,-2,-1
1512354319976839,0,0,-2,-3,1,0,-2,0
1512354319989839,2,-3,1,0,-1,1,-2,0
1512354319989839,-1,-2,-1,-3,1,3,0,-1
1512354319998839,-1,0,-2,-3,-3,-1,3,-3
1512354319998839,0,0,-3,-3,-1,-2,-2,-1
1512354320012839,-4,1,1,-1,0,-1,-2,-1
1512354320012839,-1,-3,2,2,-2,-3,2,-1
1512354320021839,1,-1,5,0,3,3,-1,-2
1512354320021839,0,0,-3,0,-2,3,0,0
1512354320027839,-1,-3,-1,-4,-4,-2,0,-2
1512354320027839,-1,-1,-4,-1,-2,-3,-6,0
1512354320036839,-6,0,1,0,1,2,0,0
1512354320036839,-1,-2,-4,-2,-1,1,1,-2
1512354320049839,-1,0,3,0,3,-1,-1,0
1512354320049839,1,-2,-2,-3,-1,0,1,-4
1512354320058839,1,-1,-3,1,0,1,-1,1
1512354320058839,-2,-4,-5,-5,1,-5,-1,-1
1512354320072839,1,0,-3,-1,4,-1,-1,2
1512354320072839,-1,-2,4,-2,-1,2,-2,1
1512354320081839,2,4,1,2,1,0,-4,-2
1512354320081839,-1,-3,0,-1,-1,-1,3,2
1512354320087839,-1,-1,-3,-3,-2,-4,-1,0
1512354320087839,1,-2,1,-2,0,-1,2,-2
1512354320096839,0,-1,0,1,-4,-1,-1,-1
1512354320096839,1,-4,2,4,1,-1,2,-2
1512354320109839,-1,-1,-5,-3,0,-1,-2,-2
1512354320109839,0,-2,-6,-2,0,-1,1,1
1512354320118839,-3,-2,2,-4,1,-4,-2,2
1512354320118839,-1,1,-4,-1,-2,2,4,-3
1512354320132839,-1,1,0,1,-1,-2,-4,1
1512354320132839,-2,-3,1,2,1,-3,-1,0
1512354320141839,-2,1,0,1,0,2,-1,3
1512354320141839,-3,-3,-2,-2,0,-3,-4,-1
1512354320147839,2,-3,-5,0,2,2,3,-2
1512354320147839,1,3,4,-2,-1,2,-1,1
1512354320156839,3,-1,-2,0,-1,-6,0,-3
1512354320156839,-1,-1,5,1,0,4,-4,0
1512354320169839,-2,0,3,3,-2,-2,-2,-3
1512354320169839,-1,0,-3,-3,-2,-2,-2,-2
1512354320178839,-4,-5,-5,-5,0,-2,2,0
1512354320178839,-1,1,-1,-3,-3,-3,-2,-2
1512354320192839,-1,-1,-2,1,1,2,-3,-2
1512354320192839,2,0,5,1,1,0,1,-1
1512354320201839,-2,-1,5,1,-3,-2,1,0
1512354320201839,-1,-3,-4,0,1,-3,0,-1
1512354320207839,-1,-1,-5,-4,-4,0,1,6
1512354320207839,-3,-1,-1,-2,-2,0,1,0
1512354320216839,1,0,-2,-3,0,-2,-2,-2
1512354320216839,1,0,4,-1,-4,-2,1,-3
1512354320229839,1,-2,4,0,1,-3,3,1
1512354320229839,-3,-2,-2,-1,2,-2,-3,0
1512354320238839,-1,-3,-6,-4,-1,1,1,0
1512354320238839,0,2,-6,-1,-1,2,-3,0
1512354320252839,-5,-1,2,-2,2,-2,-2,-1
1512354320252839,0,2,5,3,-1,3,-2,1
1512354320261839,2,-1,1,0,0,-3,-2,-3
1512354320261839,0,-1,-2,0,2,1,-2,2
1512354320267839,3,-2,-5,-5,-4,3,-1,0
1512354320267839,-2,-2,1,1,3,-1,1,0
1512354320276839,0,-3,2,2,2,-2,0,-1
1512354320276839,1,-1,0,-1,-1,-1,-1,3
1512354320289839,-1,-1,1,3,0,-4,-5,-1
1512354320289839,0,0,-6,-2,-1,-4,-2,2
1512354320298839,-1,1,-4,-4,-2,-2,4,0
1512354320298839,-2,0,-1,-1,-1,3,-1,1
1512354320312839,1,0,-1,0,-3,-2,3,2
1512354320312839,0,1,-4,-3,0,0,2,-3
1512354320321839,-2,2,1,3,0,-1,-3,0
1512354320321839,-3,-2,5,0,1,-2,0,0
1512354320327839,-2,0,-4,-1,2,1,-1,-3
1512354320327839,0,-1,-4,-3,-4,-4,-1,-2
1512354320336839,-1,-2,-3,-4,3,3,-4,-1
1512354320336839,1,-1,-2,2,-1,-1,0,-3
1512354320349839,1,-1,3,0,-3,0,-1,0
1512354320349839,4,-2,9,2,0,-1,-2,-1
1512354320358839,-1,-1,-5,-1,-2,-3,-2,2
1512354320358839,-3,-1,-2,-5,-4,1,-3,0
1512354320372839,-2,0,-2,0,1,0,2,-1
1512354320372839,0,-1,-2,-2,-4,1,-2,0
1512354320381839,-1,1,4,0,-2,-1,4,-1
1512354320381839,0,1,4,1,1,-2,-3,0
1512354320387839,-2,2,-2,-4,-2,4,-2,-1
1512354320387839,-1,1,-1,0,1,0,2,-1
1512354320396839,1,2,-3,-2,0,1,-2,-2
1512354320396839,3,0,-2,-1,-2,1,2,-1
1512354320409839,-3,-2,1,-3,5,-2,0,-3
1512354320409839,-3,-2,-2,0,-2,0,-4,4
1512354320418839,-3,1,-1,1,-2,-1,0,-2
1512354320418839,1,-3,-1,-2,-1,-4,1,-2
1512354320432839,0,-3,-2,1,-2,1,-1,-1
1512354320432839,-4,0,2,3,-1,2,1,1
1512354320441839,-1,1,-7,0,-3,2,-1,1
1512354320441839,-2,0,3,-1,2,-1,-1,0
1512354320447839,3,0,2,0,0,-1,0,0
1512354320447839,-5,-2,-3,-4,-1,-2,-4,-5
1512354320456839,0,2,1,-1,-4,1,-1,3
1512354320456839,-1,3,-4,-2,-1,-1,-1,1
1512354320469839,0,2,5,2,-2,0,0,0
1512354320469839,0,-3,-3,1,1,-1,-1,-3
1512354320478839,3,-2,0,-2,1,-1,1,-1
1512354320478839,-3,-5,-1,-2,-4,-1,-4,-4
1512354320492839,0,1,-2,-2,-2,2,-1,1
1512354320492839,1,1,-1,6,-1,1,0,1
1512354320501839,-1,-3,1,1,-4,0,0,2
1512354320501839,-3,0,3,-4,0,-3,0,0
1512354320507839,0,0,1,-2,-1,-1,-1,-1
1512354320507839,0,-1,-6,-2,0,0,-1,-4
1512354320516839,0,1,1,2,3,-1,-3,1
1512354320516839,0,1,-3,-1,-2,4,-1,0
1512354320529839,1,-2,-4,0,-2,-2,-2,-2
1512354320529839,1,2,-1,-2,1,-1,0,0
1512354320538839,0,-5,3,-1,0,0,-4,-4
1512354320538839,5,-1,-2,2,1,-4,0,0
1512354320552839,-2,-1,4,3,-1,-4,1,1
1512354320552839,-1,-1,-4,-4,-3,-1,-3,-2
1512354320561839,3,-2,-7,-4,1,0,-1,0
1512354320561839,-4,-3,-3,-1,0,2,3,-2
1512354320576839,-3,-2,-1,0,-1,2,-4,3
1512354320576839,-2,-1,2,2,0,-3,-1,-1
1512354320577839,0,0,4,2,-1,0,-2,1
1512354320577839,-2,1,-4,0,1,1,-3,-2
1512354320589839,0,2,-5,-5,-2,-5,-1,-1
1512354320589839,3,1,1,-5,-1,-3,1,1
1512354320598839,1,0,2,0,-1,2,2,-4
1512354320598839,-2,-3,-2,0,-3,-3,-1,-1
1512354320612839,0,-2,-4,-1,1,3,0,-2
1512354320612839,-1,1,2,0,-2,-1,0,0
1512354320621839,0,-3,0,4,0,-3,-1,-2
1512354320621839,-2,-3,1,-2,-1,0,0,-1
1512354320636839,-3,0,1,-2,1,2,0,-2
1512354320636839,-1,-5,-3,-2,-3,2,-2,-1
1512354320637839,-4,-2,-5,-4,-3,2,0,-1
1512354320637839,0,-3,-3,0,-1,-3,-2,0
1512354320649839,-2,-2,-2,-1,-2,-1,-5,0
1512354320649839,1,1,2,3,1,3,1,1
1512354320658839,-2,2,5,1,-3,-2,-2,0
1512354320658839,2,0,-3,1,1,1,1,0
1512354320672839,1,0,-1,-3,0,-1,-3,1
1512354320672839,-2,1,-2,-2,-1,0,-1,-2
1512354320681839,-3,-4,-2,-2,-2,-2,1,-4
1512354320681839,-2,-1,6,-1,-2,-4,-1,2
1512354320696839,-1,-2,-2,2,1,1,1,1
1512354320696839,2,-1,0,2,0,1,-2,-1
1512354320697839,-1,-2,-4,-4,0,-1,2,1
1512354320697839,-2,-1,-3,-1,0,-1,2,-1
1512354320709839,-3,0,0,-2,-2,-1,0,-1
1512354320709839,1,2,1,-1,-2,-1,0,-1
1512354320718839,-2,0,-1,1,-2,-5,0,-1
1512354320718839,-2,-1,-2,-8,-1,-2,0,0
1512354320732839,4,1,1,-4,-3,-4,1,0
1512354320732839,1,-2,-1,-6,-2,2,2,1
1512354320741839,2,-3,0,1,0,1,-2,0
1512354320741839,0,1,6,1,4,4,-3,-1
1512354320756839,-3,-1,-2,2,-1,3,-4,0
1512354320756839,-4,1,-2,0,-3,0,-1,0
1512354320757839,1,2,-3,-2,1,3,1,-3
1512354320757839,-2,-3,-8,-5,-3,-1,-1,1
1512354320769839,0,0,2,0,1,-1,0,-1
1512354320769839,0,0,-2,0,-1,-4,-5,-2
1512354320778839,-2,1,2,0,-2,0,2,1
1512354320778839,1,0,0,4,-3,-1,-2,-2
1512354320792839,-2,0,-1,-3,1,-1,0,-1
1512354320792839,-1,-1,-3,0,0,1,-2,0
1512354320801839,-1,-4,-3,-3,0,1,-4,0
1512354320801839,0,0,-3,0,-1,3,-1,-1
1512354320823839,0,-3,-1,2,-1,0,2,-1
1512354320823839,0,-1,1,0,-1,-1,-1,-1
1512354320825839,-3,-1,-1,-1,-2,-2,-2,-1
1512354320825839,-3,0,2,0,-1,-3,-2,-2
1512354320829839,-1,0,0,3,-3,-3,1,1
1512354320829839,-1,-2,-3,-2,2,3,1,0
1512354320838839,-3,3,-4,-2,1,0,-1,-2
1512354320838839,0,-1,-1,-1,-1,1,1,-1
1512354320852839,-2,-1,-2,-4,-1,-4,2,-1
1512354320852839,-1,-1,-2,-1,1,0,2,-5
1512354320868839,1,-3,0,-1,-1,-5,-3,-1
1512354320868839,-2,2,0,-2,2,1,2,0
1512354320876839,0,-2,-5,-1,0,-1,-2,-2
1512354320876839,4,-1,-4,-3,-2,-5,-3,2
1512354320878839,1,1,2,2,-2,-2,-4,-1
1512354320878839,-1,-2,-1,1,-1,-3,-1,3
1512354320889839,0,-1,3,2,-2,-1,-2,-1
1512354320889839,-1,0,0,0,-2,-4,-1,0
1512354320898839,-1,1,-1,-5,1,-3,2,-1
1512354320898839,-2,0,1,1,-1,1,0,-2
1512354320912839,0,-1,-5,-6,-1,0,-1,-1
1512354320912839,-4,1,-1,0,-1,0,0,-3
1512354320921839,-7,-1,1,-1,0,1,0,0
1512354320921839,1,-1,2,3,1,-3,-2,-3
1512354320935839,-1,2,2,2,-1,1,-1,0
1512354320935839,-3,1,-1,-1,-2,-2,1,-3
1512354320942839,4,-1,-2,-1,-2,-1,-1,1
1512354320942839,1,2,-5,-3,-2,-3,0,-2
1512354320949839,0,0,0,0,1,-1,0,1
1512354320949839,1,-4,-1,-3,0,1,0,1
1512354320966839,0,3,3,2,-1,0,-1,0
1512354320966839,1,0,-3,0,2,0,0,1
1512354320972839,1,-2,-1,1,1,1,-4,-1
1512354320972839,-1,-1,1,2,-1,0,-3,3
1512354320981839,0,-3,-1,-1,0,0,-1,-1
1512354320981839,0,-1,0,-4,-4,2,-3,0
1512354320996839,-2,0,-1,0,2,0,-1,-2
1512354320996839,-3,-1,2,0,-1,1,4,0
1512354320997839,1,0,-4,0,0,1,-2,1
1512354320997839,4,0,-2,-2,-1,0,-2,-1
1512354321009839,-3,-1,4,-1,1,-3,1,-1
1512354321009839,0,-1,0,1,-1,-2,-1,0
1512354321018839,-2,1,-4,1,-3,-3,0,-1
1512354321018839,-2,-5,-1,1,0,0,-2,-1
1512354321041839,1,-4,-2,-2,1,2,1,0
1512354321041839,2,-2,3,1,2,0,-1,-1
1512354321042839,-1,-2,1,-2,0,3,0,2
1512354321042839,1,4,4,3,-2,-4,0,0
1512354321056839,-2,-2,-4,0,-2,-3,-1,-1
1512354321056839,0,-4,-5,-4,0,3,-3,2
1512354321057839,0,0,-1,-2,-1,0,-1,-1
1512354321057839,-2,1,3,-1,-3,-1,0,0
1512354321069839,0,0,0,-1,0,-1,-1,-1
1512354321069839,-1,0,0,2,-1,2,1,1
1512354321078839,0,-3,1,-4,1,1,-2,-1
1512354321078839,0,-1,-2,0,-3,1,-1,2
1512354321101839,-1,-3,-3,-3,-6,-1,1,1
1512354321101839,-4,-3,-2,-1,1,-4,-3,2
1512354321102839,-2,1,0,2,1,1,-3,-5
1512354321102839,1,1,3,-1,3,1,1,-2
1512354321116839,1,-2,-3,-3,1,0,-5,-2
1512354321116839,-2,-1,-9,-3,0,0,1,-2
1512354321117839,-2,-1,2,0,1,-5,-3,-2
1512354321117839,-1,-2,0,-2,1,-2,0,-2
1512354321129839,1,2,1,0,-2,4,1,2
1512354321129839,2,3,3,2,-4,0,-3,-2
1512354321138839,-3,-4,-4,-2,-3,1,0,1
1512354321138839,-2,1,-1,0,-2,-1,0,-1
1512354321152839,0,1,0,0,0,-2,-1,0
1512354321152839,-2,-3,-1,-3,-2,-4,2,-2
1512354321161839,-4,0,-2,-2,-3,0,1,-5
1512354321161839,-3,-4,3,-4,1,2,-2,-1
1512354321176839,-1,-1,-1,-1,0,-1,-1,0
1512354321176839,2,1,-2,0,-1,3,-5,-1
1512354321177839,1,2,0,0,2,1,-2,4
1512354321177839,-2,-2,-3,0,-3,-1,1,1
1512354321189839,-1,-4,6,-1,1,0,-3,-4
1512354321189839,0,-3,-5,-5,1,-2,-1,-1
1512354321198839,-1,-1,-5,0,-4,-1,3,-1
1512354321198839,-4,-5,-5,-2,-2,-2,-3,-1
1512354321212839,-2,-1,0,2,-1,-1,0,1
1512354321212839,0,2,3,2,1,-3,1,-2
1512354321221839,-2,1,-2,1,1,3,-2,-2
1512354321221839,0,1,-6,1,-1,1,-4,-6
1512354321235839,-1,-1,-2,-3,-2,1,1,-2
1512354321235839,-1,-4,-4,-5,0,0,-3,1
1512354321237839,1,-3,-3,-2,-4,-4,3,0
1512354321237839,-1,0,0,0,-2,1,-1,0
1512354321249839,-1,1,0,1,-3,-1,-2,-1
1512354321249839,-2,3,0,4,3,-2,-1,-3
1512354321258839,-1,2,2,0,3,1,-1,0
1512354321258839,-2,-1,-5,-4,0,1,1,-2
1512354321272839,-1,-5,-6,-3,-3,-1,-4,3
1512354321272839,-2,0,2,-1,-1,-2,-3,3
1512354321281839,0,-1,1,6,0,2,1,-1
1512354321281839,-5,-1,1,-3,2,-1,-1,1
1512354321295839,0,-1,-3,-3,0,3,-1,-3
1512354321295839,1,1,-1,-1,-1,1,1,-3
1512354321297839,1,1,0,0,0,-1,-1,1
1512354321297839,-2,-4,2,-1,0,0,-2,2
1512354321309839,0,0,-1,-1,0,-2,1,0
1512354321309839,-1,-1,1,2,-3,0,-3,0
1512354321318839,0,0,-3,-2,-1,-3,2,0
1512354321318839,2,-2,-5,-1,-1,-1,-4,-1
1512354321332839,-5,0,1,-1,-2,-3,2,-2
1512354321332839,-3,0,0,1,0,1,-3,0
1512354321341839,-2,-5,0,0,-1,-2,-2,1
1512354321341839,-4,0,-1,-2,-1,-1,2,1
1512354321356839,-2,0,-4,-3,-3,-2,-1,-2
1512354321356839,1,-1,3,-3,-3,2,0,1
1512354321357839,-1,-1,4,0,-1,-2,0,-4
1512354321357839,0,2,0,-3,2,-3,1,-1
1512354321369839,-2,0,2,0,0,-1,3,-3
1512354321369839,1,-4,-5,-5,0,0,0,2
1512354321378839,-1,2,1,0,-1,-2,-1,-3
1512354321378839,0,-3,1,1,0,-2,2,3
1512354321392839,-1,2,2,-4,-1,0,-3,0
1512354321392839,0,-4,-9,-3,1,-4,-1,1
1512354321401839,-4,-1,-6,-4,0,2,-2,0
1512354321401839,1,-2,0,1,0,-1,2,-2
1512354321415839,0,0,-1,2,1,-4,2,1
1512354321415839,1,2,3,2,-1,-1,1,-2
1512354321422839,0,-3,2,2,1,-2,-1,2
1512354321422839,-1,0,0,-1,-1,-2,-1,-4
1512354321429839,-1,3,-2,2,0,2,2,-2
1512354321429839,-2,0,-2,-3,-2,-2,0,1
1512354321438839,1,-1,-2,-2,-4,-2,-3,-1
1512354321438839,-1,3,4,2,1,0,-1,0
1512354321452839,2,0,0,1,-3,-2,-2,0
1512354321452839,-2,0,-1,0,1,0,-2,0
1512354321461839,2,2,1,-5,-2,-1,-1,0
1512354321461839,-1,-1,-2,-1,-3,1,-1,0
1512354321475839,2,-4,0,-3,-1,-2,-2,1
1512354321475839,-1,-3,-4,-1,0,2,0,-2
1512354321482839,-2,1,2,-1,0,-2,1,-2
1512354321482839,-2,-2,-3,-2,1,4,0,2
1512354321498839,-1,0,-3,-1,0,3,-2,-5
1512354321498839,-1,-1,4,2,0,-3,2,1
1512354321500839,0,1,-2,1,2,1,-3,-3
1512354321500839,0,-3,0,0,-2,0,-1,0
1512354321512839,-4,-2,-2,0,-2,1,0,0
1512354321512839,-4,0,-5,-1,0,2,0,-1
1512354321521839,2,-2,-2,-2,-3,3,-1,2
1512354321521839,2,0,3,5,2,-1,-1,2
1512354321535839,0,1,5,1,2,-4,-3,1
1512354321535839,-4,0,-2,-2,-2,1,-2,-1
1512354321542839,-3,-5,-4,-4,-1,-1,1,-4
1512354321542839,0,3,0,-3,-3,-4,1,-5
1512354321558839,0,-3,-4,1,-1,2,-1,3
1512354321558839,-4,1,6,1,-1,3,-2,-3
1512354321560839,1,-2,-2,-1,-1,-3,2,3
1512354321560839,2,-2,-1,-4,0,1,-1,-1
1512354321572839,-5,-1,-1,-5,-3,0,-1,2
1512354321572839,-2,1,3,2,0,-1,0,-2
1512354321581839,0,0,0,-2,1,-1,-4,-1
1512354321581839,-1,-2,-3,-1,-1,0,-1,0
1512354321595839,3,0,-3,-5,2,-2,-1,-3
1512354321595839,0,-2,-4,-3,-3,-2,0,-1
1512354321602839,-1,3,6,4,0,1,-1,-2
1512354321602839,-1,-2,-2,-3,0,2,-2,3
1512354321618839,-3,-1,-2,0,-1,-1,-1,-1
1512354321618839,-1,-1,2,0,-1,1,-2,0
1512354321620839,1,-4,-5,-2,-2,-1,0,1
1512354321620839,-3,0,5,0,-1,-6,-2,1
1512354321632839,0,1,-5,-1,2,0,1,-1
1512354321632839,1,2,-1,-2,-2,-1,-1,-1
1512354321641839,0,0,-4,-1,-1,3,1,-1
1512354321641839,-2,-1,-2,3,-1,0,-2,-2
1512354321655839,-2,-1,3,2,0,-4,-4,2
1512354321655839,-2,1,0,4,1,-3,2,-4
1512354321662839,2,-2,-3,-1,1,1,2,-3
1512354321662839,0,1,-1,-2,-1,0,-1,-2
1512354321678839,-1,-3,-2,-2,0,3,-1,-1
1512354321678839,0,0,-3,-1,-2,-1,0,3
1512354321680839,1,2,3,-3,-2,1,-1,0
1512354321680839,-3,-3,-5,-1,-2,-2,1,1
1512354321692839,0,0,2,-1,-3,0,0,1
1512354321692839,-1,-4,7,1,1,-1,-2,0
1512354321701839,-2,2,-4,-1,-1,0,-2,-1
1512354321701839,-1,-2,-3,-4,0,0,-1,0
1512354321715839,1,0,0,0,0,0,1,-1
1512354321715839,0,0,-3,-1,3,2,1,-1
1512354321722839,-4,-2,4,-1,-3,-3,-1,-1
1512354321722839,4,-4,1,-1,-2,-2,2,1
1512354321738839,-3,0,-1,0,2,1,-1,-2
1512354321738839,2,-2,0,-1,-2,3,0,1
1512354321740839,-1,-1,1,2,2,-2,-1,1
1512354321740839,1,3,4,3,-3,1,1,-1
1512354321752839,-3,-3,-5,-1,0,0,1,-1
1512354321752839,1,0,-2,2,-1,-1,1,-1
1512354321761839,-2,0,-1,-2,-3,2,1,0
1512354321761839,-3,-1,2,1,2,1,0,-2
1512354321775839,-3,-4,-1,-4,-1,0,-1,0
1512354321775839,-1,-2,-4,-2,3,3,-4,-5
1512354321782839,0,2,2,-3,2,-5,1,1
1512354321782839,-1,2,-1,1,-1,0,-4,-3
1512354321798839,-1,-1,4,2,-2,0,-1,0
1512354321798839,0,-2,-2,-4,-2,-6,-2,-2
1512354321800839,-1,-1,-6,-1,-2,-2,-4,-1
1512354321800839,0,0,-3,-5,-1,2,0,3
1512354321812839,0,2,2,1,0,2,-1,-2
1512354321812839,1,1,6,1,-1,2,2,3
1512354321821839,-3,-1,0,0,1,0,1,1
1512354321821839,0,0,0,1,2,-1,1,-2
1512354321835839,0,-2,-8,-2,-2,-5,0,0
1512354321835839,-2,-1,-1,2,-3,2,0,1
1512354321842839,0,0,2,1,-2,0,-1,-2
1512354321842839,0,1,-4,-1,1,5,-3,-1
1512354321858839,2,0,0,-4,2,0,-1,1
1512354321858839,-2,-1,-5,-2,-4,-2,-2,-1
1512354321860839,0,-2,2,1,1,-2,2,-1
1512354321860839,-3,0,0,0,-4,-1,-2,1
1512354321872839,0,-3,-2,-6,-1,0,-2,-2
1512354321872839,-2,-2,-7,-4,-2,1,-3,0
1512354321881839,0,-5,-3,1,-2,4,-2,-2
1512354321881839,1,2,2,2,2,-2,3,0
1512354321895839,2,1,-3,2,0,2,1,-1
1512354321895839,-2,-1,1,-3,2,0,-2,-1
1512354321902839,-2,-2,-4,-5,1,-1,-2,2
1512354321902839,-1,-3,-2,-2,-3,5,-1,-4
1512354321918839,-3,1,5,2,-1,-2,-2,1
1512354321918839,-3,-3,-3,-5,-3,-1,1,-3
1512354321920839,0,-2,1,4,-1,-2,1,-1
1512354321920839,-3,0,-5,-4,-3,-2,-3,-2
1512354321932839,-1,-3,0,0,-3,-3,1,1
1512354321932839,1,-2,-1,0,1,-4,2,1
1512354321941839,-4,0,0,-5,-3,0,-3,-2
1512354321941839,-5,-2,-2,1,3,-2,0,-1
1512354321955839,-1,3,3,2,-1,0,0,-1
1512354321955839,2,-3,-1,-3,-4,-1,-3,1
1512354321962839,0,-1,-7,2,1,-4,-1,-2
1512354321962839,-4,-3,2,0,-3,-5,1,-3
1512354321978839,-1,-1,-1,-1,-2,-2,-1,-2
1512354321978839,5,0,0,-2,1,-2,-2,0
1512354321980839,1,-2,3,1,-4,-1,-2,2
1512354321980839,1,0,-5,-5,-1,-3,0,0
1512354321992839,1,-3,-1,0,1,-1,1,-3
1512354321992839,-4,1,1,-1,0,1,1,-2
1512354322001839,-1,-1,2,-4,0,3,-2,-2
1512354322001839,0,-1,5,-1,0,-2,-2,0
1512354322015839,-4,-2,-6,0,0,-1,0,0
1512354322015839,0,-4,-1,-1,-2,-3,-1,-1
1512354322022839,-2,2,-4,-4,2,-2,-1,-3
1512354322022839,3,-4,3,2,-1,-4,2,3
1512354322038839,-1,0,1,1,-3,0,-3,0
1512354322038839,-1,2,0,-4,2,-1,-1,-3
1512354322040839,-1,-3,-3,-2,-1,2,1,-1
1512354322040839,-1,2,1,0,-4,-1,-1,-1
1512354322052839,-1,-1,-3,-3,1,0,1,0
1512354322052839,-2,-4,-4,0,-1,1,0,-3
1512354322061839,-1,-1,0,2,0,-1,0,-1
1512354322061839,-1,3,-2,-2,2,1,2,-1
1512354322075839,1,-1,1,0,-1,0,-2,1
1512354322075839,-1,2,1,1,2,-4,-2,1
1512354322082839,-1,-1,-2,-7,0,0,-1,-1
1512354322082839,1,-4,-1,1,-4,1,1,-2
1512354322098839,-4,1,1,0,-2,-1,-4,-1
1512354322098839,1,1,2,2,-1,1,-2,0
1512354322100839,-3,0,4,2,-4,-1,-1,0
1512354322100839,1,-1,-5,-1,2,0,0,0
1512354322112839,2,0,-11,-6,-2,-2,1,-2
1512354322112839,1,-1,-3,-3,-1,1,0,0
1512354322121839,-2,-2,6,2,-1,-3,-2,0
1512354322121839,-1,0,3,0,0,-3,-2,-3
1512354322135839,1,-1,2,0,2,1,-4,0
1512354322135839,-1,-1,-2,-1,-2,2,-2,0
1512354322142839,-1,0,1,0,0,0,1,-1
1512354322142839,2,-5,-1,-2,2,-1,0,-2
1512354322158839,0,-3,-3,-1,2,-1,-1,-1
1512354322158839,-4,-1,-4,2,-1,-2,2,-2
1512354322160839,3,-2,0,-4,0,-3,0,2
1512354322160839,-1,0,1,1,2,4,-8,0
1512354322172839,-3,2,-2,1,-1,5,0,-2
1512354322172839,0,1,3,0,-2,-2,-2,1
1512354322181839,-1,0,-8,-1,0,2,-1,0
1512354322181839,-4,1,-3,-4,-2,3,0,-3
1512354322195839,0,-2,3,-1,-3,-4,1,2
1512354322195839,-1,1,1,2,-1,1,2,-1
1512354322202839,0,2,-1,0,0,-1,2,2
1512354322202839,-2,-2,-1,0,-1,1,-3,2
1512354322218839,0,-2,-4,2,-2,-5,0,0
1512354322218839,-2,-1,0,-4,-1,2,0,-3
1512354322220839,-2,-5,-1,-1,2,-4,-4,-4
1512354322220839,0,3,-1,0,-2,-3,1,-2
1512354322232839,1,-1,0,-3,-4,2,-2,-1
1512354322232839,0,-3,1,-1,1,1,-3,0
1512354322241839,-2,1,-4,-1,-3,-2,2,0
1512354322241839,2,-3,-3,-4,0,2,1,-3
1512354322255839,-2,-2,1,-3,-1,-7,2,-4
1512354322255839,-2,0,0,1,-2,-3,-2,2
1512354322262839,0,-5,-1,-2,-1,4,-1,0
1512354322262839,-3,1,-4,-4,0,-2,-4,2
1512354322278839,-3,-1,0,0,-2,1,-1,0
1512354322278839,-4,0,-2,0,2,2,-2,-1
1512354322280839,-2,5,5,4,-3,-2,-1,-2
1512354322280839,2,0,-1,3,-1,5,2,0
1512354322292839,-2,2,-3,-1,0,-1,-1,1
1512354322292839,0,1,-5,-5,-2,-7,3,1
1512354322301839,3,-4,-1,1,1,0,1,-3
1512354322301839,-1,0,-1,-4,-1,1,-3,-2
1512354322315839,-1,-1,4,2,-1,2,1,-1
1512354322315839,2,-2,2,0,-1,-2,0,-1
1512354322322839,-3,0,-2,-2,-2,-1,0,0
1512354322322839,1,-3,-1,2,1,-4,-2,1
1512354322337839,-1,1,-4,-3,0,1,1,-2
1512354322337839,1,1,2,-2,-5,2,-3,-3
1512354322344839,0,-1,0,1,1,-3,0,1
1512354322344839,-4,-4,2,3,-3,1,-1,1
1512354322352839,0,1,3,1,1,1,-3,-1
1512354322352839,-1,-2,-6,2,1,2,-2,1
1512354322361839,-3,-2,-6,-4,-3,-4,-2,2
1512354322361839,1,-1,-1,-3,-2,1,-1,-2
1512354322375839,1,0,1,2,2,-5,0,-1
1512354322375839,1,-3,-1,0,-2,-2,1,0
1512354322382839,-1,-2,1,1,-3,1,0,2
1512354322382839,-2,0,-7,-6,3,-1,3,-4
1512354322397839,-1,0,0,-1,-2,-2,-2,0
1512354322397839,3,-1,1,-4,-2,-1,2,-1
1512354322404839,3,-1,2,-1,-1,0,0,-1
1512354322404839,-3,-1,2,-2,-4,-1,-3,0
1512354322412839,3,-5,-1,2,2,3,-4,-1
1512354322412839,-4,0,-1,-3,-3,0,4,0
1512354322421839,-1,0,-1,-3,0,0,-3,1
1512354322421839,1,2,5,1,0,-3,2,0
1512354322435839,1,-2,-2,0,1,-4,1,-2
1512354322435839,-4,-3,-6,-3,-1,-1,-6,-1
1512354322442839,0,-1,0,1,-3,1,1,-4
1512354322442839,-1,1,1,2,-2,-1,-1,1
1512354322457839,1,3,1,-4,-2,1,-1,2
1512354322457839,0,3,0,-4,0,1,-6,-2
1512354322464839,0,1,-5,0,-2,1,-1,-4
1512354322464839,0,-1,0,3,3,2,-4,2
1512354322472839,-2,-3,2,-1,-1,-1,-1,-3
1512354322472839,3,1,2,3,0,1,-1,-1
1512354322481839,1,-2,-1,-1,1,0,2,0
1512354322481839,-4,-2,-5,-1,-3,1,-5,1
1512354322495839,-4,1,-2,-1,1,2,2,-2
1512354322495839,-1,-2,-3,0,-1,-3,-1,-1
1512354322502839,-1,-1,2,1,3,-3,-4,-2
1512354322502839,0,0,-2,-3,-3,2,-3,-2
1512354322517839,-2,-6,-6,-7,-4,-1,-1,0
1512354322517839,-6,-3,-2,0,-2,-4,-1,0
1512354322524839,2,2,4,-2,-2,1,1,2
1512354322524839,-1,0,-1,2,-1,0,1,-1
1512354322540839,-1,0,-2,-1,0,0,-3,4
1512354322540839,-2,-2,2,4,-1,0,-1,-3
1512354322542839,1,-2,-5,-1,-1,4,-3,0
1512354322542839,-2,-5,0,0,2,0,2,-3
1512354322555839,-2,-1,-1,-1,-1,2,-2,2
1512354322555839,-1,0,0,-1,1,0,1,2
1512354322562839,-2,1,-1,-2,1,0,-1,0
1512354322562839,-1,-1,0,1,-1,-2,-4,-5
1512354322577839,-2,0,0,2,2,0,-3,-1
1512354322577839,-2,0,1,2,2,0,-1,-2
1512354322584839,-1,-1,6,1,0,-4,-4,-2
1512354322584839,4,-2,-4,-3,2,-3,-1,2
1512354322600839,-1,0,-1,-1,0,0,0,-1
1512354322600839,0,-1,-3,-6,-1,0,-1,-3
1512354322602839,1,0,-1,-2,0,1,-2,-2
1512354322602839,-4,-2,0,0,-1,-2,-2,-2
1512354322615839,0,0,0,-1,0,1,1,-2
1512354322615839,2,-3,0,1,2,1,-4,2
1512354322622839,-2,2,-5,-7,-1,3,-1,2
1512354322622839,1,3,1,0,1,-4,4,3
1512354322637839,-2,0,0,-1,-3,0,0,-2
1512354322637839,0,0,-1,0,0,-1,-4,-1
1512354322644839,2,1,-1,3,1,-3,4,-2
1512354322644839,-2,-1,-1,-2,-1,2,-1,-1
1512354322660839,-1,-2,1,0,-3,-1,-2,-1
1512354322660839,-1,-1,-3,-2,0,-1,-2,-1
1512354322662839,-1,1,0,2,-3,-2,-1,-3
1512354322662839,-3,-1,-5,-3,0,1,0,1
1512354322675839,0,-2,-7,-3,0,-1,-1,2
1512354322675839,-1,0,4,2,-1,-1,3,-3
1512354322682839,-5,-1,0,0,0,4,-2,1
1512354322682839,2,-1,3,-1,2,-1,1,1
1512354322697839,0,-4,-3,-1,-4,2,0,-2
1512354322697839,-2,0,-3,0,-3,-1,-1,2
1512354322704839,-1,-2,-1,-1,-1,-1,0,0
1512354322704839,0,-1,1,-1,-3,-2,-3,-5
1512354322720839,-2,0,-2,-1,0,-2,-1,1
1512354322720839,3,-3,2,-2,0,-1,4,-4
1512354322722839,-3,1,-4,1,1,-1,0,-2
1512354322722839,1,0,4,-1,-1,0,-2,2
1512354322735839,-2,1,-2,0,-2,-3,0,0
1512354322735839,-2,-3,-5,-3,-3,-3,-2,1
1512354322742839,1,-4,2,0,-1,-1,0,-5
1512354322742839,0,3,5,2,1,-2,-1,-2
1512354322758839,-6,0,-2,-1,2,1,-1,0
1512354322758839,0,-2,-4,-2,1,0,3,1
1512354322766839,2,-1,-3,-4,-1,-2,0,2
1512354322766839,0,0,-2,-1,-1,3,1,-2
1512354322780839,5,1,5,-2,2,-4,-1,-4
1512354322780839,1,1,6,1,0,2,0,-1
1512354322782839,-2,-3,-6,-3,3,1,1,-2
1512354322782839,2,2,-3,0,-1,3,-1,-2
1512354322794839,0,1,-1,1,1,0,-5,2
1512354322794839,0,-1,3,1,0,4,1,1
1512354322803839,-1,-2,1,1,-3,-4,-2,-1
1512354322803839,-1,-5,-2,-2,0,-4,0,-1
1512354322817839,-1,0,5,2,-1,-1,2,-4
1512354322817839,-2,2,-4,-1,0,1,0,0
1512354322824839,-1,0,-1,-2,-1,1,-1,-1
1512354322824839,0,0,-7,-1,-3,2,0,-2
1512354322840839,-2,0,4,0,-1,-1,2,-2
1512354322840839,-2,0,1,-2,-1,-2,-1,1
1512354322842839,0,1,-3,0,-2,2,-3,-4
1512354322842839,-2,-2,-5,-3,-1,-2,-1,3
1512354322854839,3,-1,-5,-3,-2,0,3,-2
1512354322854839,-2,3,0,0,-1,0,2,0
1512354322863839,-3,-3,-2,0,0,-1,0,2
1512354322863839,-1,-1,-3,-6,-4,-4,-1,-4
1512354322877839,1,-3,1,2,0,0,-1,0
1512354322877839,1,1,3,3,0,-4,2,0
1512354322884839,-1,-2,7,1,-1,2,-4,-1
1512354322884839,-2,-2,-5,-1,-1,-2,1,1
1512354322900839,2,0,-3,-2,-1,6,-2,0
1512354322900839,-2,2,-1,0,-3,1,-3,-5
1512354322902839,-1,4,-1,-3,1,-1,-2,2
1512354322902839,0,0,5,2,-1,-1,-2,0
1512354322914839,-1,-1,-3,-3,-1,-2,2,-1
1512354322914839,-1,0,-1,-1,3,-1,-1,0
1512354322923839,1,2,4,-1,-1,0,0,-2
1512354322923839,-3,1,-3,5,-1,3,-2,-3
1512354322937839,2,-1,2,-1,0,-1,0,1
1512354322937839,1,-3,-2,-6,-1,0,-3,-2
1512354322944839,-1,-1,-7,-1,-1,1,2,-1
1512354322944839,0,0,2,3,3,-3,1,-1
1512354322960839,-1,-1,0,-2,-1,-1,0,-1
1512354322960839,-1,0,4,1,1,1,1,-1
1512354322962839,-1,0,-1,-3,0,-2,0,0
1512354322962839,-1,-2,-3,-1,0,1,-1,0
1512354322974839,0,-1,-1,3,1,0,-1,-2
1512354322974839,2,-3,2,-3,-3,-2,-2,0
1512354322983839,-1,-3,-5,2,-2,-1,-3,-2
1512354322983839,1,1,2,-2,-3,-1,1,2
1512354322997839,-4,-3,-2,-3,0,0,0,2
1512354322997839,-3,-2,-3,-2,-1,-1,2,-1
1512354323004839,-1,3,-3,-2,0,-4,1,-3
1512354323004839,-2,0,-1,0,2,0,-3,0
1512354323020839,1,2,1,3,-2,-1,-4,1
1512354323020839,1,3,3,1,-4,2,-6,-1
1512354323022839,-1,-1,3,-1,-2,1,-3,-1
1512354323022839,-1,1,-1,0,-1,-1,0,-2
1512354323043839,1,3,-1,-5,-2,0,-1,-1
1512354323043839,-2,-1,-9,-3,0,-3,-3,-2
1512354323045839,0,-2,2,1,0,-4,-4,1
1512354323045839,-2,-2,2,-2,-2,3,0,-2
1512354323057839,-2,-1,0,1,-1,5,-2,-1
1512354323057839,0,-2,-2,1,1,-3,-3,-2
1512354323064839,-2,0,-3,-4,-1,-4,1,0
1512354323064839,-2,-3,0,-4,0,0,-3,0
1512354323080839,-7,-1,0,0,-2,-1,1,-2
1512354323080839,1,3,3,-2,-3,0,5,-4
1512354323082839,3,-2,2,3,0,-1,-3,0
1512354323082839,2,-2,-5,-3,0,0,1,0
1512354323094839,1,-2,-2,-2,-2,-5,0,-1
1512354323094839,-1,-1,-4,-2,1,3,-3,-1
1512354323103839,1,2,1,-1,0,-1,1,1
1512354323103839,-2,1,3,2,0,2,1,-2
1512354323117839,-1,1,-2,-1,1,1,-3,-3
1512354323117839,-3,-4,-1,-3,-1,0,-3,0
1512354323124839,-1,-1,0,-4,-1,0,1,2
1512354323124839,-1,0,-2,4,0,-4,-5,0
1512354323140839,0,1,-3,-3,0,0,3,-2
1512354323140839,-5,1,0,1,-3,-3,3,-2
1512354323142839,-3,0,-1,2,-2,1,3,1
1512354323142839,0,-2,1,1,0,-1,0,1
1512354323154839,-3,1,-2,3,0,-4,-4,-2
1512354323154839,2,0,-1,2,0,0,1,-4
1512354323163839,-1,-4,-9,-3,1,-3,0,1
1512354323163839,-2,3,3,-2,-1,1,-3,0
1512354323177839,0,-2,-2,-1,-2,-4,-2,3
1512354323177839,-1,1,1,-2,-2,-1,-3,1
1512354323184839,1,-2,2,0,-3,3,-1,0
1512354323184839,-2,-1,0,-1,-2,0,0,-2
1512354323200839,0,-3,-2,-5,0,1,1,-2
1512354323200839,-1,0,-5,1,1,-1,-1,2
1512354323202839,0,1,1,1,0,-2,-2,-1
1512354323202839,1,-1,1,1,1,-4,-2,-2
1512354323214839,1,0,-1,-2,0,-4,1,3
1512354323214839,0,-4,-3,-1,1,0,1,0
1512354323223839,-3,2,-4,-2,0,3,-2,-2
1512354323223839,2,2,1,-4,-3,2,-1,-3
1512354323237839,-2,-1,2,4,0,0,-1,-5
1512354323237839,1,1,-1,1,1,0,2,6
1512354323244839,1,-1,5,2,-4,1,1,-3
1512354323244839,-2,-3,-7,-4,-3,0,0,0
1512354323260839,1,-1,-3,-2,-6,-1,1,1
1512354323260839,-1,-2,-2,-1,-2,0,-4,-1
1512354323266839,0,0,1,-3,2,1,0,-1
1512354323266839,0,-2,-1,2,-1,-2,-1,-3
1512354323274839,-1,-2,1,2,1,2,-3,-4
1512354323274839,-1,2,1,2,0,-3,0,-3
1512354323283839,-2,-2,2,1,-4,-4,-2,-2
1512354323283839,-2,0,-2,-3,1,1,-1,2
1512354323297839,-2,-3,-6,-5,-1,1,0,2
1512354323297839,1,0,-1,-3,-2,2,2,1
1512354323304839,-2,0,0,-1,0,1,0,-1
1512354323304839,3,-1,0,1,0,-1,-1,-1
1512354323320839,-1,2,6,3,-4,0,-5,-2
1512354323320839,-1,-2,-1,-2,-1,1,-1,-2
1512354323326839,-1,-3,-11,-8,-1,0,-2,0
1512354323326839,0,-3,-9,-1,-3,0,3,0
1512354323334839,1,3,6,3,5,3,0,2
1512354323334839,2,1,4,6,-2,-3,2,-2
1512354323343839,-1,0,2,0,1,-2,4,-9
1512354323343839,-2,-1,-2,-5,0,-1,-3,-1
1512354323357839,-1,-1,-4,-2,0,1,-2,-3
1512354323357839,-4,-2,-3,-1,0,3,-3,3
1512354323364839,2,-1,-1,0,-1,-5,0,0
1512354323364839,-1,0,4,1,2,0,-2,-2
1512354323380839,2,-1,1,1,-2,-2,0,0
1512354323380839,-3,0,4,-2,-1,0,-1,0
1512354323386839,-1,1,-3,-1,0,1,-1,0
1512354323386839,-2,-2,0,0,1,2,1,-3
1512354323394839,-2,0,-1,-4,0,1,-6,0
1512354323394839,0,-2,-1,1,-2,1,-1,-2
1512354323403839,-3,-3,-4,-3,0,2,-1,2
1512354323403839,0,1,1,-1,-2,1,0,1
1512354323417839,0,-4,3,4,0,2,1,3
1512354323417839,-2,-2,-7,-1,-1,-3,-4,-2
1512354323424839,-3,-1,-6,-1,-2,2,-1,2
1512354323424839,-1,-3,-1,-3,-2,2,-2,-1
1512354323440839,-2,1,-8,-4,-2,0,-1,0
1512354323440839,0,-1,-2,-2,0,0,-2,1
1512354323446839,-3,2,7,3,-6,1,-4,-1
1512354323446839,-1,0,-2,-3,-2,-7,-2,0
1512354323463839,-1,0,-1,-2,1,1,1,-1
1512354323463839,0,-2,-4,1,2,-2,1,2
1512354323464839,3,-2,-4,0,3,-3,-3,-1
1512354323464839,-1,-2,-1,2,1,-2,0,0
1512354323477839,-1,-3,-1,0,-1,-1,4,1
1512354323477839,-1,1,-1,3,0,1,-3,-2
1512354323484839,-1,0,0,-2,-2,5,-2,-4
1512354323484839,1,0,0,-1,-1,1,0,-1
1512354323500839,-1,0,6,2,2,-3,1,0
1512354323500839,-1,-4,-10,-2,-2,-2,2,-1
1512354323506839,1,-1,2,-2,-2,-2,-3,0
1512354323506839,-1,-1,-5,-3,-2,1,2,2
1512354323523839,-1,1,-2,0,2,-2,0,-2
1512354323523839,1,-2,0,-3,-2,-1,-3,-2
1512354323524839,-1,-1,2,1,0,-2,-1,0
1512354323524839,-2,0,2,1,-1,-2,-1,-3
1512354323537839,-3,-3,-4,0,-3,-3,-1,-1
1512354323537839,-2,-1,-2,-4,0,0,-3,1
1512354323544839,0,1,-5,-2,-5,1,1,-3
1512354323544839,0,0,0,-2,-1,-2,3,1
1512354323560839,1,-1,8,2,-2,-1,-3,3
1512354323560839,-1,-1,6,1,1,4,-1,-1
1512354323566839,0,-5,-1,0,-1,1,0,-1
1512354323566839,0,-6,-12,-8,-2,0,-2,1
1512354323583839,-1,-1,-8,-6,-2,-4,-1,-2
1512354323583839,1,0,9,2,1,0,1,1
1512354323585839,3,0,4,2,-1,-2,-1,-2
1512354323585839,-2,1,-1,0,1,1,0,-2
1512354323597839,-1,-5,-9,-6,-2,-3,1,-1
1512354323597839,1,0,0,-1,0,1,0,-3
1512354323604839,0,3,5,6,2,-1,0,1
1512354323604839,0,4,12,3,0,0,-2,-1
1512354323620839,-2,-2,-6,-2,0,5,-3,-4
1512354323620839,0,-2,-11,-6,-1,-4,0,-2
1512354323626839,0,-2,-3,2,0,-4,0,-1
1512354323626839,0,0,-3,1,2,0,-2,-1
1512354323643839,2,1,7,3,-3,0,-2,0
1512354323643839,-6,1,6,1,2,2,-4,-3
1512354323644839,-3,-5,-7,-2,-2,-1,2,2
1512354323644839,-1,-3,3,1,0,0,0,-1
1512354323657839,-1,-3,-6,-6,-2,-1,0,0
1512354323657839,-3,-4,-9,-10,-3,0,0,1
1512354323664839,1,1,-5,-4,-1,-2,2,2
1512354323664839,0,0,2,2,-1,2,-1,-4
1512354323680839,-1,0,8,4,0,0,-3,-2
1512354323680839,1,0,3,0,-3,-3,-1,-1
1512354323686839,-3,1,-3,1,2,1,-1,-1
1512354323686839,-1,-2,0,-1,0,-1,-1,-3
1512354323703839,-2,2,-2,-4,1,2,2,0
1512354323703839,1,-1,1,3,1,-2,-2,-2
1512354323704839,1,1,4,0,0,1,1,-2
1512354323704839,-4,-3,2,-2,-2,0,-1,-1
1512354323716839,-2,-2,-11,-5,-1,0,-3,-1
1512354323716839,-2,-3,-8,-5,-2,0,-3,1
1512354323725839,-3,1,-1,-2,0,-1,-2,0
1512354323725839,0,5,7,4,3,2,-3,0
1512354323740839,2,1,4,2,-1,2,-4,-4
1512354323740839,-2,-2,-3,0,-4,-2,0,1
1512354323746839,0,-4,1,-2,0,-2,0,-2
1512354323746839,0,0,-6,-4,-2,-1,-3,-2
1512354323763839,1,3,1,3,1,-1,-2,1
1512354323763839,3,-1,2,1,1,1,1,-2
1512354323764839,-1,-1,-1,-2,-2,-1,-3,-1
1512354323764839,-3,-3,-4,-5,-1,3,-3,3
1512354323776839,-1,0,-1,-1,-1,-2,-1,-1
1512354323776839,-3,2,5,2,-5,0,-2,1
1512354323785839,-3,-3,2,-3,0,1,-1,-1
1512354323785839,-2,-2,-8,-3,-3,4,0,1
1512354323800839,-2,-3,-8,-4,-2,0,-2,-2
1512354323800839,-3,2,1,-1,0,1,2,1
1512354323806839,2,1,14,3,0,-1,0,1
1512354323806839,-1,-3,-6,2,-4,-5,-2,-3
1512354323823839,-2,-1,-1,-1,-1,-5,1,0
1512354323823839,0,-1,-4,-4,-3,-3,-1,1
1512354323824839,-1,2,-2,2,1,2,0,2
1512354323824839,-3,0,5,3,-1,-3,-1,-4
1512354323836839,1,1,4,2,0,0,0,-1
1512354323836839,0,-4,0,0,2,1,-2,-3
1512354323845839,0,-2,-4,-2,-2,2,1,-3
1512354323845839,1,1,-1,1,-2,1,-2,3
1512354323860839,-6,-3,-2,3,-1,0,-1,1
1512354323860839,-2,-2,2,-3,-2,2,-2,0
1512354323866839,-3,-5,-2,-4,0,0,-3,-3
1512354323866839,0,1,-3,-6,0,-4,0,1
1512354323883839,-2,1,1,1,-3,0,1,0
1512354323883839,-1,3,-2,0,0,-1,1,1
1512354323884839,-2,-3,-9,-5,-2,-6,-2,-2
1512354323884839,1,-2,0,2,1,0,1,-2
1512354323896839,1,3,5,-1,-1,1,-4,-6
1512354323896839,-2,0,1,0,0,1,-1,-1
1512354323905839,0,-3,-9,-2,-3,2,-2,-2
1512354323905839,-2,1,-2,-3,-2,-2,3,-1
1512354323920839,-1,-2,-5,-4,-1,-1,2,4
1512354323920839,1,5,9,5,2,3,3,-4
1512354323926839,-2,2,1,1,3,0,-2,0
1512354323926839,-3,-3,-4,3,-1,0,-2,-4
1512354323943839,1,-1,-1,-5,0,2,0,-1
1512354323943839,-1,0,-6,-3,-3,-4,2,2
1512354323944839,-2,-3,-1,-2,-2,0,1,0
1512354323944839,-3,0,2,0,2,0,-5,1
1512354323956839,0,-1,5,0,-1,-2,0,1
1512354323956839,-1,-2,-2,-1,2,-2,-3,-1
1512354323965839,-1,3,-2,0,-3,-1,0,-2
1512354323965839,2,-3,2,-3,0,-3,2,-2
1512354323980839,-3,-1,-1,-2,2,4,-2,-3
1512354323980839,1,-3,-6,0,-4,-3,-3,-1
1512354323986839,-3,-1,0,-1,0,-2,3,0
1512354323986839,0,-2,-1,-4,-3,-1,1,2
1512354324003839,-3,-3,-6,1,-1,1,2,0
1512354324003839,-3,1,3,-1,0,-1,0,-3
1512354324004839,-2,0,-1,-3,1,-3,-2,-2
1512354324004839,-1,2,6,5,-2,0,-2,0
1512354324017839,0,-2,3,-3,-1,0,1,-5
1512354324017839,-1,-2,-7,-2,-2,1,-2,-3
1512354324025839,0,-2,1,-1,-2,-1,-4,-1
1512354324025839,2,-1,-1,-1,5,5,2,1
1512354324040839,0,3,3,3,-3,1,-1,-1
1512354324040839,0,-4,-1,-3,2,-3,5,1
1512354324046839,1,0,1,0,-4,2,-1,3
1512354324046839,-4,-1,-7,-5,-3,-3,-3,-3
1512354324063839,1,-2,-2,0,-2,-2,3,0
1512354324063839,2,1,-4,-1,-1,-2,2,2
1512354324064839,0,3,2,4,0,0,-1,-2
1512354324064839,-2,-1,-1,1,-1,1,0,1
1512354324076839,4,-1,0,0,2,-5,1,0
1512354324076839,-2,1,7,1,3,5,-3,0
1512354324085839,-2,-7,-8,-4,0,0,0,-3
1512354324085839,0,0,-7,-8,-1,-3,0,1
1512354324100839,1,-1,0,2,2,3,-1,-2
1512354324100839,-2,-2,3,3,1,2,1,2
1512354324106839,-1,4,2,0,4,0,-2,3
1512354324106839,-1,0,1,4,0,-2,2,1
1512354324123839,-2,2,2,-6,-2,-1,-1,-1
1512354324123839,-2,-3,-3,-2,-2,-2,-2,-2
1512354324124839,0,-3,-2,-1,-4,-1,0,-1
1512354324124839,0,0,-4,-3,0,1,1,-2
1512354324136839,-2,-2,5,0,1,2,-1,-1
1512354324136839,-1,-2,-3,2,-4,-1,0,-4
1512354324145839,0,1,-1,-4,-3,1,-3,-2
1512354324145839,2,0,2,3,4,-1,1,-1
1512354324160839,0,1,2,4,1,1,-4,1
1512354324160839,-2,1,0,-13,-7,4,4,-1
1512354324166839,-2,-3,-3,-1,0,4,0,-2
1512354324166839,1,1,5,-3,-1,-2,-3,-1
1512354324183839,-6,-1,1,6,1,2,2,1
1512354324183839,-1,-2,-6,0,3,-3,-3,0
1512354324184839,0,0,-7,-10,-3,-7,-1,-2
1512354324184839,1,-1,0,-3,-5,-3,0,0
1512354324196839,0,-1,-6,-7,1,-4,3,4
1512354324196839,1,3,6,5,-2,-8,-1,-1
1512354324205839,0,-1,7,4,4,1,-1,-3
1512354324205839,0,-2,2,4,3,-1,-1,1
1512354324220839,-2,3,-3,1,-3,4,-5,2
1512354324220839,0,1,-1,3,2,0,1,-2
1512354324226839,2,0,1,1,-1,0,2,1
1512354324226839,-6,3,-5,-3,-2,3,0,-1
1512354324242839,-1,-5,-7,-3,0,1,2,-1
1512354324242839,0,1,-2,1,-1,1,2,-2
1512354324249839,2,1,4,3,1,3,2,-1
1512354324249839,-3,2,0,0,0,0,4,-3
1512354324256839,1,-3,1,-2,-2,1,1,-2
1512354324256839,-1,-4,5,2,2,-2,-3,2
1512354324265839,1,-1,0,2,-1,3,6,1
1512354324265839,0,-4,-6,-4,-6,-7,-3,-4
1512354324280839,2,1,-5,-5,-4,-2,0,1
1512354324280839,-1,1,1,2,-1,-3,1,-1
1512354324286839,-1,-2,1,1,3,0,-4,2
1512354324286839,-3,-2,0,-2,0,3,-2,0
1512354324302839,0,-1,-5,-8,-1,-3,-2,-6
1512354324302839,-1,0,-5,-4,-1,0,-4,-1
1512354324309839,3,-4,1,-5,-3,-8,2,1
1512354324309839,-1,-3,5,3,-1,0,-3,1
1512354324325839,-4,2,1,0,0,-2,-6,1
1512354324325839,2,-2,2,-4,-2,3,3,0
1512354324327839,-5,0,0,1,-2,-5,-5,0
1512354324327839,4,0,-1,2,-1,2,0,1
1512354324340839,0,-1,3,1,0,-1,0,-5
1512354324340839,0,2,-1,-1,-1,0,-2,-3
1512354324346839,0,2,-2,2,0,1,3,-5
1512354324346839,0,-6,-1,-1,0,-2,-3,-1
1512354324362839,3,1,0,0,-4,-3,-2,-1
1512354324362839,0,-4,-4,-3,1,2,-2,2
1512354324369839,-5,-1,1,1,-2,2,0,-3
1512354324369839,-1,-1,-1,-2,1,0,-2,4
1512354324385839,2,0,-2,-2,2,-1,-2,4
1512354324385839,-1,-3,2,-2,0,2,-1,2
1512354324387839,3,3,-2,-4,-2,-1,-3,-2
1512354324387839,-2,0,-3,0,-2,1,2,-2
1512354324400839,-2,-3,-4,1,0,1,1,-3
1512354324400839,-1,-1,0,0,1,1,-1,4
1512354324406839,1,-1,0,-1,1,-1,1,1
1512354324406839,-1,0,-2,-1,-1,0,0,-2
1512354324422839,-2,-2,5,3,1,-1,-1,0
1512354324422839,-2,1,-2,0,-3,2,-3,-3
1512354324429839,-1,-3,-8,-11,-2,-1,-2,-1
1512354324429839,0,3,-2,-5,-1,-1,0,0
1512354324445839,-4,-5,2,5,4,5,1,2
1512354324445839,-2,1,1,-1,0,-1,-1,0
1512354324447839,0,-2,2,6,-2,3,-1,2
1512354324447839,1,0,3,-2,-3,-1,-3,-1
1512354324460839,0,-2,-4,-3,-2,0,-1,-1
1512354324460839,2,-2,0,1,1,1,-2,-2
1512354324466839,-1,1,-1,1,3,0,-2,-1
1512354324466839,-2,1,1,-3,0,-3,-3,-1
1512354324482839,-2,-2,1,0,-1,1,-2,1
1512354324482839,-1,-2,-2,-3,-1,-1,-2,-2
1512354324489839,-4,0,-5,-8,-3,-2,-2,0
1512354324489839,-2,0,2,2,0,-2,0,-2
1512354324505839,0,0,-1,-2,-2,-1,0,-4
1512354324505839,-2,2,2,1,-4,2,-3,0
1512354324507839,-1,2,2,1,0,0,-2,-1
1512354324507839,-1,1,-3,-5,0,-2,-1,-1
1512354324520839,1,0,-2,-1,-1,-2,-1,-1
1512354324520839,1,-2,-3,-1,0,2,2,0
1512354324526839,0,2,4,8,-2,0,-3,1
1512354324526839,2,-3,-2,-1,-3,0,-1,-2
1512354324542839,-5,2,-7,-6,-2,3,1,-1
1512354324542839,-1,2,-2,0,-2,-3,-3,0
1512354324549839,4,-1,1,-1,1,1,1,3
1512354324549839,-2,-2,2,3,2,1,0,1
1512354324565839,1,0,1,-1,-3,-1,-4,-1
1512354324565839,0,-2,0,-1,0,-1,1,-1
1512354324567839,-5,1,-2,-1,1,0,-1,-1
1512354324567839,-2,0,-1,0,-3,2,-1,1
1512354324580839,2,-3,0,-1,-1,-7,2,1
1512354324580839,-1,3,-1,-4,-2,-1,-2,-5
1512354324586839,2,-3,-4,-2,-2,-1,2,-1
1512354324586839,-4,0,0,1,4,4,-1,-1
