timestamp,emg1,emg2,emg3,emg4,emg5,emg6,emg7,emg8
1511884172642864,-2,0,-3,-4,15,53,4,-5
1511884172642864,2,2,5,1,-8,-13,-3,0
1511884172643761,7,5,2,4,-27,-42,1,6
1511884172643761,-4,-2,-8,-6,23,48,2,-3
1511884172644764,-1,-7,-4,-2,-29,-68,-4,6
1511884172644764,-8,-5,4,5,50,76,1,-12
1511884172649777,4,6,-5,-3,-3,4,3,1
1511884172649777,0,-6,-5,-13,-17,-45,-1,3
1511884172653788,-3,2,48,0,-11,-6,-8,-5
1511884172653788,-2,10,-15,-9,15,51,5,-1
1511884172663814,1,19,25,7,-3,-20,-4,2
1511884172663814,3,-1,10,4,-6,5,2,2
1511884172671864,0,0,2,6,3,-26,-3,3
1511884172671864,-1,5,13,-1,-18,-18,2,0
1511884172680584,-3,0,52,4,12,32,0,-4
1511884172680584,5,10,-1,0,-5,-16,-1,2
1511884172694776,-1,7,18,4,7,4,1,-2
1511884172694776,1,8,-28,-1,-13,-15,-4,-1
1511884172708894,-5,-8,-3,-5,12,1,-3,-4
1511884172708894,0,-7,16,7,2,2,0,-1
1511884172750901,-6,-3,-41,-12,-19,-4,-1,-4
1511884172750901,0,1,-50,-6,10,0,0,1
1511884172753912,4,12,8,4,-24,-29,3,4
1511884172753912,4,15,-4,-7,10,35,0,-2
1511884172754912,-7,-42,22,-2,-2,-7,-3,-4
1511884172754912,-1,-6,-14,0,-5,-5,-2,2
1511884172755915,-1,5,13,1,-4,2,0,1
1511884172755915,2,3,66,9,-1,0,1,-1
1511884172759928,4,9,-20,-6,7,3,-1,3
1511884172759928,-4,-5,-5,0,-16,-6,-2,-5
1511884172768948,2,-4,2,2,7,-1,-1,1
1511884172768948,-4,36,42,-3,-4,-9,-4,-3
1511884172774965,0,-16,-18,9,21,4,1,-1
1511884172774965,-2,-5,19,-12,-21,10,-2,-1
1511884172792013,-5,9,-38,-9,-6,1,-2,-4
1511884172792013,-3,-13,-23,-1,10,-5,0,-1
1511884172798060,6,11,17,2,-7,-5,3,2
1511884172798060,-7,-9,-9,0,9,-10,-1,-3
1511884172821090,2,-2,13,1,-1,5,-3,-5
1511884172821090,-2,-15,-26,-3,-8,0,2,0
1511884172822093,1,5,3,3,0,-7,-2,0
1511884172822093,3,2,47,4,-1,0,2,-1
1511884172836130,-5,-9,-5,-2,8,11,-1,1
1511884172836130,0,-12,-27,1,1,-11,1,1
1511884172837134,-1,23,28,-3,-4,-1,-3,-3
1511884172837134,-1,5,9,0,2,3,-1,-2
1511884172858217,0,-8,-7,-1,5,0,1,-2
1511884172858217,-2,-11,-20,-4,-10,-5,0,1
1511884172859193,-1,8,39,8,1,6,1,1
1511884172859193,-7,-6,-19,-5,-1,0,1,0
1511884172881308,20,13,11,-2,3,0,1,3
1511884172881308,2,29,15,7,2,0,0,3
1511884172881783,-5,-11,-21,0,2,3,0,-1
1511884172881783,-2,4,9,3,4,-7,1,1
1511884172895440,-1,7,-1,2,1,6,0,0
1511884172895440,-4,-7,-9,-6,-8,-12,-4,-5
1511884172896443,11,13,-41,0,0,5,3,6
1511884172896443,2,3,-2,-3,-3,-2,0,-2
1511884172918475,-1,5,13,-1,4,0,-2,0
1511884172918475,-1,-13,-13,0,0,3,-1,0
1511884172919501,-5,-2,1,-4,-4,-5,-2,-4
1511884172919501,3,0,-2,3,1,1,1,0
1511884172940543,-8,-6,-9,-5,-2,-2,-2,-2
1511884172940543,-1,-6,-3,1,-1,-1,-2,-2
1511884172941535,-4,-4,4,-4,-1,-2,-3,-3
1511884172941535,3,1,-5,0,0,4,1,3
1511884172955573,-11,-6,6,-2,-11,-2,-7,-25
1511884172955573,5,6,-2,-1,4,-1,1,22
1511884172956576,2,-2,2,-2,-6,2,4,4
1511884172956576,2,4,-9,-3,-5,0,1,-11
1511884172978636,-7,1,-7,-6,-2,-4,-4,5
1511884172978636,3,0,-1,6,-14,-1,4,7
1511884172979666,-18,-24,-9,7,26,-1,-4,-12
1511884172979666,7,5,9,-18,-38,5,-3,-4
1511884173001224,-8,-25,-16,-5,3,-6,1,9
1511884173001224,0,7,5,3,8,2,-4,-12
1511884173001224,3,7,6,5,7,-2,-4,-6
1511884173001224,-6,-8,-8,-8,-10,-5,1,8
1511884173016264,0,-14,-4,2,4,14,16,10
1511884173016264,-6,-9,-3,-1,3,-18,-19,-13
1511884173023257,2,7,1,-13,-29,2,-1,0
1511884173023257,5,5,6,7,10,-8,-2,3
1511884173038297,2,7,2,5,7,3,-12,-5
1511884173038297,-7,1,0,-4,2,22,11,-37
1511884173039300,8,-16,-7,-1,-3,-13,22,56
1511884173039300,-3,5,7,7,6,-12,-10,-13
1511884173061357,4,-1,-7,-9,-1,-3,-4,12
1511884173061357,-8,-15,-6,1,34,6,-3,-30
1511884173061357,-2,10,7,0,-5,13,-36,-30
1511884173061357,9,-3,-3,-8,-18,2,49,53
1511884173075394,0,1,3,13,38,0,4,1
1511884173075394,-1,-4,0,3,-4,21,2,-2
1511884173082948,7,9,-1,2,9,-20,-9,-4
1511884173082948,-10,-5,-4,-5,7,-1,-26,-17
1511884173098460,-1,0,-1,7,13,-6,-3,-13
1511884173098460,6,1,-5,-29,-50,-11,4,23
1511884173099489,-3,3,4,1,6,16,11,-2
1511884173099489,6,11,7,11,2,-2,-5,-6
1511884173120545,1,9,3,2,-6,30,19,-23
1511884173120545,-23,-64,-19,0,-3,-74,-53,11
1511884173121521,17,10,3,2,15,3,11,29
1511884173121521,6,10,5,-7,-2,5,3,0
1511884173135587,-12,-22,-10,-11,-16,3,-1,-10
1511884173135587,1,13,6,15,13,14,3,6
1511884173142578,-7,-6,-1,2,-9,14,10,-21
1511884173142578,-5,-9,-5,0,4,-39,-22,6
1511884173158647,14,18,8,6,-2,9,-21,2
1511884173158647,-2,6,-4,-11,-7,20,23,14
1511884173159651,-10,-13,-10,-13,-11,-10,25,5
1511884173159651,-9,-10,12,22,18,28,8,-26
1511884173181210,-11,-5,-8,-13,-17,-25,-19,5
1511884173181210,1,2,0,0,-7,-12,-26,-12
1511884173182218,10,21,11,7,18,77,-40,-1
1511884173182218,-1,-7,-11,-14,-23,-73,59,39
1511884173195722,1,-12,-3,-3,15,-4,6,-15
1511884173195722,-8,0,-8,-19,-56,23,16,0
1511884173202768,4,4,8,4,19,2,2,-2
1511884173202768,-14,-5,-1,10,18,28,-14,-15
1511884173218783,16,9,-3,-6,-15,-23,4,17
1511884173218783,15,37,4,1,3,-8,-2,4
1511884173218783,-4,-21,-4,-6,-1,-1,24,-3
1511884173218783,-2,8,12,14,8,18,-14,-12
1511884173240842,-4,-10,-2,-13,-41,-6,11,9
1511884173240842,4,7,4,11,59,9,5,1
1511884173241844,-8,-3,-2,17,-50,-17,-12,-18
1511884173241844,13,9,7,-28,-11,-18,-24,9
1511884173254909,0,5,9,22,25,7,-6,11
1511884173254909,-2,-7,-11,-1,-17,-1,47,-7
1511884173262927,-4,-6,-2,-21,-47,-51,-37,-3
1511884173262927,0,-6,-14,-9,-2,18,-8,-4
1511884173278945,1,7,3,27,33,22,17,3
1511884173278945,2,-5,24,0,-22,-28,-14,3
1511884173279446,0,11,-2,15,71,46,29,3
1511884173279446,-7,-17,-16,-38,-75,-11,-13,-12
1511884173301032,2,6,-1,-1,7,-7,-8,-6
1511884173301032,7,4,9,43,22,-18,0,7
1511884173302038,-6,-3,-5,-43,-68,-33,3,2
1511884173302038,4,6,1,14,23,0,-12,-5
1511884173315066,-6,2,-7,-5,17,85,-2,-13
1511884173315066,-3,-22,-3,-14,-15,-10,-7,-3
1511884173323097,2,10,9,0,5,-20,2,0
1511884173323097,0,19,-1,24,34,-2,5,-1
1511884173338131,12,62,17,-20,-11,-33,2,7
1511884173338131,-16,-84,-24,1,-18,8,-5,-2
1511884173339106,-2,7,-8,-15,13,-13,-7,-10
1511884173339106,0,-4,9,25,14,19,5,0
1511884173361165,3,20,-1,-3,24,-10,-4,2
1511884173361165,5,20,0,-4,3,9,-5,1
1511884173362167,-3,-14,2,10,6,-4,1,2
1511884173362167,-1,-4,-6,-2,6,10,0,-3
1511884173375230,-6,-10,6,7,-6,-11,-1,0
1511884173375230,0,7,-2,-45,5,1,0,-1
1511884173382727,-1,-15,-15,-24,15,-4,-2,-2
1511884173382727,2,9,7,7,23,10,4,1
1511884173398863,-4,-20,-5,-18,-8,-13,-2,0
1511884173398863,1,7,5,-5,-11,1,0,-1
1511884173398863,1,6,-8,4,34,8,-3,-3
1511884173398863,-1,-4,-2,-16,-12,4,-2,-4
1511884173420947,-6,-24,-3,-15,-31,-18,1,0
1511884173420947,3,13,1,14,-53,-3,-1,1
1511884173421948,0,5,9,11,28,8,-2,-5
1511884173421948,-1,-3,1,-8,-27,-7,-1,-2
1511884173442980,-5,-20,-15,3,-10,-5,-1,0
1511884173442980,2,19,19,42,34,3,0,0
1511884173443982,-2,-4,1,-13,5,-4,0,-1
1511884173443982,-3,-8,-8,-2,32,4,-3,-3
1511884173458020,2,-1,1,-7,-15,-3,2,2
1511884173458020,4,10,1,6,10,7,2,2
1511884173459022,-1,-2,2,17,12,-1,0,2
1511884173459022,0,-1,-1,0,-15,0,1,0
1511884173481111,-6,-7,-10,-7,5,-3,-4,-6
1511884173481111,0,-3,-8,-50,-52,-9,1,-1
1511884173482109,-3,-11,2,-26,47,10,-1,-4
1511884173482109,3,0,-1,-5,18,5,0,1
1511884173503814,1,6,10,27,-9,-3,1,1
1511884173503814,-6,-9,-18,9,-2,1,-7,-9
1511884173504813,2,6,-3,-4,-24,-7,0,3
1511884173504813,-1,3,9,34,-11,0,-1,-1
1511884173518858,-9,-15,-11,-11,-42,-6,-4,-6
1511884173518858,-1,0,-5,-51,-29,-1,-1,-3
1511884173518858,7,4,-4,-33,55,9,4,5
1511884173518858,-5,-2,-9,-19,-36,10,5,-6
1511884173540914,1,5,18,17,-20,-18,-3,5
1511884173540914,0,5,-3,22,24,-7,-7,0
1511884173541898,-2,-6,1,24,-55,-7,-5,-4
1511884173541898,2,0,5,-7,2,1,0,1
1511884173564025,0,-2,-8,-16,22,12,3,-3
1511884173564025,2,1,-3,9,37,2,-3,-1
1511884173564025,2,2,3,-13,36,8,1,2
1511884173564025,-1,-3,4,-7,-9,-7,-6,0
1511884173578498,2,-5,-10,47,3,2,3,2
1511884173578498,2,3,22,16,4,3,5,2
1511884173579500,-5,2,2,26,-56,-9,0,-3
1511884173579500,-2,-1,2,-21,8,4,-2,-2
1511884173600743,-2,-10,-19,-59,-34,-8,-5,-4
1511884173600743,2,3,-11,-28,67,18,3,0
1511884173601742,0,4,9,-19,-73,-19,-5,1
1511884173601742,0,2,1,37,-35,-6,2,1
1511884173623985,-8,-17,3,26,-66,-14,-6,-7
1511884173623985,2,4,3,16,3,1,4,1
1511884173624869,-6,0,-1,23,11,3,-9,-6
1511884173624869,0,-2,-13,-28,85,4,-2,0
1511884173638845,1,-8,-4,-12,9,1,3,1
1511884173638845,-2,2,-1,15,-17,5,9,0
1511884173638845,0,-1,1,1,0,0,0,2
1511884173638845,1,0,-10,-22,22,3,-7,0
1511884173661070,-1,9,7,2,19,-14,-7,-5
1511884173661070,2,0,3,-24,-48,-11,-3,-1
1511884173661904,1,0,-5,-6,6,1,4,0
1511884173661904,0,2,2,9,8,23,12,-1
1511884173683971,5,15,6,-2,21,21,7,6
1511884173683971,-3,-9,-12,-16,-27,-7,-15,0
1511884173684469,3,9,4,26,3,-19,-2,-1
1511884173684469,2,10,2,3,-27,-16,-4,-1
1511884173698654,-9,-35,-3,-8,35,18,12,0
1511884173698654,21,94,26,25,7,-9,-12,6
1511884173699656,-33,-88,-42,-12,7,21,14,-12
1511884173699656,5,88,4,-1,2,-18,-15,2
1511884173729735,10,47,9,-13,-5,1,8,-5
1511884173729735,-11,-37,-14,-7,21,23,9,6
1511884173729735,19,49,29,29,-15,-34,-11,2
1511884173729735,1,-22,1,-13,-13,7,8,1
1511884173743798,-2,-2,5,29,10,-7,-10,0
1511884173743798,13,43,-2,-67,39,9,5,4
1511884173743798,-5,-66,-12,1,-13,17,11,-1
1511884173743798,-8,-9,-11,-8,-12,21,22,-1
1511884173766831,1,13,2,6,4,-44,-49,-3
1511884173766831,-3,-15,0,21,6,9,8,-5
1511884173767834,8,39,14,-6,-4,8,3,5
1511884173767834,-3,-31,-10,7,7,-20,-9,-4
1511884173780398,3,-6,5,-18,13,19,17,3
1511884173780398,-2,-6,8,27,16,-8,-3,-1
1511884173788919,1,16,0,-4,0,2,-2,0
1511884173788919,-2,-11,1,24,-11,7,4,-4
1511884173803011,9,58,9,32,5,0,3,2
1511884173803011,-34,-114,-38,-58,-8,-8,-6,-10
1511884173803986,9,51,7,18,17,13,14,3
1511884173803986,-2,-14,0,3,-6,-15,-10,2
1511884173827075,0,-4,2,-5,3,-3,-9,0
1511884173827075,2,22,-2,12,17,2,4,-4
1511884173827075,-1,-6,-9,10,-42,6,3,0
1511884173827075,-8,-14,-10,-55,-16,-22,-12,-7
1511884173840110,-7,-24,-4,-6,-25,8,7,-5
1511884173840110,10,43,24,31,16,12,5,5
1511884173848104,-11,-57,-27,-11,-21,-47,-38,-8
1511884173848104,7,35,29,46,0,-9,2,2
1511884173863171,4,-16,-34,0,5,11,7,5
1511884173863171,-13,-9,2,-72,-26,-9,-4,-12
1511884173864146,4,7,-8,-21,1,8,2,1
1511884173864146,7,19,0,-39,19,8,3,5
1511884173886733,-9,-16,-8,27,14,-6,-3,-5
1511884173886733,4,-12,-1,36,-6,10,13,7
1511884173887736,-6,10,5,13,39,-12,-16,-5
1511884173887736,3,15,10,17,-54,-13,-9,-4
1511884173900273,-1,3,-5,-40,-3,8,12,4
1511884173900273,3,4,8,20,-54,-1,0,4
1511884173908294,3,21,5,13,35,6,3,1
1511884173908294,-1,-27,6,8,20,3,1,-2
1511884173923335,3,10,9,-1,15,26,21,3
1511884173923335,-2,-1,-9,-28,4,-35,-18,3
1511884173924310,2,8,-1,-4,-16,21,18,0
1511884173924310,-3,-12,-2,-1,8,8,-1,0
1511884173946392,-10,-15,1,12,-5,-11,-11,-4
1511884173946392,11,32,5,7,-9,4,7,2
1511884173947371,-11,-21,-7,-12,-10,11,-2,-7
1511884173947371,2,-6,-9,27,26,18,10,6
1511884173969430,2,9,12,-11,-5,7,5,0
1511884173969430,-4,-19,-2,29,17,-3,-6,-2
1511884173970433,13,78,22,-11,-20,-11,-6,1
1511884173970433,-12,-81,-22,19,12,3,1,-3
1511884173983473,-2,-7,-2,-4,12,-9,-9,0
1511884173983473,-4,-16,-5,0,16,-1,-3,-2
1511884173984474,7,15,1,12,3,10,11,5
1511884173984474,-2,-16,19,-9,-44,-16,-13,-4
1511884174007537,-1,7,-5,-11,-23,-18,-17,-8
1511884174007537,8,30,4,5,39,9,1,0
1511884174007537,-13,-56,-9,-57,-19,2,5,-3
1511884174007537,14,68,6,21,3,22,16,5
1511884174029596,-13,-68,-25,-31,-2,-46,-32,-6
1511884174029596,2,8,11,10,-24,16,2,-5
1511884174029596,1,-2,-18,18,4,2,3,0
1511884174029596,8,47,15,-15,18,-9,-7,7
1511884174043634,-5,-19,3,-42,-13,-3,0,-3
1511884174043634,-6,-34,-23,-21,-7,9,7,1
1511884174044637,11,53,27,22,-2,-4,0,5
1511884174044637,-22,-76,-35,-38,9,16,7,-4
1511884174066719,5,37,11,26,3,-17,-15,-6
1511884174066719,3,0,3,35,4,-8,1,1
1511884174067721,1,9,19,-23,-8,-9,-9,-2
1511884174067721,7,28,1,9,10,4,7,-1
1511884174089258,-3,-37,-5,-13,0,11,5,6
1511884174089258,-7,-13,-12,-8,-10,-2,0,-5
1511884174090295,-2,2,5,31,2,6,3,0
1511884174090295,1,17,-4,-2,13,-6,-5,-3
1511884174103825,1,6,6,20,-24,-18,-10,-3
1511884174103825,4,29,19,7,3,1,-2,0
1511884174103825,-6,-40,-9,11,23,-7,-7,-2
1511884174103825,-12,-67,-17,-6,-6,-3,-4,-2
1511884174126912,3,30,-8,-24,7,23,15,2
1511884174126912,-3,-15,-3,-7,8,-9,-4,0
1511884174126912,4,9,-4,-41,-32,-6,-3,1
1511884174126912,-3,-1,6,20,5,9,3,-2
1511884174148975,7,11,16,38,-10,-18,-3,3
1511884174148975,-6,-11,-22,5,4,-1,-9,-2
1511884174149948,-2,-2,0,-12,19,2,-2,0
1511884174149948,7,29,2,-12,-9,1,2,1
1511884174163009,4,20,2,22,17,16,11,4
1511884174163009,-3,5,8,-3,15,20,9,-3
1511884174164001,-1,2,1,2,-35,-24,-13,-1
1511884174164001,6,16,0,12,0,-10,-7,0
1511884174187068,-1,10,-7,-10,-17,21,16,4
1511884174187068,0,11,14,16,-6,-17,-9,-3
1511884174187570,-1,-22,0,32,27,1,-1,-1
1511884174187570,1,11,-2,-11,-3,-3,-2,-1
1511884174208644,0,1,2,27,26,18,10,1
1511884174208644,3,-2,-3,-28,-29,-19,-9,-1
1511884174209646,-4,-18,-9,-15,-7,9,6,1
1511884174209646,-4,-8,-3,27,19,-14,-14,-5
1511884174223684,1,-2,-3,-6,0,21,14,4
1511884174223684,2,30,7,14,12,-25,-21,-4
1511884174223684,-8,-65,-22,-5,-34,4,5,2
1511884174223684,-2,5,-4,1,27,1,1,-4
1511884174246746,0,-2,-11,0,5,19,11,2
1511884174246746,5,19,24,31,24,-5,-3,2
1511884174247749,-8,-31,-10,-28,-29,-18,-10,-5
1511884174247749,-4,3,2,-7,-12,0,1,-2
1511884174268830,-1,-17,-11,13,-30,-10,-4,-2
1511884174268830,-1,-11,-10,15,-24,5,4,1
1511884174269806,7,38,12,20,30,10,4,1
1511884174269806,-2,-8,2,-16,-9,3,3,1
1511884174283884,-5,-24,-9,-16,-3,-7,-7,-4
1511884174283884,-2,5,2,24,-22,-10,-5,-3
1511884174284394,3,17,16,23,12,-1,4,2
1511884174284394,-1,-18,-14,4,-8,-6,-3,-1
1511884174306157,-1,-10,21,5,17,-3,-5,-1
1511884174306157,-3,-8,-7,-18,-1,10,9,0
1511884174307161,-4,3,-1,-1,-8,5,1,-3
1511884174307161,5,12,7,34,-10,-14,-7,2
1511884174329191,-1,-9,-6,-20,14,0,-3,-2
1511884174329191,1,6,4,-18,-38,7,6,0
1511884174330194,-1,-8,-12,-33,19,14,7,0
1511884174330194,-1,-8,-6,15,15,-5,-4,1
1511884174343256,3,30,6,-12,-2,-4,-6,-2
1511884174343256,-3,-27,-2,6,-10,-12,-7,-1
1511884174344231,1,33,8,3,40,-2,-6,-3
1511884174344231,-4,-29,-6,-22,-6,3,4,-2
1511884174366316,9,37,15,12,-26,7,8,3
1511884174366316,-9,-19,-18,-42,33,6,2,-4
1511884174366316,-4,-27,-6,19,-5,4,4,1
1511884174366316,-2,4,5,-23,-13,0,1,-1
1511884174389354,2,7,11,25,-8,-12,-9,-3
1511884174389354,3,14,-8,-24,-10,7,7,3
1511884174390383,1,-2,-6,-11,54,2,-5,-1
1511884174390383,2,23,-2,3,-16,0,3,3
1511884174404426,-6,-2,3,0,-5,-7,-6,-3
1511884174404426,-2,-13,-8,-41,-19,0,2,0
1511884174411414,-3,2,1,-11,-11,-12,-8,-3
1511884174411414,-8,-33,-14,-5,-5,1,-2,-2
1511884174425481,-1,16,-1,10,4,8,3,-3
1511884174425481,-5,-28,-12,9,19,1,0,2
1511884174426454,3,14,0,4,-25,-1,0,-2
1511884174426454,-1,5,7,20,50,14,1,1
1511884174449545,-5,-13,-2,-10,-36,-27,-13,-6
1511884174449545,-1,7,0,7,18,6,3,2
1511884174449545,-4,-5,9,19,-65,-11,-6,-2
1511884174449545,1,12,-1,5,6,-6,-2,-3
1511884174463580,2,0,8,16,46,6,2,1
1511884174463580,2,11,0,6,19,5,5,0
1511884174464556,2,4,3,21,3,3,2,0
1511884174464556,5,31,15,-12,-6,-4,-3,-2
1511884174486172,-8,-44,-23,-23,-26,-3,0,-1
1511884174486172,0,6,10,29,4,1,2,0
1511884174487166,2,14,11,40,13,8,2,0
1511884174487166,4,14,-6,-30,-10,-5,-3,-1
1511884174508744,-6,-35,-9,-42,3,-1,-2,-2
1511884174508744,5,12,-2,38,-8,2,6,4
1511884174509716,-3,-12,-3,-18,6,-1,-2,-1
1511884174509716,5,8,-1,0,-14,1,2,1
1511884174522750,0,10,4,13,-2,0,-2,1
1511884174522750,-1,-10,-3,-31,-19,-5,-8,-4
1511884174530789,-1,-1,-4,-4,5,-1,2,1
1511884174530789,-1,36,17,36,-6,-11,-11,-2
1511884174545815,-12,-78,-26,-6,16,8,7,-2
1511884174545815,-6,-1,0,-27,-28,-14,-8,-3
1511884174546814,7,19,-2,-6,22,0,-1,1
1511884174546814,-1,-4,-9,-14,-65,8,11,2
1511884174568993,-2,22,15,5,5,-33,-27,-6
1511884174568993,0,11,-1,17,30,10,4,1
1511884174569876,-4,-20,-7,-15,-17,-2,-3,1
1511884174569876,0,-2,10,23,28,13,10,0
1511884174582911,-2,4,-7,-12,-47,-4,1,-1
1511884174582911,3,5,4,-5,18,10,5,-1
1511884174591434,-1,6,0,6,8,-10,-3,1
1511884174591434,2,-11,-8,-40,-24,-1,1,3
1511884174605974,0,25,2,1,28,12,7,-3
1511884174605974,-2,-24,-5,13,-2,-3,-3,0
1511884174606977,-1,15,2,19,-7,7,7,-2
1511884174606977,-6,-23,-12,-44,-20,-6,1,2
1511884174629040,2,7,-2,-17,-9,-16,-20,-3
1511884174629040,3,26,4,18,-15,-6,1,-1
1511884174630043,-4,-37,2,-2,0,1,1,-3
1511884174630043,-6,-20,-9,13,15,4,1,-3
1511884174643116,7,27,10,20,12,14,11,2
1511884174643116,-11,-40,-7,-6,-9,-5,-7,-3
1511884174651137,0,8,-4,-11,-6,-23,-18,-1
1511884174651137,0,19,10,17,11,3,-3,-2
1511884174666177,-5,-31,-20,-51,-1,2,3,-2
1511884174666177,3,16,9,28,-2,8,9,1
1511884174667142,2,4,-4,-13,-5,-3,-3,1
1511884174667142,-1,1,0,-10,13,-35,-22,-6
1511884174689210,3,4,4,14,-8,11,8,4
1511884174689210,4,4,-5,-9,-13,-9,-7,0
1511884174690209,-7,-3,-8,-36,-3,3,-2,-3
1511884174690209,1,9,3,26,23,6,-3,-3
1511884174703284,-5,-24,-4,-10,-16,-6,4,-2
1511884174703284,-1,-6,-2,-15,0,9,12,3
1511884174711267,-4,-3,2,45,14,-10,-10,-3
1511884174711267,2,9,0,-14,-8,-2,-3,-4
1511884174726305,3,8,4,23,-1,13,12,3
1511884174726305,-6,-8,-3,-15,7,5,0,1
1511884174726305,3,25,1,-10,-12,-11,-5,3
1511884174726305,-8,-49,-8,-5,0,-17,-13,-5
1511884174749361,4,15,3,13,24,7,5,1
1511884174749361,-3,-2,0,13,-9,5,-3,-5
1511884174750364,6,14,10,-9,8,15,12,4
1511884174750364,-6,-23,-5,-1,4,1,0,1
1511884174762398,-2,-11,-13,0,1,-8,-3,2
1511884174762398,10,34,9,-10,10,12,12,5
1511884174771450,-6,-35,-10,-6,-28,2,3,-3
1511884174771450,-3,9,2,25,-7,15,17,1
1511884174785991,-1,-2,0,-5,53,-2,-13,-3
1511884174785991,7,26,-5,-25,26,-11,-11,0
1511884174786994,-2,-18,-11,8,31,12,4,-1
1511884174786994,-3,5,-1,-34,-28,-2,4,-2
1511884174809421,-1,-2,-5,-3,7,16,11,2
1511884174809421,-5,1,4,-3,-49,-11,-4,-3
1511884174809421,6,3,2,20,11,-31,-27,-6
1511884174809421,-1,-2,5,33,15,27,22,4
1511884174822454,12,33,13,11,-14,-4,0,4
1511884174822454,-4,-21,-10,-29,-3,-6,-2,-2
1511884174830476,-12,1,2,13,-13,10,2,-9
1511884174830476,18,32,3,-18,2,-4,1,3
1511884174845516,-3,-29,0,-2,7,-3,-7,0
1511884174845516,7,4,10,34,-31,-3,-2,4
1511884174846519,-2,7,3,-3,15,5,8,4
1511884174846519,0,8,0,-11,3,8,1,0
1511884174868577,-2,11,-6,1,-16,-12,-5,-3
1511884174868577,-8,-27,-8,11,27,13,5,-1
1511884174870583,1,10,-1,-34,-14,-4,-2,-6
1511884174870583,0,1,8,10,-45,-21,-10,4
1511884174891642,-2,2,-2,-1,20,-2,-2,-6
1511884174891642,0,-6,8,38,55,3,-5,-3
1511884174892645,-6,4,-3,-21,-29,21,27,0
1511884174892645,9,-15,-7,-19,9,-16,-17,3
1511884174905190,-7,0,-4,-3,-47,-2,-4,-6
1511884174905190,-1,3,1,-3,2,-10,2,-1
1511884174914215,11,25,11,11,-5,11,14,8
1511884174914215,-8,-37,-10,16,16,8,-7,-1
1511884174929254,0,11,-1,-1,-15,0,1,-2
1511884174929254,2,11,-6,-15,31,-2,-4,3
1511884174930257,0,-15,-2,31,-14,7,4,-1
1511884174930257,-11,4,-9,-27,12,18,16,-3
1511884174951313,5,8,4,5,67,-3,-13,4
1511884174951313,-5,-8,3,0,-61,-5,1,-7
1511884174953319,5,13,-1,-14,58,3,3,5
1511884174953319,-12,-17,-5,-4,-36,-23,-18,-15
1511884174965351,-1,1,4,8,-1,29,27,-2
1511884174965351,1,-2,-4,-19,-6,-23,-19,6
1511884174974374,-1,2,2,-11,-34,-25,-16,-5
1511884174974374,-1,-18,-9,-13,11,10,4,1
1511884174989417,0,1,-1,-21,-9,2,6,2
1511884174989417,-3,6,0,-33,-8,12,5,-3
1511884174990921,-3,-28,-10,9,-28,-13,-10,-1
1511884174990921,2,12,9,8,10,-1,2,1
1511884175011507,-5,1,0,-5,-23,-4,0,-4
1511884175011507,-2,-6,0,-7,-5,-2,-5,-2
1511884175013513,2,3,4,8,-8,-2,-7,3
1511884175013513,4,27,5,17,26,1,0,-2
1511884175025544,-12,-38,-9,-17,-33,-9,-4,-1
1511884175025544,0,-18,-4,16,25,12,8,-2
1511884175034568,-3,0,0,14,0,6,1,2
1511884175034568,0,1,-2,-44,-23,-11,-3,-2
1511884175049608,1,17,-5,-10,-19,-8,-7,-1
1511884175049608,-1,-6,1,12,32,3,0,-1
1511884175050612,-4,-6,-2,-6,14,-1,-9,-8
1511884175050612,2,4,4,22,11,0,7,6
1511884175070664,1,-1,-5,7,-5,-6,-3,-4
1511884175070664,1,-1,-2,-1,-6,-13,-8,-3
1511884175079688,0,13,0,-1,6,13,11,-1
1511884175079688,-4,-18,0,-17,4,0,-4,1
1511884175085706,3,8,8,12,15,-3,-7,-1
1511884175085706,-1,21,2,2,-14,-9,-1,0
1511884175094732,-3,-35,-13,-11,-9,0,2,0
1511884175094732,-8,-34,-12,7,9,1,-1,-4
1511884175108807,3,7,6,15,-14,1,1,3
1511884175108807,-1,0,-1,-16,-9,7,9,-2
1511884175110812,5,18,8,8,6,-15,-9,-1
1511884175110812,1,7,1,-2,-8,7,6,-1
1511884175131870,-5,-13,2,-1,-32,-18,-12,-3
1511884175131870,-1,0,-4,6,17,7,3,-1
1511884175132872,-1,2,5,1,-13,-1,4,-1
1511884175132872,0,0,-4,8,2,-2,-3,1
1511884175144904,1,13,-4,-16,19,0,-3,-3
1511884175144904,-1,-5,5,18,16,4,4,1
1511884175153927,1,5,-3,-1,-16,-6,-5,1
1511884175153927,4,10,7,23,-2,1,2,1
1511884175168971,0,4,6,3,8,2,2,2
1511884175168971,-1,14,0,-9,-21,2,3,-1
1511884175170997,-9,-62,-26,-7,13,-4,-5,-5
1511884175170997,1,2,4,6,-7,-11,-14,-2
1511884175192030,1,5,2,2,12,3,3,3
1511884175192030,-2,-8,-2,-4,-4,-2,-4,-3
1511884175193535,5,23,6,-9,-2,10,9,1
1511884175193535,-7,-7,2,17,1,6,4,-4
1511884175205093,4,6,-1,9,17,6,7,8
1511884175205093,-7,-28,-3,19,0,-6,-4,-4
1511884175214117,-1,4,1,-15,0,-9,-10,-4
1511884175214117,4,12,12,22,-3,3,9,9
1511884175229157,-1,2,-3,2,29,-1,-6,-6
1511884175229157,-1,-1,-9,-8,0,6,0,0
1511884175231163,-1,2,6,16,7,-1,-2,4
1511884175231163,0,2,0,-2,10,9,3,-1
1511884175251215,-3,-10,-5,-25,-25,-6,1,0
1511884175251215,2,5,0,10,13,3,0,-2
1511884175253221,1,4,-1,-31,-34,-7,-2,-2
1511884175253221,3,6,5,14,25,7,2,2
1511884175265254,-3,0,-9,-18,3,2,1,-2
1511884175265254,0,-8,-3,-10,5,3,-4,-3
1511884175274277,5,34,14,38,-21,-3,4,0
1511884175274277,-2,-20,-16,-24,-6,-13,-10,-3
1511884175289319,1,4,3,19,-4,4,3,0
1511884175289319,1,-1,-1,-32,-27,-5,1,1
1511884175290823,1,4,0,0,5,-2,2,2
1511884175290823,0,9,3,1,-21,-1,-3,-3
1511884175311421,-1,-3,4,2,-10,-1,0,-2
1511884175311421,-2,-3,-6,-15,-4,-4,-3,-1
1511884175313427,0,-1,-4,-13,7,1,-2,-1
1511884175313427,1,3,-1,7,5,3,4,0
1511884175325458,-3,-13,0,9,-11,-6,-3,-2
1511884175325458,1,6,11,59,-19,-7,-3,1
1511884175334483,-2,-3,0,-15,37,5,-3,0
1511884175334483,-1,2,-4,-12,3,-2,-3,-4
1511884175349522,0,-4,0,6,-10,11,7,-1
1511884175349522,2,7,0,5,3,-9,-7,2
1511884175350525,-3,-17,-4,17,-9,12,10,-3
1511884175350525,0,8,2,25,9,-1,-1,0
1511884175371581,-3,3,-2,-38,1,0,6,1
1511884175371581,1,-9,-2,-9,-7,-6,-1,2
1511884175373587,-2,4,-6,-17,21,5,0,-3
1511884175373587,1,0,5,-7,-37,-23,-12,-4
1511884175385620,-3,3,-1,12,-16,-4,-2,-5
1511884175385620,-2,-18,-11,-25,-8,0,-4,-3
1511884175394645,3,8,-4,4,-2,5,8,3
1511884175394645,-1,11,6,-8,2,2,1,-2
1511884175409201,-3,-22,-7,20,21,4,-3,1
1511884175409201,2,18,-5,-34,-10,-3,2,0
1511884175410204,-9,-28,-1,-2,-11,1,-4,-4
1511884175410204,-2,9,0,11,6,5,2,0
1511884175431260,5,8,4,0,5,-8,-8,1
1511884175431260,0,3,4,49,-12,5,0,-2
1511884175433266,2,8,-1,-26,10,-3,-1,0
1511884175433266,-2,-1,-6,-18,1,-5,-7,-4
1511884175445298,-7,-36,-11,-4,-4,5,7,-2
1511884175445298,0,8,7,16,5,-1,-2,-3
1511884175454321,-1,7,-3,-22,-14,-10,-7,-1
1511884175454321,3,-3,-5,-18,-18,6,8,1
1511884175469361,-1,11,5,5,0,-8,-10,-2
1511884175469361,-6,-21,-8,-12,8,17,10,0
1511884175470364,2,-3,-2,8,1,1,6,3
1511884175470364,0,-6,1,1,25,-1,0,4
1511884175491927,5,15,-5,-28,-18,-6,-10,-1
1511884175491927,-4,-10,-19,-21,56,11,3,-3
1511884175493428,-1,3,2,20,-2,0,-1,-3
1511884175493428,3,1,3,21,28,10,7,4
1511884175505540,1,14,10,7,21,6,4,0
1511884175505540,-2,-8,0,0,-2,-9,-4,0
1511884175514533,-1,-8,0,6,4,1,-2,-1
1511884175514533,-4,14,-4,-3,-23,-1,-1,-7
1511884175529574,-4,-17,-2,-12,1,-10,-6,0
1511884175529574,-2,-1,-7,-15,-8,-9,-4,0
1511884175530580,3,11,1,19,4,8,3,1
1511884175530580,1,-7,2,-15,19,2,-3,-2
1511884175551634,-1,6,3,7,0,3,0,-2
1511884175551634,2,5,6,13,5,-7,-5,-2
1511884175553637,-1,5,-6,-17,-14,-10,-8,-1
1511884175553637,-5,-22,-6,-7,30,20,13,1
1511884175565722,0,-1,-7,5,5,-15,-9,0
1511884175565722,1,6,10,-16,-20,2,4,1
1511884175574693,0,-1,2,4,-5,-3,0,0
1511884175574693,-5,-3,-5,-28,3,-6,-6,-5
1511884175589311,2,7,-1,-5,-1,10,6,-1
1511884175589311,-2,-4,5,8,-7,-9,-7,-4
1511884175590792,5,12,5,-23,0,12,13,4
1511884175590792,-8,-4,-6,1,-21,-11,-11,-5
1511884175611544,0,-11,-3,-10,-9,-8,-6,1
1511884175611544,2,26,5,21,15,3,1,-3
1511884175613553,-5,-13,3,-13,-5,-3,-4,-4
1511884175613553,-3,1,2,12,-3,-3,-1,-1
1511884175625771,1,8,0,-16,9,3,7,0
1511884175625771,1,-4,5,31,-18,0,1,1
1511884175634606,0,7,9,14,22,-6,-6,-2
1511884175634606,4,-4,2,10,-8,4,8,4
1511884175648844,-1,6,4,-1,3,3,0,-2
1511884175648844,1,1,-4,-12,14,0,-3,1
1511884175655871,-5,-15,-7,-12,-20,-14,-10,-6
1511884175655871,3,15,-1,-10,-1,9,4,0
1511884175671708,3,-4,8,41,11,10,2,6
1511884175671708,-7,-5,-10,-16,-1,-22,-10,-2
1511884175672734,-2,2,1,12,-5,-23,-18,-6
1511884175672734,-4,-16,-11,-19,-8,2,0,1
1511884175685747,-2,4,-1,-5,-9,9,6,-1
1511884175685747,1,0,0,2,-1,17,11,1
1511884175701426,2,7,2,23,1,4,1,2
1511884175701426,3,3,4,-1,6,-6,1,3
1511884175708645,-2,-2,-2,7,16,1,-3,-4
1511884175708645,-1,-13,-6,-27,7,4,2,1
1511884175715464,2,3,-1,23,31,8,2,0
1511884175715464,-3,-15,4,15,3,1,0,-2
1511884175731506,3,12,0,7,32,23,12,5
1511884175731506,2,-7,-1,6,6,-13,-3,3
1511884175733508,-2,8,2,-10,1,-12,-14,-6
1511884175733508,-3,-10,-3,17,-15,-4,-5,-2
1511884175745541,-3,3,-2,-26,-12,-4,-6,-7
1511884175745541,-1,11,-1,-41,-1,12,8,1
1511884175754565,0,-29,-11,-5,-31,4,9,4
1511884175754565,-6,-10,-7,-5,-10,-10,-9,-3
1511884175768601,0,-1,-8,1,-3,-8,1,0
1511884175768601,1,6,2,25,7,9,3,0
1511884175775620,-1,2,1,2,-24,-6,2,3
1511884175775620,6,13,-5,-32,-9,0,2,1
1511884175791665,1,-6,5,25,26,26,22,3
1511884175791665,-4,-16,-11,-27,-38,-16,-13,0
1511884175793670,2,7,5,26,3,-8,-3,-1
1511884175793670,1,7,6,31,-15,0,-2,-2
1511884175814250,-3,4,0,16,-6,-11,-7,-3
1511884175814250,-1,8,10,30,24,18,8,0
1511884175815254,-2,-5,-2,-20,5,6,6,0
1511884175815254,-4,-9,-11,-27,-23,-3,3,0
1511884175828289,-3,-1,1,-14,6,-12,-14,-7
1511884175828289,0,-2,1,4,9,1,-4,-1
1511884175835307,0,6,-4,-16,3,-6,-7,-2
1511884175835307,5,14,4,-3,-4,1,6,1
1511884175851350,-7,-18,-3,2,-18,-11,-10,-5
1511884175851350,-1,-9,-3,2,-36,0,9,4
1511884175853354,-2,-20,1,-7,-1,6,0,-3
1511884175853354,-3,-2,-10,-59,-2,-3,-5,-3
1511884175874411,3,4,-4,-5,-19,-2,1,2
1511884175874411,2,-1,-4,-20,9,-3,-1,0
1511884175875413,-1,3,2,15,16,17,10,-1
1511884175875413,3,6,6,20,-19,-11,-5,3
1511884175888451,1,6,-1,-12,-13,-27,-23,-4
1511884175888451,-6,-16,5,19,25,6,-2,-2
1511884175895470,0,5,-5,-11,-3,2,-1,-1
1511884175895470,0,-12,-4,11,8,16,12,3
1511884175911572,6,20,11,10,3,9,11,5
1511884175911572,2,-2,-2,-5,6,-9,-14,-1
1511884175913578,-1,-4,1,4,-6,-14,-3,-1
1511884175913578,0,16,3,-20,12,-9,-4,-1
1511884175933631,2,-22,-24,-17,75,28,12,7
1511884175933631,1,1,5,8,17,7,3,-1
1511884175935636,-1,-1,-10,-21,-24,3,7,3
1511884175935636,2,18,6,1,-9,-8,-8,-2
1511884175947668,-11,-45,-7,2,-26,-4,-2,-4
1511884175947668,-2,11,-6,-19,-31,-2,-1,-3
1511884175956692,0,-2,2,16,23,0,-1,1
1511884175956692,-3,5,3,6,-6,-8,-9,-8
1511884175971732,-1,2,2,7,-23,1,3,0
1511884175971732,-4,-3,3,15,-1,-15,-9,-3
1511884175972735,0,0,0,-4,3,2,0,0
1511884175972735,-3,-1,2,23,18,14,7,-4
1511884175994294,-4,-4,-6,-22,-15,-1,1,-2
1511884175994294,3,14,5,-7,-8,-28,-18,1
1511884175995798,-6,-7,-7,5,41,4,3,-4
1511884175995798,-5,-24,-8,-19,-20,16,6,1
1511884176007362,4,17,11,22,42,-16,-11,-3
1511884176007362,1,7,-7,2,22,13,7,-2
1511884176022401,6,17,5,1,-3,1,0,2
1511884176022401,0,-17,-7,5,6,5,0,0
1511884176031425,-2,-1,4,-16,-33,-7,0,-2
1511884176031425,4,7,0,-8,4,-1,9,1
1511884176033430,-5,-13,-4,7,-28,-8,-6,-1
1511884176033430,3,5,5,34,7,-3,-3,-3
1511884176054487,-1,7,-1,-35,3,0,-2,0
1511884176054487,-2,-6,-1,-1,-17,18,9,-2
1511884176055489,-1,11,7,-8,11,-9,-5,4
1511884176055489,-2,-9,-1,13,-10,-6,-2,2
1511884176067521,0,-7,-5,-6,-47,-1,1,-1
1511884176067521,-1,-1,-4,4,-13,9,3,-3
1511884176076545,1,3,2,11,-13,13,12,4
1511884176076545,0,-4,-1,-13,-1,-18,-12,-2
1511884176092088,2,9,-3,5,7,-8,-6,-2
1511884176092088,-1,1,0,19,7,12,10,3
1511884176093593,-1,-10,-7,-47,-28,-3,-1,-4
1511884176093593,-2,0,0,14,29,-4,-2,0
1511884176113774,-1,23,6,10,-37,10,7,-2
1511884176113774,-4,-34,-7,1,2,-20,-9,-2
1511884176115779,2,2,2,3,-20,-9,-9,-3
1511884176115779,-5,0,-1,-4,28,6,-1,-4
1511884176127811,2,4,1,-3,3,10,6,6
1511884176127811,-1,-6,-2,-4,-3,5,3,2
1511884176136834,2,12,5,19,2,-20,-14,-4
1511884176136834,-5,-31,-7,-38,-18,3,5,2
1511884176151875,2,15,8,22,10,0,-1,-2
1511884176151875,-2,-15,-8,-8,-6,5,7,0
1511884176152878,-9,-15,-8,-7,3,-3,-11,-4
1511884176152878,5,18,6,35,21,-7,-4,2
1511884176173933,-5,-12,-7,-29,-29,-6,-3,-2
1511884176173933,-2,12,3,-11,3,-7,-5,-1
1511884176175939,2,0,-2,-1,0,16,11,-2
1511884176175939,1,3,7,28,-19,6,6,0
1511884176187973,1,0,-5,-29,30,-4,-1,2
1511884176187973,-4,-23,-7,8,11,0,-4,-4
1511884176196998,-9,-11,-4,-13,-24,-6,-6,-6
1511884176196998,2,6,2,20,26,15,6,1
1511884176212039,0,5,2,12,-24,-15,-7,-1
1511884176212039,0,13,5,12,-11,-3,0,0
1511884176213042,2,-13,-6,16,34,11,7,0
1511884176213042,0,5,-1,-9,-14,-22,-16,3
1511884176234098,-1,0,2,12,23,11,4,-1
1511884176234098,3,6,6,4,3,-3,-4,0
1511884176236103,-11,-25,-3,9,5,-2,-1,-1
1511884176236103,2,25,1,-20,8,14,14,1
1511884176248135,-7,-48,-18,-14,-46,-10,-3,-4
1511884176248135,3,13,8,10,7,-4,-2,1
1511884176257159,2,7,-6,-44,16,-2,-3,-1
1511884176257159,-2,0,3,5,-6,2,10,1
1511884176271223,2,17,11,15,23,6,1,2
1511884176271223,-1,-15,-5,-8,-13,-13,-14,-6
1511884176273201,3,-5,0,13,-1,4,7,4
1511884176273201,-4,-7,-6,-4,-8,-2,-6,-3
1511884176294294,1,2,1,15,19,-2,0,0
1511884176294294,-2,-1,-7,-25,-24,6,4,0
1511884176295790,2,12,3,-2,19,0,0,3
1511884176295790,2,-6,-1,-11,-34,-16,-10,-2
1511884176307406,2,6,7,16,16,6,4,-1
1511884176307406,-3,-6,-2,-2,-38,5,1,-1
1511884176316429,-2,0,3,52,3,-7,-4,3
1511884176316429,-8,-27,-12,-33,-20,-3,-3,-4
1511884176331442,-1,0,2,-8,0,-1,2,3
1511884176331442,1,13,7,9,10,2,-1,-2
1511884176333448,2,7,2,4,-2,9,9,1
1511884176333448,-2,-1,-4,-15,-8,-7,-1,-4
1511884176354529,-3,-5,-3,5,1,3,-3,-2
1511884176354529,1,18,4,-1,24,-6,-6,0
1511884176355514,-1,-28,-7,-9,-15,7,2,0
1511884176355514,4,12,2,-13,10,-1,-1,1
1511884176367538,-3,-17,-8,-13,2,-4,-8,-2
1511884176367538,-2,2,-4,-4,9,4,8,3
1511884176376562,2,10,3,-2,0,-1,-1,-1
1511884176376562,-1,-2,2,35,23,11,4,0
1511884176391631,-5,-6,-4,-12,-2,-8,-8,-4
1511884176391631,1,1,3,-21,-39,-3,0,1
1511884176393636,-1,-6,-6,-8,7,-8,-4,1
1511884176393636,2,0,0,-11,-29,-1,3,1
1511884176414192,0,5,1,14,-7,-3,0,-1
1511884176414192,2,6,5,17,29,3,1,1
1511884176416171,3,5,5,-8,0,6,3,1
1511884176416171,1,26,6,7,-1,-3,-7,-1
1511884176428230,-2,-30,-11,10,-1,-2,-1,-1
1511884176428230,-8,-20,-7,-23,-4,-3,-3,-5
1511884176436251,0,8,-4,-11,-6,1,1,-3
1511884176436251,3,2,3,10,-11,-5,-2,0
1511884176451264,-2,1,0,0,-1,-3,0,0
1511884176451264,0,3,2,5,11,-2,0,-3
1511884176457310,-1,-1,-8,-17,-1,0,-4,-4
1511884176457310,0,-2,-1,0,13,-1,2,3
1511884176474353,0,5,1,6,1,-1,2,-1
1511884176474353,0,-9,-5,4,-19,-7,-2,-2
1511884176475358,-1,7,1,1,-2,0,1,-1
1511884176475358,-3,-5,-4,-29,-17,-4,-1,-3
1511884176487908,-2,1,1,4,-15,0,-1,-2
1511884176487908,-2,-2,-10,10,3,-5,-2,2
1511884176496914,-1,2,13,27,-6,-1,-3,-5
1511884176496914,-5,-11,-15,-57,-17,-4,-2,-3
1511884176512120,-1,1,7,27,8,1,-2,-1
1511884176512120,3,7,-3,12,18,5,6,3
1511884176513067,-3,0,-4,2,-28,-14,-13,-4
1511884176513067,-1,-3,-1,56,25,11,10,3
1511884176534137,-5,-7,-9,-23,-29,-22,-16,-7
1511884176534137,4,4,-2,34,-20,-5,-4,1
1511884176536129,3,0,-6,-46,-9,3,4,3
1511884176536129,-1,3,6,22,7,2,3,0
1511884176548159,4,14,17,24,11,10,7,2
1511884176548159,-7,1,-3,-4,-3,-1,0,-3
1511884176557186,2,4,-1,16,15,3,2,0
1511884176557186,-3,-17,-9,-18,4,0,-4,-2
1511884176571270,1,16,0,-24,9,2,3,0
1511884176571270,-1,-10,-1,2,8,0,-5,-3
1511884176578237,0,3,0,-5,19,1,2,5
1511884176578237,-2,4,5,-1,8,-9,-7,-7
1511884176594390,0,1,-10,-4,-22,-2,-2,4
1511884176594390,5,2,5,18,26,-2,-2,2
1511884176595840,-3,1,1,-21,-2,5,3,-1
1511884176595840,5,13,6,6,10,4,0,1
1511884176607979,-2,-20,-8,-6,-19,-2,-3,-4
1511884176607979,-2,7,7,-15,12,4,4,-3
1511884176617001,3,20,-5,25,16,3,0,-1
1511884176617001,-7,-33,-16,5,-24,-5,-1,1
1511884176631042,2,7,5,-38,7,-6,-7,-1
1511884176631042,-2,-2,-5,-9,-9,0,0,-1
1511884176638105,-1,-2,2,14,15,-1,-3,-2
1511884176638105,6,27,20,43,9,8,1,1
1511884176654218,-4,-19,-19,-11,3,1,2,1
1511884176654218,0,-6,0,-17,14,-4,-3,-2
1511884176656122,-1,-3,-2,-28,3,1,0,-1
1511884176656122,2,10,-4,19,5,-2,-1,0
1511884176668139,-4,-17,5,28,8,8,8,0
1511884176668139,4,24,9,-28,-10,-10,-9,-1
1511884176677162,-5,-19,2,44,-3,1,1,-3
1511884176677162,-3,-11,-12,-15,13,2,0,2
1511884176691337,-1,10,5,1,-9,-4,-1,-4
1511884176691337,-4,-4,-4,5,3,2,-2,-4
1511884176697747,4,10,-1,-13,-6,-2,0,1
1511884176697747,-3,-10,9,-12,-26,-6,-4,-1
1511884176713937,-1,1,-2,10,23,2,-1,-1
1511884176713937,0,-6,-2,1,-7,7,2,2
1511884176715939,-1,-7,-1,-10,-15,-6,-3,-2
1511884176715939,-2,3,1,-15,-2,-2,-3,-4
1511884176727972,0,-4,-4,7,7,0,0,-2
1511884176727972,-1,-6,-2,-14,-8,0,1,1
1511884176736997,0,-4,3,4,1,9,1,0
1511884176736997,-4,0,-3,-4,3,-2,-2,-4
1511884176751033,4,12,4,3,0,0,2,4
1511884176751033,-3,-8,-4,4,-2,3,1,1
1511884176758052,-1,-1,-2,-8,-1,-6,-8,-9
1511884176758052,4,4,6,5,-1,-1,-2,-3
1511884176774094,-3,2,0,2,20,12,8,13
1511884176774094,-5,-10,-2,-2,-40,-21,0,3
1511884176776100,10,8,-2,-4,-5,-5,-6,-4
1511884176776100,4,9,6,0,-13,-12,-16,-26
1511884176796683,-9,-12,2,6,17,38,17,19
1511884176796683,8,1,-2,-1,-6,-29,-3,3
1511884176797686,1,-4,-2,0,-15,-66,-12,1
1511884176797686,1,4,-2,-18,-19,-4,-1,-4
1511884176812038,-4,4,-1,-33,3,12,-5,-11
1511884176812038,1,-1,-2,8,6,22,8,0
1511884176813021,-1,-3,2,29,7,-2,2,0
1511884176813021,3,0,-5,21,-52,9,2,6
1511884176834099,-2,2,-1,38,-9,-42,-11,-6
1511884176834099,-4,-1,4,5,20,39,6,0
1511884176836102,-3,-4,-3,-9,-21,-1,2,-6
1511884176836102,-3,-5,1,-6,18,3,6,5
1511884176856158,3,2,-2,-20,-7,14,2,3
1511884176856158,3,-1,-4,-27,12,-5,-6,-6
1511884176858140,-6,-2,2,-14,16,17,7,1
1511884176858140,-10,-5,-3,-3,17,6,3,2
1511884176871168,7,1,-1,-5,-16,-14,-5,-4
1511884176871168,-3,3,-1,6,22,-7,-2,1
1511884176878188,5,-4,-3,-24,4,12,4,8
1511884176878188,-20,-2,-2,-26,17,11,0,-4
1511884176894234,20,2,4,-50,5,-13,-5,-2
1511884176894234,-3,-2,-1,-84,11,-5,-3,0
1511884176895737,-1,-1,-1,-57,-11,21,7,-2
1511884176895737,8,-8,-5,-37,-24,-18,-11,0
1511884176916322,-6,4,3,21,14,9,4,-9
1511884176916322,-3,-3,-1,42,15,-5,-11,-1
1511884176918327,-3,1,4,63,17,0,-2,-3
1511884176918327,-5,-6,-2,45,24,11,22,5
1511884176930386,-2,2,-1,51,-21,-8,-16,-2
1511884176930386,0,-2,-6,14,7,-6,-1,-2
1511884176939383,-6,-1,-1,37,-31,-5,-3,2
1511884176939383,12,2,-3,17,12,6,1,5
1511884176954423,2,4,10,-6,-11,-10,2,6
1511884176954423,-14,-11,-17,-2,-56,-17,-20,-18
1511884176955426,-5,-4,-5,0,9,6,5,5
1511884176955426,6,2,4,-3,13,0,5,3
1511884176976520,9,1,7,12,4,3,2,1
1511884176976520,0,6,9,20,-10,-13,5,5
1511884176978487,-10,-12,-22,-1,-23,15,-12,-10
1511884176978487,3,5,11,4,11,6,1,8
1511884176991049,-4,5,10,-27,-3,5,1,-7
1511884176991049,0,1,2,-20,-24,-35,-4,5
1511884176998067,6,10,12,-5,14,13,8,6
1511884176998067,-11,6,8,75,-17,-5,-9,-12
1511884177014443,6,-15,-27,-43,13,-2,2,0
1511884177014443,-8,-17,-8,-51,10,11,12,-1
1511884177015453,7,2,10,27,16,8,1,8
1511884177015453,-5,8,-8,-22,-14,-32,-27,-11
1511884177036501,-12,-33,-10,10,-12,-4,-5,-7
1511884177036501,1,-1,-4,38,2,14,11,0
1511884177038500,2,22,26,13,-6,-4,0,1
1511884177038500,-4,-28,-39,-92,27,12,16,0
1511884177050538,7,38,25,19,10,-7,-7,11
1511884177050538,-16,-38,-28,-17,-37,-22,-14,-12
1511884177059562,-7,8,-16,-35,-11,16,-6,-15
1511884177059562,7,10,11,11,41,-3,-4,6
1511884177074602,-10,4,-11,3,-14,1,1,-8
1511884177074602,15,25,25,42,7,19,20,10
1511884177075577,2,27,8,-4,4,7,20,-5
1511884177075577,-4,-15,-14,-17,-7,-6,-11,-1
1511884177096686,-1,26,1,-12,-45,-56,-49,-8
1511884177096686,-30,-42,-13,68,0,7,-9,-15
1511884177098697,4,-26,-8,-65,3,1,13,4
1511884177098697,21,64,19,-2,-7,19,12,-2
1511884177109726,-37,-57,-29,46,29,2,-8,-4
1511884177109726,21,54,-2,-90,-3,-4,-7,9
1511884177118778,19,81,47,4,12,-5,-4,9
1511884177118778,8,-35,-27,38,14,16,16,10
1511884177133790,-41,-89,-57,-18,-18,8,9,-12
1511884177133790,21,97,55,27,23,12,2,6
1511884177135795,-31,-69,-59,15,1,5,18,4
1511884177135795,65,120,77,10,-9,-25,-24,15
1511884177156851,18,63,58,18,10,10,11,6
1511884177156851,-71,-75,-68,-15,7,14,3,-13
1511884177157855,1,110,43,-3,-3,-15,-18,-30
1511884177157855,15,83,21,0,-11,2,9,23
1511884177169887,18,-4,11,-23,1,11,20,15
1511884177169887,4,2,3,17,12,13,6,3
1511884177178911,-4,-2,-6,6,11,-7,-12,2
1511884177178911,-2,5,-35,-21,-14,-11,-5,-13
1511884177194475,-6,-26,-23,5,18,12,-2,-8
1511884177194475,0,23,0,-13,-2,16,17,1
1511884177195979,-5,-1,-6,7,18,-10,-6,-9
1511884177195979,4,59,28,3,-35,-13,-15,10
1511884177216565,-1,-49,-29,-14,25,-14,-4,-2
1511884177216565,26,63,34,13,8,12,10,4
1511884177218570,-18,-101,-37,-9,-12,1,-4,-21
1511884177218570,-16,-17,-8,1,26,23,15,9
1511884177230627,25,89,31,9,-21,16,30,20
1511884177230627,-5,-40,-8,-21,-15,-16,-27,-14
1511884177239627,24,26,20,8,1,-6,2,17
1511884177239627,-40,-93,-28,-26,0,-1,-5,-25
1511884177253691,1,23,-3,-60,-4,-5,8,-1
1511884177253691,34,72,38,-34,-1,-11,-21,9
1511884177255670,-21,-80,-33,-25,-5,1,-5,-1
1511884177255670,-22,-33,-16,-6,-3,3,3,-18
1511884177276747,13,55,9,-4,-1,-2,-13,12
1511884177276747,4,-46,-6,14,-11,-7,5,-2
1511884177277755,-3,7,-2,28,-2,5,11,6
1511884177277755,-13,-3,-8,35,23,-4,-7,-2
1511884177290293,2,-7,4,30,-39,8,12,-6
1511884177290293,1,30,-1,29,47,1,3,-5
1511884177298837,1,20,1,11,-27,-16,-21,2
1511884177298837,-3,-34,-7,3,2,27,37,5
1511884177313897,1,48,20,13,13,-25,-28,-14
1511884177313897,8,12,-3,2,9,-21,-32,-3
1511884177315883,3,-51,-15,-14,-36,-2,13,8
1511884177315883,7,69,24,33,45,2,-3,3
1511884177336967,-13,-15,1,-9,-19,-27,-30,-16
1511884177336967,-15,-50,-20,-11,-21,-1,2,-4
1511884177337954,12,44,14,2,27,9,0,4
1511884177337954,-4,-29,-5,0,-9,6,11,-5
1511884177349997,5,20,2,13,10,15,13,5
1511884177349997,3,-8,-7,-22,-12,-1,0,2
1511884177358998,6,20,15,-3,-15,-4,0,1
1511884177358998,-11,-24,-4,-10,-14,-11,-11,-2
1511884177374066,-3,-21,-5,9,-1,8,6,-2
1511884177374066,8,2,6,46,-17,5,7,7
1511884177376066,-2,8,-7,-49,-9,-7,0,-2
1511884177376066,-1,-2,-4,-12,-33,-15,-10,-6
1511884177396658,-1,-14,-3,1,26,12,0,-1
1511884177396658,2,-2,-4,-6,-36,5,18,1
1511884177398663,-3,7,-2,7,15,-16,-18,-2
1511884177398663,0,6,-2,-20,-16,-17,-19,-6
1511884177409872,1,7,4,-4,-23,8,12,1
1511884177409872,6,-4,-4,5,9,10,7,2
1511884177418885,-6,-7,5,28,5,2,-1,-3
1511884177418885,-1,-27,-9,-37,6,5,3,3
1511884177433932,-1,9,-4,-6,14,6,10,1
1511884177433932,1,10,8,10,1,-4,-4,-2
1511884177435938,8,21,11,5,-1,0,1,2
1511884177435938,-5,-34,-15,12,-7,-4,-2,-2
1511884177456982,-9,-2,-1,11,-48,-12,-5,-7
1511884177456982,-5,-30,-11,-16,16,-1,-3,-3
1511884177457972,1,27,2,4,-1,1,-2,-3
1511884177457972,-3,-11,2,13,-10,-1,1,-1
1511884177470032,2,-5,-4,3,4,-4,-2,0
1511884177470032,-3,13,-1,-13,-2,-2,-1,-2
1511884177479029,4,-2,-5,3,5,3,3,3
1511884177479029,-3,-6,0,-6,-7,-3,-1,-1
1511884177493611,0,-1,-2,-3,22,8,0,0
1511884177493611,1,12,4,3,-6,-2,0,2
1511884177500705,-3,-13,-7,-14,9,2,5,3
1511884177500705,0,-2,9,5,0,-8,-11,-4
1511884177516747,-1,4,-8,-16,-1,4,11,-1
1511884177516747,-2,2,4,6,14,4,-4,3
1511884177517753,-5,-14,-2,12,-21,-7,-7,-6
1511884177517753,-1,18,3,-5,-3,-18,-18,0
1511884177529785,1,-2,1,23,8,1,1,-2
1511884177529785,1,1,0,12,12,0,3,2
1511884177538809,1,3,-2,-20,-6,7,6,1
1511884177538809,1,0,0,-1,-12,7,6,2
1511884177553864,3,-3,-9,-14,32,5,-1,4
1511884177553864,-2,-5,8,23,9,15,20,-2
1511884177560871,1,7,0,6,2,-7,-15,3
1511884177560871,-3,-6,-8,-6,11,2,2,-5
1511884177577012,1,-1,-1,1,-13,-5,-2,-1
1511884177577012,-1,5,-1,-9,-2,2,2,-2
1511884177577910,-3,-4,-3,-10,-6,8,8,-1
1511884177577910,0,-1,0,12,32,4,0,2
1511884177590555,-1,2,1,-4,-1,-1,-2,0
1511884177590555,-1,1,-2,5,-22,-6,-6,-3
1511884177599594,-3,-4,1,-16,20,10,11,-3
1511884177599594,-2,-7,-4,-3,-26,-13,-16,-3
1511884177613830,1,1,-3,-25,7,-5,-1,1
1511884177613830,1,-1,1,-17,2,2,4,0
1511884177620654,-2,-6,-7,10,1,-3,3,3
1511884177620654,-1,1,-3,-12,-4,12,3,1
1511884177636717,-3,-1,6,-6,-4,-18,-17,-8
1511884177636717,2,-1,-5,1,-1,-1,0,-2
1511884177638702,-1,-1,-1,6,-7,13,13,1
1511884177638702,0,-1,0,6,6,-29,-18,-1
1511884177650731,0,-1,-1,-4,11,8,4,1
1511884177650731,-1,4,4,34,-12,-3,-7,-1
1511884177658933,-1,0,2,7,11,11,14,-2
1511884177658933,-2,0,-6,8,11,15,0,-2
1511884177673965,-5,-8,4,-29,-42,-12,-2,-5
1511884177673965,0,1,3,8,14,-21,-22,-4
1511884177679840,1,-3,-5,11,-5,-3,-9,0
1511884177679840,2,3,5,-11,-50,11,28,3
1511884177698383,1,-1,-6,31,33,-6,-13,3
1511884177698383,0,-1,3,-9,14,13,6,1
1511884177699494,-3,0,-4,0,-10,-17,-13,-5
1511884177699494,-2,-3,3,2,4,1,2,-2
1511884177719721,-2,0,0,24,-2,12,11,0
1511884177719721,0,-2,-15,-22,4,0,1,2
1511884177720578,4,6,16,-10,5,-6,-10,2
1511884177720578,-1,-3,3,8,8,6,9,-1
1511884177733787,2,7,10,5,23,5,2,1
1511884177733787,1,0,-1,-17,-1,12,0,3
1511884177740603,-1,-1,-20,-19,-15,-29,-14,-4
1511884177740603,-1,1,2,0,6,10,8,-2
1511884177756646,-7,-7,-5,-30,14,0,-3,0
1511884177756646,-3,-3,-5,-6,-14,-4,-4,-3
1511884177758650,6,14,11,2,6,4,-1,3
1511884177758650,-3,-18,-16,-5,1,9,1,-1
1511884177778704,2,17,6,4,15,6,10,1
1511884177778704,-9,-31,-3,26,-17,-5,-3,-3
1511884177780710,-1,2,-3,1,0,-7,-8,-1
1511884177780710,-1,6,11,22,17,2,-3,0
1511884177793746,-2,-12,-8,-10,-38,-3,6,-3
1511884177793746,-2,4,1,-3,4,-7,-4,-1
1511884177800302,7,25,8,1,-2,-3,-5,4
1511884177800302,-5,-25,-29,-36,-42,-21,-10,-7
1511884177816372,-5,-1,3,20,-3,7,3,1
1511884177816372,5,24,22,-5,2,4,6,0
1511884177818350,-4,-14,-19,8,0,-7,-3,-2
1511884177818350,-2,-2,19,22,11,10,-1,-2
1511884177839406,-1,-3,-2,12,-51,-11,-4,-2
1511884177839406,6,13,14,-20,70,-7,2,8
1511884177840439,0,-4,7,-23,-10,11,0,-5
1511884177840439,2,16,4,83,49,6,7,5
1511884177852440,-16,-24,-12,-74,69,-17,-15,-14
1511884177852440,16,18,4,80,58,9,8,10
1511884177861465,-5,-19,17,9,16,1,3,-3
1511884177861465,0,-23,-13,-30,-31,1,5,9
1511884177876505,10,82,28,14,81,18,-5,0
1511884177876505,-32,-86,-64,-25,-42,-14,-1,-6
1511884177878510,-16,-39,-9,-59,50,13,6,-9
1511884177878510,6,16,1,-8,-10,-23,-14,1
1511884177898566,16,33,5,-30,-32,-4,-1,1
1511884177898566,5,3,-2,-13,5,9,1,-1
1511884177900588,-11,-14,-11,-3,-43,-11,-7,-4
1511884177900588,-8,-20,1,-17,-11,0,4,-5
1511884177912604,8,30,6,32,3,32,19,10
1511884177912604,4,-21,-12,-33,-47,-17,-9,-6
1511884177921628,6,31,4,16,9,-17,-36,3
1511884177921628,2,38,13,-23,17,-32,-24,-9
1511884177936695,-15,-109,-27,30,-43,-7,-1,-2
1511884177936695,7,35,14,-9,-7,26,24,4
1511884177938702,2,11,11,36,8,27,29,10
1511884177938702,4,18,11,-33,-25,5,4,2
1511884177958753,3,34,1,-11,-1,2,2,-3
1511884177958753,-14,-51,-7,12,-15,19,10,-2
1511884177960732,2,3,12,-17,6,-43,-26,-5
1511884177960732,-1,4,-7,42,29,5,3,-3
1511884177972764,2,-3,10,-18,-52,0,2,4
1511884177972764,0,40,10,-19,49,-4,-10,-5
1511884177981788,-1,8,-5,35,7,13,10,-1
1511884177981788,1,-24,-18,-18,-6,7,6,2
1511884177996830,0,34,20,19,-17,-12,-12,1
1511884177996830,-1,-20,-10,-30,-12,-10,-8,-3
1511884177998361,-7,-36,-8,19,-3,6,1,-6
1511884177998361,-2,3,-12,-25,12,-1,2,0
1511884178019535,5,4,-3,6,15,18,17,7
1511884178019535,6,32,28,26,-25,-11,-6,-6
1511884178020537,-12,1,-22,-26,1,-22,-25,-9
1511884178020537,-2,-10,0,-4,20,5,4,-1
1511884178032569,2,-5,0,4,-3,-5,-6,0
1511884178032569,-3,31,3,-6,24,-4,-4,-4
1511884178041567,4,-14,-3,7,-24,14,19,3
1511884178041567,-5,10,5,7,3,15,7,-1
1511884178056607,-6,-26,-18,7,37,-21,-24,-8
1511884178056607,11,42,7,-24,-45,6,11,9
1511884178058639,4,14,11,8,21,10,3,0
1511884178058639,-3,-11,-19,-16,-34,-9,-6,-1
1511884178078689,-10,-46,-12,-10,-21,6,11,-2
1511884178078689,0,-16,-7,20,-56,-5,-8,0
1511884178080670,5,-5,-1,9,-7,12,13,6
1511884178080670,-4,-1,20,-8,-23,-16,-5,-5
1511884178092751,0,-3,-17,-25,4,20,14,0
1511884178092751,4,31,15,31,20,-51,-43,-2
1511884178101345,-11,-46,-9,-3,-49,0,4,-2
1511884178101345,7,32,13,17,-6,3,1,1
1511884178116387,3,-1,5,6,12,7,9,2
1511884178116387,-10,-17,-11,-15,5,13,4,-6
1511884178118392,7,30,10,17,-1,-11,-4,-1
1511884178118392,0,-24,-15,-8,18,4,5,5
1511884178139448,-2,28,10,5,14,11,6,-2
1511884178139448,-1,-23,1,25,11,17,8,10
1511884178140450,-6,0,-19,-30,-15,-58,-38,-13
1511884178140450,5,12,7,-29,-16,5,3,-2
1511884178152507,-4,-11,-8,-18,9,-7,-11,-2
1511884178152507,0,-16,-3,-6,20,29,31,3
1511884178161507,-5,-22,13,43,-13,3,-5,-1
1511884178161507,-3,15,-10,-38,29,-14,-16,-5
1511884178176546,-1,-14,0,4,-26,3,8,-2
1511884178176546,1,15,5,25,4,-1,2,2
1511884178178551,-6,-7,-9,-37,0,-22,-12,-8
1511884178178551,-4,-19,13,18,-44,-32,-22,-5
1511884178199195,7,26,11,29,41,14,2,3
1511884178199195,-12,-26,-24,-14,5,6,3,-6
1511884178200193,9,21,4,18,0,25,13,7
1511884178200193,-1,-4,9,14,7,29,19,2
1511884178212197,-4,-18,-14,-21,-1,-42,-32,-6
1511884178212197,4,-16,-3,12,-2,3,4,2
1511884178222252,13,47,17,-11,26,6,3,4
1511884178222252,-5,-9,-9,10,-2,0,3,1
1511884178236289,-2,-19,5,11,-14,2,3,0
1511884178236289,-8,-37,-18,-13,-8,-3,-3,-3
1511884178238268,10,35,12,-9,-9,8,19,7
1511884178238268,-6,-45,-30,-34,5,-2,-9,-3
1511884178259324,2,20,3,9,-5,-22,-9,-3
1511884178259324,3,33,17,-2,-13,-10,-5,-5
1511884178260327,-1,-8,-8,-9,-10,15,12,4
1511884178260327,-4,-32,-10,13,72,18,7,-2
1511884178272385,-5,-29,-8,-4,-11,-1,-4,2
1511884178272385,-6,-14,-5,-3,12,-16,-19,-6
1511884178281404,2,6,9,39,24,27,21,7
1511884178281404,8,46,0,14,-16,-34,-21,-3
1511884178296952,-1,-3,1,-2,-8,-2,1,-1
1511884178296952,-4,0,-2,-11,28,4,-1,-2
1511884178298456,5,12,8,6,28,33,26,7
1511884178298456,1,-17,15,17,8,-3,-8,3
1511884178319588,-3,12,-10,-21,-24,-12,-9,-6
1511884178319588,-1,3,-5,10,29,-7,-4,-2
1511884178320588,-9,-22,-14,-57,7,-7,-3,-4
1511884178320588,6,47,5,12,7,13,9,2
1511884178332646,-9,-48,5,12,-8,17,14,5
1511884178332646,3,28,1,-18,-20,-16,-11,0
1511884178341643,-5,0,-18,-4,-9,1,-1,-8
1511884178341643,-1,-8,5,11,-25,-5,-8,-1
1511884178356684,9,22,11,44,26,3,8,6
1511884178356684,0,12,16,17,-3,-6,-11,-6
1511884178357709,-3,-21,-5,2,-20,-26,-19,-6
1511884178357709,-1,-14,-11,-6,27,23,18,7
1511884178378742,0,-5,-5,2,19,-2,-2,0
1511884178378742,1,4,3,-23,-48,6,9,3
1511884178380747,-3,-5,6,11,-45,-8,-5,0
1511884178380747,-1,14,10,9,30,7,7,-2
1511884178392781,3,14,-8,-17,-20,2,7,-1
1511884178392781,3,-11,1,4,41,0,-3,7
1511884178401805,-7,-19,-15,-15,-11,-4,-9,-8
1511884178401805,-3,5,9,18,-8,-4,-3,-3
1511884178416846,-1,-7,-10,-22,-15,2,0,1
1511884178416846,7,14,3,-5,-4,3,3,0
1511884178417864,7,14,1,14,8,8,8,5
1511884178417864,-6,-8,-4,-20,-5,0,2,1
1511884178438932,-2,-4,-9,2,26,5,-4,-2
1511884178438932,-6,5,-6,-9,-23,-4,-1,-3
1511884178440939,4,5,0,-16,70,5,0,1
1511884178440939,5,-10,9,43,49,11,2,2
1511884178452969,2,20,-6,-5,-45,-20,-11,-5
1511884178452969,-2,12,1,-12,-8,1,2,-2
1511884178461967,-8,-71,-19,10,42,-5,-5,-3
1511884178461967,2,20,3,-6,-19,8,7,-3
1511884178476005,1,8,8,21,5,6,-1,2
1511884178476005,3,-10,4,32,58,-9,-8,0
1511884178483023,0,20,-4,-29,-36,-2,-1,-1
1511884178483023,0,9,3,-8,-29,-8,-7,-4
1511884178498586,-8,-37,-7,-3,7,-17,-11,-5
1511884178498586,0,21,-4,-24,-3,4,0,-2
1511884178500720,-9,-19,6,9,17,1,-2,0
1511884178500720,0,-22,-21,-7,-26,4,6,1
1511884178512718,-3,7,16,17,2,-1,-1,-4
1511884178512718,3,-1,5,-11,-83,-3,4,1
1511884178521739,0,17,1,12,-1,0,-2,0
1511884178521739,0,15,2,-1,-9,-3,1,0
1511884178535903,-8,-49,-11,2,2,6,3,0
1511884178535903,-3,-16,-11,-25,-47,-1,3,-1
1511884178542797,3,8,10,19,-2,2,1,3
1511884178542797,0,9,4,22,-18,-2,1,-4
1511884178558943,0,26,17,-19,4,-10,-5,-4
1511884178558943,6,8,2,6,24,6,4,3
1511884178560843,-14,-41,-5,19,-26,-19,-16,-7
1511884178560843,-2,5,-14,-35,63,-5,-14,-4
1511884178572874,3,4,16,5,-18,-8,-5,2
1511884178572874,-2,-9,-4,-24,0,8,6,-3
1511884178581899,-6,2,-3,-5,18,10,5,-5
1511884178581899,0,3,4,-7,-19,-4,8,4
1511884178595947,-1,4,-12,-8,30,0,-4,-2
1511884178595947,-7,-17,-1,-1,-23,-7,-3,-2
1511884178603023,4,21,1,-15,-13,-15,-11,-1
1511884178603023,-1,-9,0,-7,-50,-3,4,1
1511884178619066,6,27,8,0,19,12,9,0
1511884178619066,3,-2,-1,7,-3,-4,-5,1
1511884178621072,-3,-5,2,-11,-32,2,5,-2
1511884178621072,1,-7,4,26,0,-11,-9,-4
1511884178633099,-3,5,-5,8,-16,-4,-4,1
1511884178633099,-1,2,0,5,24,12,4,1
1511884178642097,1,12,5,12,-2,12,11,1
1511884178642097,-2,-3,-3,-22,-11,-16,-17,-3
1511884178656135,5,12,1,-4,3,-2,-1,2
1511884178656135,4,23,-10,-4,24,6,2,-2
1511884178662150,-14,-68,-12,14,-1,2,1,2
1511884178662150,-5,-12,-10,-37,-52,0,11,-6
1511884178679195,2,7,-4,16,19,-2,-8,0
1511884178679195,-1,2,-2,23,4,-14,-8,-1
1511884178680225,10,36,16,-3,-4,6,4,4
1511884178680225,-3,-8,-6,5,19,9,0,2
1511884178701284,-3,-6,2,-18,-55,-16,-6,-2
1511884178701284,-7,-29,-10,-14,11,2,-2,-5
1511884178703290,11,38,17,3,66,2,-5,1
1511884178703290,1,2,8,41,17,17,8,4
1511884178716324,-6,2,-18,-48,-57,-16,-8,-5
1511884178716324,-1,9,9,15,9,4,6,2
1511884178722340,-3,-29,-14,8,10,6,3,-2
1511884178722340,3,17,8,22,8,0,0,3
1511884178739386,0,-7,8,22,26,22,18,1
1511884178739386,6,1,-5,-14,-3,-21,-17,3
1511884178740388,0,14,-4,1,-2,0,4,-1
1511884178740388,-6,2,5,-1,7,2,-7,-4
1511884178761444,0,-8,-15,3,14,2,-2,0
1511884178761444,-5,-3,4,4,-12,-5,-3,-7
1511884178763450,1,13,-1,-6,-7,-12,-13,-1
1511884178763450,2,5,-6,-26,-4,0,1,-1
1511884178775482,1,-3,7,15,25,12,8,4
1511884178775482,-9,-49,-28,-16,68,16,7,-2
1511884178784562,0,5,0,-4,-16,-8,-8,-3
1511884178784562,2,-3,-18,-19,20,7,10,4
1511884178799106,0,-4,-1,8,-4,0,-4,0
1511884178799106,1,18,20,2,-14,0,0,1
1511884178801143,-2,-12,-8,-1,7,-1,0,1
1511884178801143,-2,-8,-2,-7,4,-4,1,-2
1511884178821165,-9,-17,-8,1,-3,9,7,-2
1511884178821165,3,11,10,25,0,-6,-8,-1
1511884178823170,3,21,-6,2,-38,-12,-6,-3
1511884178823170,-1,12,14,-15,-13,4,4,-3
1511884178835202,-2,5,-7,-13,-55,3,11,7
1511884178835202,-8,-19,-2,-10,-4,-17,-23,-5
1511884178844227,3,22,8,6,14,5,3,-1
1511884178844227,0,2,-13,-2,28,-7,-11,-2
1511884178859293,4,4,-1,-28,13,23,18,1
1511884178859293,-6,-15,-13,-10,28,-2,-1,0
1511884178860298,4,8,8,-1,-32,3,5,3
1511884178860298,0,-17,8,18,16,11,8,4
1511884178881326,4,15,-4,1,-10,-22,-15,-1
1511884178881326,-3,9,5,6,-22,3,10,-3
1511884178883331,4,4,-4,-21,-5,4,-1,3
1511884178883331,-3,-3,3,5,-37,-34,-16,-5
1511884178895365,0,0,8,32,-33,-17,-19,-7
1511884178895365,0,-8,-9,-2,15,1,1,1
1511884178904452,-1,3,7,-10,21,16,17,-2
1511884178904452,-3,-2,-9,-14,6,-4,-4,1
1511884178919461,-1,5,2,-18,24,4,-4,-1
1511884178919461,-2,0,-3,2,-23,3,4,-4
1511884178920464,3,-5,-4,2,-1,-2,2,4
1511884178920464,-4,-14,2,7,19,20,14,1
1511884178941547,-1,4,-4,-12,5,-20,-17,-7
1511884178941547,1,8,6,-11,-35,-3,-1,2
1511884178943552,-1,-25,-21,-15,8,2,2,1
1511884178943552,4,12,16,16,-14,-5,-11,-3
1511884178955557,0,-21,-4,22,14,22,18,4
1511884178955557,1,13,-2,-29,-23,0,1,-2
1511884178964582,-11,-35,-6,-14,-8,-8,-10,-2
1511884178964582,3,9,0,2,-13,-11,-3,-1
1511884178978619,-1,2,5,-12,14,19,17,0
1511884178978619,1,-10,5,23,-6,-15,-13,3
1511884178980624,2,14,14,11,11,-11,-14,-6
1511884178980624,-3,-1,-9,-6,-11,6,7,1
1511884179001240,2,14,11,-7,7,-2,0,1
1511884179001240,2,-17,-12,20,11,4,6,1
1511884179003219,-10,-10,8,4,-34,1,0,-4
1511884179003219,-3,1,-11,-20,-23,-19,-12,-5
1511884179015281,-6,1,3,8,0,-3,2,0
1511884179015281,0,13,0,-6,-26,5,8,-2
1511884179024275,-3,3,9,20,28,-2,-4,-5
1511884179024275,4,3,4,-6,43,2,-1,3
1511884179039314,4,10,5,13,-14,-9,-9,0
1511884179039314,-3,17,0,-25,0,8,5,-2
1511884179040348,-2,-9,-8,17,-41,-7,0,-2
1511884179040348,1,-7,-4,0,28,6,6,1
1511884179061373,0,5,1,-3,-1,-5,-5,-3
1511884179061373,6,15,19,32,32,13,5,4
1511884179063378,-3,0,-17,-21,20,-2,1,-3
1511884179063378,-1,-2,-8,-30,-4,-26,-23,-2
1511884179075438,-6,-41,-11,-11,-13,-2,1,-3
1511884179075438,1,-6,-1,11,3,3,3,4
1511884179084490,0,1,4,-7,-11,-8,-6,-3
1511884179084490,-3,-7,5,17,-23,1,4,-1
1511884179099027,2,4,-1,-12,36,-3,-7,0
1511884179099027,-4,-8,-10,-9,5,5,3,-3
1511884179101061,7,22,7,13,17,11,4,3
1511884179101061,-2,-14,-6,9,-16,-5,1,0
1511884179121104,-1,6,-8,-20,9,20,19,-1
1511884179121104,-4,-17,12,32,-14,-35,-27,-3
1511884179123091,-1,-1,-13,-16,20,-5,-5,-2
1511884179123091,0,13,13,32,-2,2,0,-3
1511884179135147,3,21,11,-10,-27,5,5,1
1511884179135147,-4,-33,-6,-4,-2,3,0,-2
1511884179144147,5,17,-2,-4,-1,-8,-9,-1
1511884179144147,-10,-35,-10,18,-40,-1,3,-4
1511884179159187,0,3,-7,19,2,3,3,2
1511884179159187,9,31,15,-5,5,6,6,3
1511884179161193,-5,-27,-9,16,18,8,6,2
1511884179161193,10,33,9,-3,31,17,6,2
1511884179181273,-8,-38,-14,-3,-12,-22,-15,-3
1511884179181273,0,8,-5,-19,-1,4,1,0
1511884179183251,3,0,3,-2,10,11,10,1
1511884179183251,-3,-2,-2,5,2,3,0,-1
1511884179195285,-1,2,-5,-24,6,5,1,2
1511884179195285,1,21,3,-8,10,-29,-25,-6
1511884179204335,-9,-51,-16,-17,-70,3,6,-4
1511884179204335,4,21,12,-8,19,0,3,1
1511884179219376,-2,-16,-1,-2,-22,-6,-7,-8
1511884179219376,-5,-5,6,22,0,-2,-1,3
1511884179220379,4,15,-3,-26,-30,-11,-10,-2
1511884179220379,-3,-11,-2,-1,-5,3,1,-1
1511884179241434,2,12,3,15,-3,-5,-4,1
1511884179241434,4,2,7,13,8,13,13,3
1511884179243440,-6,-28,-10,-10,30,6,2,0
1511884179243440,1,-13,-1,-2,19,-9,-2,2
1511884179255470,-1,9,10,-4,39,2,-4,0
1511884179255470,-4,-10,-14,-12,-26,7,3,-5
1511884179264495,2,30,15,6,12,-8,1,6
1511884179264495,-9,-23,-24,-11,-26,13,9,-6
1511884179279538,4,1,10,19,-7,-8,-8,3
1511884179279538,1,9,6,2,-15,0,4,-2
1511884179280537,-4,-9,-5,19,42,-1,-2,-5
1511884179280537,-1,7,-4,-15,-6,2,0,1
1511884179301177,-2,4,1,3,13,5,2,-2
1511884179301177,-1,-6,-1,-13,-17,17,15,1
1511884179303155,4,27,10,21,-14,-28,-29,-3
1511884179303155,4,1,8,10,7,-11,-9,-1
1511884179315211,-2,-8,-14,-7,5,-3,-4,-4
1511884179315211,-1,5,-1,-2,21,13,13,-1
1511884179324211,5,30,16,16,-4,5,0,0
1511884179324211,-7,-43,-17,-5,3,12,7,1
1511884179339251,1,15,11,-3,-12,-12,-9,-3
1511884179339251,-6,-12,-6,9,4,-14,-7,-4
1511884179340255,-1,11,9,16,27,19,9,4
1511884179340255,0,1,8,10,2,1,-1,0
1511884179361310,-1,17,-4,11,-4,11,11,-1
1511884179361310,-8,-22,-15,-27,60,-4,-15,-4
1511884179363315,0,-6,2,2,-13,14,11,1
1511884179363315,-2,3,0,-13,-2,-18,-12,-2
1511884179375347,2,2,2,19,6,10,7,3
1511884179375347,-5,-14,-14,-35,-9,-1,2,-4
1511884179384375,-1,3,3,-19,-19,-16,-7,2
1511884179384375,3,21,6,10,-6,3,-1,-4
1511884179398411,-9,-39,-13,-19,19,5,0,-1
1511884179398411,4,6,-2,3,-13,-14,-2,0
1511884179405132,-1,-18,-10,3,-12,-12,-7,-2
1511884179405132,0,18,4,-11,-14,6,3,2
1511884179421146,1,-2,6,-2,-18,-5,-5,-4
1511884179421146,-7,-5,-2,-6,34,6,1,-4
1511884179423165,-2,-12,-7,-8,-50,-21,-15,-2
1511884179423165,4,19,7,12,9,3,-1,-1
1511884179435204,0,-1,-8,9,1,14,14,2
1511884179435204,0,-1,8,0,41,-12,-14,-2
1511884179444206,1,13,-3,2,37,15,9,-2
1511884179444206,-3,-6,-4,-25,-41,-5,-2,-3
1511884179458274,5,-7,6,21,18,-8,-2,3
1511884179458274,-1,-24,-20,-25,-31,-3,-7,1
1511884179465262,3,13,18,6,33,4,-2,0
1511884179465262,3,5,8,6,-40,5,13,3
1511884179481312,-4,-3,-3,-19,40,-3,-4,-5
1511884179481312,8,7,2,6,2,5,7,5
1511884179483310,-3,13,-5,-15,-3,4,4,1
1511884179483310,-2,-14,2,15,-10,-4,-3,-3
1511884179495345,-2,-8,-9,-13,-31,8,10,3
1511884179495345,-2,12,9,27,2,-8,-9,-1
1511884179504046,-2,-10,-1,-8,-32,2,4,-1
1511884179504046,5,15,2,-11,6,-19,-12,-1
1511884179518205,-5,-6,-2,-8,-33,-4,-3,-3
1511884179518205,5,6,4,33,32,24,15,7
1511884179525105,-5,-18,-11,-17,-1,5,3,-3
1511884179525105,-5,2,0,1,2,-25,-23,-7
1511884179541278,2,10,-9,-21,-13,-10,-10,-2
1511884179541278,2,6,6,5,-34,9,14,3
1511884179543151,-5,-14,0,13,-5,7,0,-4
1511884179543151,3,6,-3,-2,-29,1,8,3
1511884179555185,4,6,7,14,-20,-14,-13,1
1511884179555185,-5,-1,-9,-18,-6,-6,-5,-5
1511884179564226,5,20,4,9,19,7,10,0
1511884179564226,-5,-13,-3,8,1,-10,-10,0
1511884179578244,-4,-9,-3,-12,8,-1,-3,-1
1511884179578244,4,12,10,8,-22,3,0,1
1511884179585294,0,1,12,18,-16,-9,-4,-1
1511884179585294,2,11,1,9,57,11,4,-1
1511884179601382,-4,-19,-13,-18,-1,-8,1,4
1511884179601382,-2,-2,-6,-19,-31,-4,-1,-4
1511884179603384,-2,2,-1,-33,35,-5,-4,-3
1511884179603384,-4,-26,-15,-10,13,8,1,-1
1511884179624441,1,7,7,11,-27,3,4,1
1511884179624441,-4,-8,-3,2,11,-10,-11,-4
1511884179625444,8,22,-1,4,-4,6,9,4
1511884179625444,-9,-33,-3,3,-10,0,0,-6
1511884179638670,0,7,1,9,5,-2,-2,1
1511884179638670,-9,-21,-9,-14,-17,-11,-13,-5
1511884179645681,2,6,5,-2,14,6,8,1
1511884179645681,1,-2,-2,5,10,-4,-4,2
1511884179661542,2,8,-2,21,-5,0,3,0
1511884179661542,2,16,10,2,-30,-3,-3,-3
1511884179663566,-3,-15,-6,6,4,-17,-17,-1
1511884179663566,-8,-3,1,-37,-34,-4,-5,-7
1511884179684624,-1,10,5,5,14,3,2,-4
1511884179684624,-1,-4,-3,19,-14,-11,-11,-2
1511884179686114,3,15,-4,-24,-36,1,5,-1
1511884179686114,-5,-22,-3,21,-8,9,9,0
1511884179698643,0,-3,4,-10,-19,-8,-4,-1
1511884179698643,2,8,-4,-1,17,16,12,1
1511884179705867,-3,-6,1,-1,3,-17,-19,-2
1511884179705867,7,8,1,1,-3,3,4,4
1511884179721842,-2,0,-1,-1,25,-10,-7,-3
1511884179721842,-1,-2,-6,-3,42,12,10,1
1511884179722723,1,-3,-2,10,-26,-2,3,1
1511884179722723,-2,10,1,1,-11,-1,-1,1
1511884179743779,-5,-29,-10,-29,29,10,1,-1
1511884179743779,0,2,3,10,2,0,2,0
1511884179745786,-3,-6,-1,-15,13,16,11,-1
1511884179745786,6,14,5,-9,30,-16,-16,-1
1511884179757817,4,21,15,15,-27,2,-1,2
1511884179757817,-4,-5,-3,7,-13,-14,-3,-1
1511884179766841,-2,-6,-4,-15,4,-10,-15,0
1511884179766841,-1,-2,-12,-18,30,14,6,-4
1511884179781881,1,5,10,22,12,6,1,-1
1511884179781881,4,6,-2,-35,-29,4,7,0
1511884179782883,0,-3,-6,2,-25,-11,-3,0
1511884179782883,-1,0,-2,-13,12,8,7,2
1511884179803979,-2,7,6,29,-47,-10,-6,-2
1511884179803979,-1,-9,-4,-11,34,-1,-4,1
1511884179805985,-2,-11,-7,7,12,4,3,3
1511884179805985,3,13,6,11,-6,4,1,1
1511884179818045,-2,-11,-11,-26,11,-2,-3,-3
1511884179818045,-2,-9,7,17,-3,18,21,2
1511884179827068,-1,-3,0,-7,-23,-14,-20,-6
1511884179827068,2,9,3,-1,-12,-1,1,4
1511884179841105,-5,-6,-3,2,8,-15,-10,-3
1511884179841105,0,1,2,3,-7,1,-4,-1
1511884179843083,-2,-2,-7,-9,12,8,8,1
1511884179843083,-1,-4,-3,-3,-10,18,16,1
1511884179864139,2,3,-2,-1,-24,-17,-9,-3
1511884179864139,-5,-10,-12,-13,-5,-16,-21,-3
1511884179866173,6,18,10,21,7,12,18,3
1511884179866173,-1,-24,-2,3,52,-6,-13,-3
1511884179878178,0,6,3,6,65,22,14,3
1511884179878178,-1,-2,-11,-2,-2,-2,-3,-1
1511884179886702,-4,-9,-2,-7,5,3,-3,-6
1511884179886702,1,14,4,22,-4,6,6,2
1511884179901744,-1,-6,-2,-2,-9,-14,-12,-1
1511884179901744,4,-1,1,1,30,12,17,6
1511884179902746,-2,0,4,8,22,-1,-9,-1
1511884179902746,-1,1,-2,-16,1,-7,1,-1
1511884179923803,-4,-10,-5,4,-16,16,4,0
1511884179923803,1,17,13,21,-12,-34,-23,-2
1511884179925807,-3,-16,-10,-5,27,12,9,1
1511884179925807,0,3,6,13,-25,-5,-5,-4
1511884179937868,0,-7,-7,-26,30,11,11,1
1511884179937868,0,8,-3,-25,-53,-22,-24,-4
1511884179946865,-1,-7,-1,15,4,7,4,-1
1511884179946865,-1,-6,-11,-17,30,0,0,1
1511884179961904,-1,1,-16,-64,-17,-1,4,-2
1511884179961904,-2,-1,12,30,-13,15,11,-3
1511884179962911,1,5,0,0,0,-16,-10,0
1511884179962911,-5,-8,-2,1,-38,-9,-8,-6
1511884179983990,-1,3,7,22,-38,-11,-4,0
1511884179983990,3,15,4,-12,23,9,4,0
1511884179985997,-5,-32,-7,6,-22,-10,-5,-2
1511884179985997,0,6,0,-5,-54,-14,-9,-4
1511884179998029,2,-8,0,9,-12,5,12,5
1511884179998029,0,1,2,10,-8,-4,-10,-2
1511884180006618,0,18,0,-11,-26,-8,-2,-3
1511884180006618,1,-3,4,23,8,3,-3,4
1511884180021687,-5,-9,-2,-10,-3,-7,-7,-6
1511884180021687,2,5,5,13,-34,8,8,1
1511884180023663,-5,-7,-11,-11,34,9,2,-4
1511884180023663,-3,3,-5,-30,34,1,1,0
1511884180043744,5,12,5,27,4,0,-8,-1
1511884180043744,-2,-5,-7,-12,4,1,8,0
1511884180045723,0,1,8,5,29,3,-6,-1
1511884180045723,-1,2,3,15,-21,3,7,-3
1511884180057781,1,1,-7,-9,5,-5,-3,0
1511884180057781,-5,-12,-1,20,17,3,-1,-5
1511884180066779,5,9,6,-8,-42,-8,2,5
1511884180066779,-3,-17,-10,-4,20,0,-4,-4
1511884180081845,0,-3,2,20,-12,-1,0,1
1511884180081845,-2,-2,-6,-18,-19,4,4,2
1511884180082847,4,8,4,4,-3,-3,1,3
1511884180082847,1,1,6,8,-8,-2,0,5
1511884180103960,0,3,-3,-1,-24,-8,-5,-1
1511884180103960,0,-3,-5,-9,22,17,8,3
1511884180105940,-5,-3,2,13,-19,-5,3,-4
1511884180105940,2,4,1,15,-30,-34,-20,1
1511884180117998,-1,8,4,9,-8,1,0,-2
1511884180117998,-1,-16,1,4,20,10,4,-1
1511884180126995,-3,-1,-3,-11,-45,7,8,1
1511884180126995,-1,0,-3,10,23,20,12,-3
1511884180142078,-2,2,5,4,57,-7,-6,4
1511884180142078,2,0,4,5,-22,-10,-6,0
1511884180143038,-2,-1,0,15,31,14,4,-4
1511884180143038,2,2,-7,-12,-6,-6,-1,2
1511884180164094,-1,-7,-3,-8,13,10,6,0
1511884180164094,4,21,9,3,-6,-9,-6,0
1511884180166126,-5,-40,-26,-22,18,-5,-7,-3
1511884180166126,2,14,10,-9,29,8,0,0
1511884180178131,-9,-8,-8,7,-22,3,2,-5
1511884180178131,-5,-13,-12,-13,-3,-3,-5,1
1511884180186687,1,6,2,10,8,2,4,3
1511884180186687,0,4,-3,4,-10,7,8,0
1511884180201253,-1,-4,-4,-22,-3,-21,-20,-6
1511884180201253,1,4,5,14,-1,0,7,0
1511884180203259,-5,-3,-1,-9,-14,-3,-5,-4
1511884180203259,-7,-23,-7,-8,-18,14,10,-2
1511884180224342,1,8,-3,19,18,-6,-5,1
1511884180224342,-1,-2,-2,-5,6,-1,-5,-2
1511884180225327,3,7,2,-2,3,10,14,3
1511884180225327,0,3,4,11,30,-8,-12,-1
1511884180237376,1,-1,1,5,25,8,2,-2
1511884180237376,1,-6,2,25,34,-2,-2,0
1511884180246395,2,9,-2,3,-1,8,5,1
1511884180246395,-5,-6,0,19,63,-2,-7,-1
1511884180261437,5,30,19,32,1,13,12,2
1511884180261437,-6,-40,-14,-13,-15,-25,-22,-4
1511884180263419,-2,11,-3,2,36,3,3,2
1511884180263419,-1,-7,-8,-7,-23,0,-3,-7
1511884180284501,1,0,1,-14,-19,3,6,3
1511884180284501,1,9,3,-7,-6,4,12,1
1511884180286008,2,-1,2,-4,-15,-6,-11,1
1511884180286008,-2,0,1,7,-18,-24,-15,-3
1511884180298012,1,-12,-3,6,-1,3,1,-2
1511884180298012,-3,-1,-7,-14,-7,-2,-5,-8
1511884180307066,2,3,0,-9,-14,-11,-6,1
1511884180307066,4,0,0,2,-8,-3,0,5
1511884180321130,2,4,-2,-3,-19,4,1,0
1511884180321130,-2,-7,-3,-21,-36,-6,-4,0
1511884180328121,3,9,2,-3,-9,2,1,-2
1511884180328121,-5,-4,0,18,16,10,5,-2
1511884180344164,2,21,1,-20,-42,-15,1,1
1511884180344164,-7,-32,-10,16,-14,-3,-3,-8
1511884180346169,5,8,10,-1,-23,-11,-2,4
1511884180346169,-1,-10,-11,-48,-25,10,9,2
1511884180358228,-2,-3,4,6,12,0,-6,-3
1511884180358228,6,20,9,10,27,9,4,2
1511884180366250,-2,-6,2,19,-27,2,14,3
1511884180366250,1,6,1,-4,-1,0,-11,-2
1511884180381280,-7,-6,-8,-21,-29,-28,-19,-9
1511884180381280,-3,-7,-4,-11,2,9,6,-1
1511884180387836,3,2,7,6,15,-11,-16,0
1511884180387836,0,-1,-4,-26,-22,12,15,3
1511884180404354,-4,-6,-10,-5,20,19,15,1
1511884180404354,-1,14,10,21,-17,-7,-2,1
1511884180405358,-1,3,3,-5,26,9,0,0
1511884180405358,6,24,7,-3,6,-10,-3,3
1511884180417389,-7,-24,-3,7,-1,-2,-7,-6
1511884180417389,3,15,-2,0,6,5,9,5
1511884180426413,-7,-26,-6,-9,4,10,1,-6
1511884180426413,-1,-5,-3,-16,-44,-6,1,1
1511884180440451,0,-4,-5,-12,-4,-1,-2,-1
1511884180440451,4,18,8,15,25,6,-2,1
1511884180447491,0,5,-3,3,7,9,6,0
1511884180447491,-2,8,-3,-3,8,-28,-17,-8
1511884180464514,0,-18,-5,17,4,9,1,3
1511884180464514,-1,-4,-2,-33,-6,-11,-11,-1
1511884180465517,-3,-7,-2,12,2,6,6,-4
1511884180465517,-1,-1,2,1,-12,2,4,3
1511884180478553,0,5,-1,-10,-2,16,14,3
1511884180478553,0,4,1,7,-9,-8,-7,-1
1511884180487076,6,5,12,35,-5,-22,-15,-1
1511884180487076,0,-1,-10,-17,-10,6,9,1
1511884180501132,-2,7,2,-25,5,-8,-10,-6
1511884180501132,4,3,2,-11,26,23,16,8
1511884180507294,-9,-4,-8,-16,-5,-9,-1,-4
1511884180507294,-2,1,8,5,-11,-8,-15,-5
1511884180524334,3,21,6,8,-18,-4,-1,1
1511884180524334,-4,-8,2,25,16,-11,-6,-3
1511884180525323,-1,-7,-15,-12,14,13,7,1
1511884180525323,2,-4,0,-11,7,19,20,1
1511884180546378,-1,2,1,-7,-4,-26,-28,-5
1511884180546378,0,2,0,12,-6,-1,2,3
1511884180548380,-2,-2,-1,1,-30,-6,-5,-1
1511884180548380,-3,-1,0,26,27,10,3,-2
1511884180561414,2,0,-4,-33,12,8,12,3
1511884180561414,1,3,-6,-3,-13,13,5,0
1511884180567433,-2,2,6,6,-38,-24,-12,-8
1511884180567433,1,-4,2,10,-10,-16,-8,2
1511884180584591,-3,-14,-3,26,47,21,10,2
1511884180584591,0,4,-8,-34,-6,-9,3,4
1511884180585995,0,-9,-5,-13,-10,1,1,-2
1511884180585995,2,16,6,4,-10,7,2,0
1511884180606201,2,9,13,33,-5,-9,-2,-2
1511884180606201,-4,-27,-23,-11,-13,-5,-3,-3
1511884180608211,2,23,8,14,-6,17,6,1
1511884180608211,0,-13,-8,-19,-29,-51,-28,-2
1511884180629372,3,12,-8,-44,-31,10,10,2
1511884180629372,-5,-4,4,17,26,0,-5,-2
1511884180631291,2,6,-2,-16,-13,2,3,0
1511884180631291,0,1,6,22,5,26,21,3
1511884180644302,5,8,10,25,32,-19,-18,-1
1511884180644302,-5,-3,-4,-11,-41,-5,1,-7
1511884180645310,-2,-18,-9,-2,29,-13,-11,2
1511884180645310,-3,0,3,2,-14,10,8,-2
1511884180666459,-3,-9,-7,2,5,0,-3,-2
1511884180666459,2,2,1,-10,41,11,5,0
1511884180668367,-4,12,1,-6,8,-20,-19,-4
1511884180668367,-5,-27,-6,6,-4,10,7,0
1511884180680398,1,8,1,11,-29,3,8,1
1511884180680398,3,15,10,15,15,6,-2,-2
1511884180689655,-9,-50,-16,4,11,-1,-1,1
1511884180689655,1,19,2,-4,1,-3,-7,-8
1511884180704437,-6,-19,-5,-1,4,-2,-4,4
1511884180704437,-1,4,-2,-19,-25,-24,-15,-7
1511884180705432,0,9,2,6,7,8,4,-1
1511884180705432,-3,-6,-2,-4,36,11,4,-1
1511884180725391,-1,-5,7,27,20,7,3,0
1511884180725391,-1,-2,-9,-23,4,8,4,3
1511884180734415,-1,9,1,-21,5,-13,-12,-5
1511884180734415,3,2,11,19,-16,-11,-9,2
1511884180740439,-5,1,-5,-15,1,4,2,-2
1511884180740439,8,30,17,18,-28,1,0,3
1511884180749455,-1,-17,-1,3,8,14,14,-2
1511884180749455,-2,-11,-16,-22,22,0,0,4
1511884180764495,-8,-10,1,7,-17,4,3,-5
1511884180764495,3,3,5,17,2,-15,-13,-1
1511884180765499,5,20,3,1,1,17,12,-1
1511884180765499,0,-1,-1,-16,29,-8,-11,-1
1511884180787057,2,0,-1,-6,-16,-2,5,3
1511884180787057,-7,-6,-9,-5,19,-20,-19,-5
1511884180788588,-2,-12,-3,10,-8,7,2,-3
1511884180788588,3,10,4,16,44,12,6,2
1511884180800592,2,-12,-8,-14,-35,4,10,4
1511884180800592,-4,-5,-5,-23,26,3,0,-3
1511884180809645,2,8,-3,-26,-8,-14,-9,1
1511884180809645,-6,-9,-4,-4,-1,9,3,-7
1511884180823656,4,-6,2,15,-14,2,2,4
1511884180823656,-6,-11,-2,-3,-14,7,5,-5
1511884180825661,5,12,4,5,15,1,-2,6
1511884180825661,0,-7,-5,3,-10,-11,-5,1
1511884180846744,-1,15,9,15,29,4,-2,-4
1511884180846744,0,-11,1,6,-46,-17,-5,-1
1511884180847720,-1,4,-7,-18,-4,22,16,-2
1511884180847720,3,8,0,22,1,-14,-12,1
1511884180859778,-2,-1,-2,-26,12,-8,-6,-5
1511884180859778,1,-1,-4,-8,10,12,13,4
1511884180868776,0,4,0,-10,-33,-10,-6,-3
1511884180868776,1,0,1,11,-21,12,11,0
1511884180883817,-3,0,1,-3,-17,-11,-8,-4
1511884180883817,2,6,-2,11,31,13,9,2
1511884180885822,-3,-7,7,9,12,-10,-8,-3
1511884180885822,-5,-13,-9,-7,-8,11,3,-2
1511884180906909,1,-1,-1,7,-11,-25,-12,2
1511884180906909,3,18,3,-4,4,17,14,2
1511884180907912,3,-9,3,32,19,-12,-15,3
1511884180907912,-5,0,-9,-30,-31,-3,-2,-4
1511884180919970,2,-5,-1,9,-4,8,4,3
1511884180919970,1,0,-1,-1,-1,4,4,0
1511884180928966,-4,-13,0,-4,4,19,15,-1
1511884180928966,3,8,4,1,4,-33,-23,-3
1511884180944007,4,11,-6,-25,25,6,3,-2
1511884180944007,-1,-19,-2,17,-28,-6,-2,-1
1511884180946012,-4,4,-2,-5,-10,10,6,-1
1511884180946012,6,11,5,-15,17,17,15,6
1511884180966065,-1,-8,-3,-8,8,-11,-7,-1
1511884180966065,-5,-22,-10,-4,-1,-5,-7,-4
1511884180968071,2,6,-5,-18,10,5,9,4
1511884180968071,-5,-10,-5,-7,-55,-8,-10,-4
1511884180980102,2,13,7,10,21,9,7,2
1511884180980102,-1,2,1,-9,-24,-22,-16,0
1511884180989678,-3,-6,-1,18,1,1,-4,0
1511884180989678,2,8,3,-1,-15,-4,-1,0
1511884181003729,-1,-10,-9,-12,-28,4,3,0
1511884181003729,-4,-3,0,-12,-32,4,4,-1
1511884181005732,5,23,-4,-14,-12,-10,-2,1
1511884181005732,-6,-29,-5,11,32,9,0,-6
1511884181026788,0,-9,-4,6,74,-4,-6,3
1511884181026788,0,7,4,9,2,3,-9,-6
1511884181027792,0,18,1,1,2,-19,-11,0
1511884181027792,-2,-6,0,1,-15,2,5,-2
1511884181039824,-2,-9,1,13,-35,13,6,-1
1511884181039824,4,3,-3,-6,20,-11,5,10
1511884181048869,-5,-8,-3,-7,5,-11,-5,-5
1511884181048869,-1,6,1,25,38,6,-3,-2
1511884181063914,2,9,1,-20,-67,-4,9,1
1511884181063914,1,3,9,28,17,1,-7,-2
1511884181065914,0,3,3,9,-27,-10,-14,-4
1511884181065914,-6,-22,-7,-11,15,6,13,2
1511884181087004,-2,6,1,8,43,4,-5,-1
1511884181087004,-2,1,-8,-11,1,15,12,-3
1511884181088481,3,-3,4,5,21,-4,-7,2
1511884181088481,1,0,9,2,-13,-3,5,4
1511884181100537,-6,-6,-6,1,0,-9,-10,-7
1511884181100537,-4,-15,-2,-3,11,6,12,4
1511884181109060,-3,-3,-6,-1,7,6,1,-3
1511884181109060,7,21,2,-6,-11,11,11,7
1511884181124127,-8,-15,-3,3,-15,-26,-25,-10
1511884181124127,0,5,3,0,13,6,3,2
1511884181126107,1,-4,-2,11,-25,-21,-14,-3
1511884181126107,3,34,12,0,-4,0,1,0
1511884181146186,-8,-37,-13,-22,9,3,3,0
1511884181146186,-6,-34,-11,16,32,15,-1,-2
1511884181148164,-2,2,-1,-5,-7,0,3,0
1511884181148164,1,1,-5,-6,22,-4,-2,2
1511884181160223,0,21,7,10,13,-8,-5,-3
1511884181160223,5,18,8,-27,-14,-4,-4,0
1511884181169221,-4,-14,-2,2,28,16,8,-1
1511884181169221,-5,-7,-7,3,10,-3,-6,-3
1511884181184287,3,7,-2,2,-2,9,1,2
1511884181184287,-3,2,-10,-10,-48,-9,6,-1
1511884181185293,1,-4,6,21,-20,-9,0,3
1511884181185293,3,5,1,-10,15,2,-5,-4
1511884181206340,-3,-13,-5,-14,-33,2,10,-1
1511884181206340,3,31,3,0,-15,-8,0,-4
1511884181208364,-6,-39,-7,3,16,-15,-19,1
1511884181208364,2,7,3,27,8,-4,-6,-1
1511884181220404,4,19,9,-8,-15,6,10,5
1511884181220404,-5,-27,-5,10,6,6,0,-1
1511884181229402,-6,-13,-10,-29,11,12,9,-3
1511884181229402,-2,-11,-9,-19,18,0,-3,2
1511884181244471,2,21,6,5,31,5,4,0
1511884181244471,-3,-14,5,8,7,-3,-3,-3
1511884181245444,5,19,2,7,-63,-2,2,0
1511884181245444,-5,-19,-6,-3,-39,-28,-15,-5
1511884181266525,-5,1,-5,-3,37,5,1,-3
1511884181266525,1,7,6,-10,21,-5,-7,-1
1511884181268535,3,14,6,17,-20,6,5,0
1511884181268535,-6,-9,1,1,14,6,2,-4
1511884181280549,2,-3,1,2,-15,-6,2,2
1511884181280549,3,34,7,6,-12,-3,-6,-4
1511884181289617,-7,-49,-11,-28,-4,1,0,-2
1511884181289617,1,10,-3,3,-36,5,7,-1
1511884181303186,1,-10,0,10,-5,-10,-6,-1
1511884181303186,-1,5,6,6,11,-1,-3,0
1511884181310202,3,4,-3,7,10,11,5,1
1511884181310202,0,3,-1,-5,-11,-10,-7,1
1511884181326217,-6,-9,-3,-6,-23,2,6,-4
1511884181326217,0,8,-1,1,-30,-12,-10,0
1511884181328223,2,16,8,4,26,6,3,2
1511884181328223,-2,-10,-9,-17,-30,1,4,-3
1511884181340282,4,10,0,10,17,3,-1,3
1511884181340282,-3,0,7,12,-30,-9,1,-1
1511884181349279,-5,-8,-8,-8,90,20,4,-5
1511884181349279,-1,9,6,9,-9,-13,-11,-4
1511884181363341,2,-14,0,-4,-6,2,1,1
1511884181363341,-4,-9,-8,2,1,-3,-3,-3
1511884181370335,2,8,-1,-2,10,7,6,1
1511884181370335,0,-14,0,0,-22,-1,3,1
1511884181386935,-2,8,4,-6,46,6,-3,-1
1511884181386935,1,-20,-14,-11,14,-2,-3,-1
1511884181388438,4,9,8,12,-19,-5,2,1
1511884181388438,3,15,-4,-15,32,3,-3,1
1511884181400470,-3,-14,4,30,-9,-5,-4,-1
1511884181400470,-2,-4,-5,-31,0,1,2,3
1511884181409522,0,7,-5,-30,-29,-7,-2,-2
1511884181409522,0,5,4,20,10,7,5,0
1511884181422530,-4,-10,1,1,-11,-5,-8,-4
1511884181422530,-1,-14,-13,-11,-6,13,8,0
1511884181431565,3,12,4,-4,33,-2,-3,1
1511884181431565,0,0,8,11,-7,3,2,0
1511884181446618,-2,0,-6,-1,-1,1,2,0
1511884181446618,-1,5,7,20,10,-2,-5,0
1511884181448626,4,8,8,0,-29,0,1,-1
1511884181448626,-9,-23,-20,-35,-2,-6,-4,-6
1511884181468680,2,13,2,-1,-16,-12,-6,3
1511884181468680,-1,-15,-2,-1,5,6,2,0
1511884181470659,0,-6,0,4,0,-2,-4,2
1511884181470659,4,10,1,4,30,11,9,5
1511884181483693,3,10,6,9,9,0,-7,-2
1511884181483693,-2,-9,-9,-28,-19,-7,-1,-1
1511884181490212,0,11,-1,-2,30,7,2,0
1511884181490212,-4,-16,3,9,-6,1,-3,-1
1511884181506285,-1,-1,-6,-34,-14,1,2,0
1511884181506285,4,22,10,9,14,-7,-3,3
1511884181508320,-6,-19,-3,-2,-16,-8,-5,-4
1511884181508320,5,1,-9,-9,-1,6,1,-1
1511884181529347,-1,0,-1,13,-12,-12,-6,0
1511884181529347,-5,-5,3,21,-9,-5,-9,-7
1511884181530362,2,12,3,18,17,7,5,2
1511884181530362,4,-6,1,18,8,15,18,2
1511884181543383,-5,-16,-16,-12,-14,-43,-33,-4
1511884181543383,4,-2,5,37,-5,-4,-1,-3
1511884181550406,-2,2,-2,-9,2,-1,-3,0
1511884181550406,2,12,10,0,56,14,3,1
1511884181566472,3,7,1,16,31,28,28,3
1511884181566472,-1,0,-1,-13,-29,-2,-1,3
1511884181568580,-11,-33,-7,1,-17,5,1,-4
1511884181568580,1,31,9,5,-2,-21,-19,-4
1511884181589334,4,-15,-6,8,-21,-4,0,0
1511884181589334,1,18,3,13,40,30,23,3
1511884181590711,-4,2,0,-15,-9,-1,-4,0
1511884181590711,-6,-13,-11,-36,-20,-19,-3,2
1511884181603300,8,36,13,-2,-20,4,-3,-2
1511884181603300,-9,-40,-20,-12,-31,-13,-5,-5
1511884181610316,2,2,-4,-7,-11,0,11,3
1511884181610316,3,9,6,8,-23,4,0,0
1511884181626385,-5,10,-3,-17,8,0,-2,0
1511884181626385,12,7,6,-21,38,10,10,8
1511884181628364,-13,-34,-9,7,9,-5,-6,-5
1511884181628364,9,20,8,24,-19,-12,-6,2
1511884181649420,-15,-33,-11,-16,27,7,-1,-8
1511884181649420,6,28,13,19,10,-13,-15,2
1511884181650422,2,-21,-5,1,-44,-9,-4,-5
1511884181650422,-2,-13,-8,10,-2,6,7,4
1511884181662454,4,5,11,13,27,36,26,1
1511884181662454,-3,25,7,-13,-27,-53,-41,-4
1511884181671479,-3,-18,-5,-13,2,-2,7,-1
1511884181671479,-6,-5,-5,-7,-60,-20,-12,-7
1511884181687077,8,9,9,18,0,9,11,4
1511884181687077,-10,-22,-13,-18,22,16,9,-1
1511884181688677,9,34,8,14,-28,-6,-2,1
1511884181688677,-3,-4,5,15,48,9,6,-1
1511884181709222,0,9,-6,-23,-37,-9,-2,4
1511884181709222,0,-21,-10,4,20,10,-2,0
1511884181710225,8,22,7,7,3,-16,-5,2
1511884181710225,-9,-27,-1,2,29,21,12,0
1511884181722413,-1,16,1,11,-30,-21,-10,-4
1511884181722413,3,7,1,-5,-43,-10,-6,-3
1511884181731300,-3,-1,-9,-22,9,4,8,-2
1511884181731300,6,19,9,2,2,2,0,1
1511884181746318,-12,-34,-13,-9,18,1,-5,-3
1511884181746318,-7,-17,-1,0,0,-1,-3,-4
1511884181748323,3,16,0,5,19,-3,-4,-1
1511884181748323,3,12,6,-7,-15,-5,-1,-1
1511884181769379,1,-4,-2,0,14,5,3,0
1511884181769379,-1,-1,-1,-10,-33,4,8,-2
1511884181770382,-2,13,-3,-27,19,-7,-13,-6
1511884181770382,-8,-17,-10,3,69,15,12,-2
1511884181782413,2,1,9,30,-6,-6,-8,0
1511884181782413,7,4,-1,10,13,-15,-11,-2
1511884181791940,-11,-21,2,18,8,3,-4,-4
1511884181791940,1,8,0,-9,-27,4,2,0
1511884181806086,-3,-2,-1,5,22,0,-3,-2
1511884181806086,4,13,7,-4,3,8,9,1
1511884181808099,7,30,8,1,-38,-1,0,3
1511884181808099,-10,-44,-17,-2,16,-3,-10,-5
1511884181829175,-7,-18,-5,5,-7,5,4,0
1511884181829175,5,22,9,11,9,5,8,0
1511884181830177,-2,-10,1,-9,-42,-4,-3,2
1511884181830177,2,33,8,1,-8,-5,-8,1
1511884181843213,3,-34,-12,-18,-20,-4,-3,0
1511884181843213,-11,-18,-7,2,18,9,4,-2
1511884181850231,2,7,0,6,9,6,9,3
1511884181850231,8,14,5,-6,-24,-17,-11,1
1511884181866246,-10,2,3,15,16,2,0,-5
1511884181866246,1,9,6,10,-10,4,1,0
1511884181868251,-4,-23,-15,-15,2,-3,-1,-3
1511884181868251,1,6,5,-5,-10,9,10,-1
1511884181889339,6,14,1,-11,-2,6,4,0
1511884181889339,-9,-25,-5,30,58,3,-4,1
1511884181890842,-1,15,3,2,-16,-29,-21,-6
1511884181890842,0,-2,0,1,-8,-2,-3,1
1511884181903376,-3,-9,-4,-10,-2,7,9,-4
1511884181903376,6,16,12,28,8,19,16,4
1511884181910395,6,3,-10,-22,-17,-4,-5,0
1511884181910395,-6,-19,-7,21,27,9,2,-5
1511884181926464,0,12,-1,-19,-26,-13,-1,1
1511884181926464,-2,-5,-6,-19,-21,-1,-1,-3
1511884181928453,1,6,7,14,20,-1,-1,0
1511884181928453,-6,-17,-13,-8,-22,-6,-13,-3
1511884181948497,2,5,2,7,11,-5,-4,5
1511884181948497,3,11,-3,-7,-14,-3,-4,-1
1511884181950502,1,3,4,10,33,14,10,1
1511884181950502,-2,-11,-8,-31,8,0,2,-1
1511884181962560,-2,4,3,6,11,7,2,0
1511884181962560,-3,1,-2,-11,-28,-12,-6,-5
1511884181971567,-2,-28,-4,4,14,5,4,-1
1511884181971567,1,6,-2,5,1,-5,-4,-2
1511884181986597,2,-7,0,0,5,3,2,0
1511884181986597,-2,2,0,-9,-3,-8,-6,0
1511884181988605,-2,6,-1,-10,15,14,8,1
1511884181988605,6,3,7,19,-18,-13,-11,2
1511884182016402,-2,-5,-7,-6,-17,-4,-2,-2
1511884182016402,-5,-6,-2,-7,0,6,2,-4
1511884182018377,-2,-1,1,-2,-17,-10,-4,-1
1511884182018377,1,15,9,9,-6,-1,9,1
1511884182022417,0,-16,-12,-23,4,-7,-7,-2
1511884182022417,-2,-12,-3,-15,14,2,1,-1
1511884182031411,-2,0,2,10,-28,-2,-5,-4
1511884182031411,1,12,6,-2,6,6,4,1
1511884182046481,3,2,6,12,-18,-6,-3,0
1511884182046481,0,0,-3,7,-6,5,9,1
1511884182048456,-4,0,0,-1,-7,-8,-9,-6
1511884182048456,-6,-11,-5,-3,-4,-3,0,-2
1511884182068542,3,15,7,4,4,0,-3,-2
1511884182068542,0,0,-10,-15,-8,-9,-4,0
1511884182070516,-3,-2,-1,6,14,12,9,2
1511884182070516,-4,-1,-5,-10,-6,-1,-5,-4
1511884182082574,-4,-5,1,7,9,-2,0,-1
1511884182082574,1,5,1,-21,-70,-17,-6,-3
1511884182092104,2,2,2,3,8,3,0,2
1511884182092104,-5,-15,-4,-2,-1,0,0,0
1511884182106676,-2,2,3,8,6,-1,2,0
1511884182106676,-1,-2,0,-6,9,5,-3,0
1511884182107681,-2,-2,0,10,21,6,0,-1
1511884182107681,2,-7,-3,-23,-40,-6,3,4
1511884182128745,0,4,0,-1,3,-2,0,-2
1511884182128745,2,2,9,39,16,-7,-5,0
1511884182130739,-4,-3,-6,-6,1,-3,-3,-4
1511884182130739,3,-2,-6,2,15,6,3,0
1511884182142798,1,13,8,9,4,5,-1,-2
1511884182142798,-1,-5,-2,-8,8,5,9,2
1511884182151795,3,-5,2,3,-11,-4,-4,2
1511884182151795,1,2,2,-38,17,-1,1,2
1511884182166862,7,12,10,-27,10,6,5,4
1511884182166862,-5,-5,0,17,7,6,-1,-1
1511884182167864,-6,-34,-30,24,1,0,1,-2
1511884182167864,30,53,45,54,3,4,4,17
1511884182189424,-9,-10,-5,27,19,9,3,-6
1511884182189424,3,4,2,-9,-14,-4,1,-1
1511884182190955,0,-13,-11,-9,-31,-12,-5,3
1511884182190955,-5,-9,-9,-16,-9,-15,-4,-3
1511884182202961,0,10,10,13,-5,3,3,2
1511884182202961,-4,-12,-15,-25,7,-1,-4,-5
1511884182211986,4,4,9,-4,18,12,9,8
1511884182211986,-11,-27,-26,-17,-15,0,-3,-8
1511884182227026,14,11,7,-10,5,8,1,7
1511884182227026,-1,-9,-4,-8,-5,-1,8,2
1511884182228039,13,15,22,9,31,7,4,6
1511884182228039,-8,19,18,1,1,-1,-5,-13
1511884182249111,-13,-42,-36,-11,-23,-4,-5,3
1511884182249111,1,3,-8,-2,23,17,7,3
1511884182251133,10,33,42,18,-10,-14,-5,2
1511884182251133,-10,-19,-11,12,10,-2,-13,-10
1511884182263139,3,6,4,-12,-12,-2,-1,-7
1511884182263139,-16,-60,-42,-2,-10,-4,-6,-5
1511884182271166,2,12,-2,11,5,-3,-5,-4
1511884182271166,7,12,15,10,-6,5,13,8
1511884182286209,-13,-3,-12,-43,7,-2,-10,-15
1511884182286209,-2,-7,1,-53,-18,-17,-7,4
1511884182292754,-6,-4,-12,-44,11,7,-3,-7
1511884182292754,-6,-17,-16,-5,4,0,6,-1
1511884182309276,3,-5,1,26,-7,-10,-7,3
1511884182309276,6,21,10,23,20,0,1,-5
1511884182310278,-2,-2,-3,13,-23,4,1,1
1511884182310278,4,6,7,20,20,5,2,-2
1511884182322332,-4,-3,-2,0,1,1,6,-2
1511884182322332,1,7,8,13,8,-4,-9,1
1511884182331361,-8,7,5,-4,-38,-17,-1,-6
1511884182331361,-3,-15,-7,5,22,14,3,0
1511884182345372,0,0,1,12,27,-9,-4,0
1511884182345372,3,30,25,26,-5,10,11,-2
1511884182352414,-1,-8,-13,-1,8,-18,-21,-3
1511884182352414,-1,-1,-3,-1,2,-1,-5,1
1511884182369463,-2,3,3,-17,-28,-5,1,1
1511884182369463,3,8,4,3,12,5,2,0
1511884182370438,-12,-10,-9,-14,12,9,8,-4
1511884182370438,-4,-3,-9,-6,-52,-13,-2,-3
1511884182382472,3,7,5,8,-9,-6,-11,1
1511884182382472,0,-2,6,21,-4,11,6,-3
1511884182392051,0,-2,-5,-13,-51,-21,-15,-1
1511884182392051,-6,-12,-8,-4,-14,-22,-17,-6
1511884182405561,5,3,-1,6,24,21,11,4
1511884182405561,4,-4,-3,0,8,9,17,8
1511884182412580,-4,4,10,10,19,7,8,-1
1511884182412580,3,3,0,1,16,7,6,4
1511884182428623,4,21,3,9,56,-4,-9,0
1511884182428623,-9,-15,-15,2,21,-2,-14,-8
1511884182430635,3,2,-6,-15,1,20,15,3
1511884182430635,-4,-7,-6,-17,-1,-4,4,-1
1511884182451684,-2,-5,-2,-10,-10,-8,-9,-2
1511884182451684,-4,0,3,-15,-2,8,5,-5
1511884182452687,0,0,1,6,5,-17,-12,-3
1511884182452687,2,-4,1,10,7,12,4,-2
1511884182465754,-7,-8,-1,0,-11,13,6,2
1511884182465754,0,3,4,6,-24,-11,-1,3
1511884182472763,-2,-7,-11,-3,2,3,2,-2
1511884182472763,1,4,-2,-10,-16,0,3,1
1511884182489286,1,-2,2,0,-10,3,3,-5
1511884182489286,7,4,3,-4,1,-10,-5,6
1511884182490790,8,13,7,22,5,-5,9,11
1511884182490790,-8,-16,-11,-22,41,8,0,-5
1511884182511498,-3,-3,-3,-14,-4,-9,-4,-1
1511884182511498,1,6,7,17,-15,-9,-13,-5
1511884182513505,1,-2,-2,15,12,13,7,2
1511884182513505,0,4,-2,-16,-13,-8,-10,-2
1511884182525666,0,-6,1,7,-20,-3,6,1
1511884182525666,0,2,2,-4,15,7,4,3
1511884182532554,-3,-4,-2,-6,-1,-1,-2,-4
1511884182532554,2,5,4,19,19,4,2,1
1511884182549621,-6,-7,-6,-10,-22,-7,-5,-7
1511884182549621,-3,-3,-8,-21,-20,-27,-15,-2
1511884182550599,1,2,7,6,8,7,0,1
1511884182550599,1,4,3,7,10,4,2,1
1511884182572687,-1,-3,-5,0,9,3,2,-1
1511884182572687,-4,-2,-2,-5,-20,0,-7,-9
1511884182573663,-1,-2,0,-4,10,12,1,4
1511884182573663,2,2,5,3,-13,-35,-11,0
1511884182584719,-1,-4,0,11,-19,-5,-3,2
1511884182584719,-2,-9,-4,-13,4,4,5,-2
1511884182594217,-4,-3,-5,-24,-17,15,4,-4
1511884182594217,3,2,-5,-1,-10,-12,-7,0
1511884182609313,3,3,6,18,33,5,-7,3
1511884182609313,-4,-3,-7,-9,-33,-12,0,-3
1511884182610317,1,-6,-2,-1,11,-8,4,6
1511884182610317,-7,1,-6,-16,-27,-3,-7,-13
1511884182639424,-4,-5,-8,-5,9,12,9,-4
1511884182639424,3,2,3,2,5,-13,-18,2
1511884182640402,5,1,0,4,9,20,17,6
1511884182640402,3,-2,-9,-8,-9,-19,-16,1
1511884182645455,2,0,6,5,-6,19,6,3
1511884182645455,-6,-10,-10,1,28,5,28,7
1511884182654431,-5,-2,-4,-14,-54,-32,-27,-16
1511884182654431,2,-3,0,9,10,3,-6,4
1511884182669473,-8,-29,-23,-13,-14,-4,2,-2
1511884182669473,-1,0,-2,8,53,19,1,-4
1511884182670473,-3,2,1,-8,-65,-24,-11,-4
1511884182670473,-4,6,2,3,38,35,24,-5
1511884182691885,4,-1,7,7,24,-25,-6,13
1511884182691885,2,5,5,7,-7,-1,-4,-4
1511884182693225,-2,-7,-6,2,-18,-4,0,-1
1511884182693225,-2,-11,-9,-11,1,5,-2,-5
1511884182705536,-1,6,8,7,-25,-9,-2,-5
1511884182705536,4,6,6,-7,16,1,0,4
1511884182714448,-2,-2,2,11,-8,5,0,-3
1511884182714448,4,9,-3,-4,-15,-2,0,2
1511884182729488,6,6,3,6,8,0,0,3
1511884182729488,5,18,5,-10,-17,-3,0,4
1511884182730491,-3,-3,-6,-19,50,12,4,-2
1511884182730491,-2,-3,7,10,-21,-3,1,5
1511884182751547,3,11,6,2,-28,-8,0,-2
1511884182751547,7,4,6,31,-14,8,4,4
1511884182753552,-8,0,3,8,7,-11,-14,-6
1511884182753552,1,-5,0,10,6,1,13,5
1511884182765614,5,17,14,-6,12,8,6,3
1511884182765614,-7,-12,-9,-6,1,-6,-15,-5
1511884182774609,3,-4,-4,-1,16,-1,12,6
1511884182774609,-1,1,7,6,9,16,4,-1
1511884182789210,-1,-9,-3,0,2,4,5,0
1511884182789210,-1,3,-3,-6,-15,-14,-12,-2
1511884182790682,0,2,-2,-15,5,3,5,2
1511884182790682,-13,-6,1,1,9,-5,-9,-9
1511884182811737,4,14,4,7,-6,1,1,1
1511884182811737,0,2,1,6,4,3,-1,-2
1511884182812739,-3,13,-1,-6,-22,-3,-1,-2
1511884182812739,0,-11,-4,-4,41,4,1,0
1511884182824773,-2,2,-5,0,24,0,-1,-3
1511884182824773,1,-16,-1,-9,-31,1,4,3
1511884182833823,-1,4,-3,2,21,3,-4,-6
1511884182833823,1,4,6,10,0,-1,2,4
1511884182848862,-4,-5,-5,-8,-12,-1,-1,-5
1511884182848862,1,0,-7,-5,17,-7,-6,-3
1511884182850841,3,3,12,11,-16,0,0,3
1511884182850841,-8,-9,-9,-11,-8,6,5,1
1511884182871924,0,8,-2,-9,-3,-21,-22,-10
1511884182871924,1,20,9,-20,-5,32,43,5
1511884182872900,-15,-69,-16,-7,6,-35,-39,-8
1511884182872900,3,12,-4,-7,-19,-9,1,0
1511884182884932,-9,-27,-11,-10,-46,-2,3,-3
1511884182884932,-2,6,2,13,41,18,4,-5
1511884182894487,7,17,4,-8,-2,1,3,1
1511884182894487,2,1,4,-17,-30,-9,-5,0
1511884182908556,-4,-20,-4,25,18,13,8,2
1511884182908556,3,12,4,7,8,-8,-11,-2
1511884182915595,0,10,1,12,5,-2,-4,0
1511884182915595,8,6,11,12,10,4,3,4
1511884182931618,-1,-2,-11,-23,-51,-10,1,-3
1511884182931618,-13,-11,-7,1,51,1,-8,-10
1511884182933623,-1,-2,-1,-3,16,1,3,2
1511884182933623,3,19,7,-5,-84,-13,1,-1
1511884182945654,-7,2,3,2,45,1,-4,-3
1511884182945654,6,8,4,4,-30,4,4,7
1511884182953676,0,7,-1,-16,-15,7,6,-4
1511884182953676,2,-3,-2,1,12,-27,-24,-4
1511884182968715,0,-6,2,3,-11,4,1,0
1511884182968715,-3,-4,2,-5,-22,9,1,1
1511884182970721,2,1,-1,10,33,11,14,5
1511884182970721,-1,-8,-2,3,2,13,8,2
1511884182991780,2,8,-9,-23,-22,-25,-12,2
1511884182991780,-2,-4,-6,5,20,-4,-12,-8
1511884182993283,-1,-7,0,-4,-9,12,9,5
1511884182993283,-2,7,4,1,-20,-1,4,-5
1511884183004995,4,-11,-1,3,13,-3,1,6
1511884183004995,-2,-16,-11,-37,-17,-2,3,-1
1511884183014018,1,20,-6,9,-9,13,8,-3
1511884183014018,-2,-35,-13,-8,11,-20,-19,2
1511884183029057,0,21,11,4,-12,7,1,-5
1511884183029057,-4,-16,-6,15,11,-9,-6,1
1511884183031063,0,-9,0,15,18,6,6,2
1511884183031063,-4,-8,-10,-32,13,11,6,-4
1511884183051117,-2,11,5,6,-6,-8,-1,-5
1511884183051117,0,-3,-1,23,19,-22,-24,1
1511884183053121,10,37,18,8,14,6,7,7
1511884183053121,-17,-35,-16,2,5,18,12,-6
1511884183065154,2,-11,0,13,11,4,-1,2
1511884183065154,1,-1,6,-9,-22,8,15,3
1511884183074178,3,15,2,6,36,4,1,0
1511884183074178,8,24,15,16,-4,-2,-5,2
1511884183089219,-6,-11,-8,-18,1,-5,-1,1
1511884183089219,0,14,3,0,-17,-10,-6,-3
1511884183090724,-3,-23,-5,0,-16,4,1,1
1511884183090724,-6,-3,-7,-9,2,3,1,-3
1511884183111842,6,11,4,7,-14,8,4,4
1511884183111842,5,4,4,-2,2,-6,-4,2
1511884183112874,-3,9,-6,-37,-15,-5,-4,-8
1511884183112874,-1,-8,0,22,15,12,10,4
1511884183124876,-3,-4,0,-1,-1,-13,-17,-4
1511884183124876,5,8,2,-2,-16,-8,3,5
1511884183133913,-1,-10,-3,2,-2,-2,-4,-5
1511884183133913,3,7,2,6,-4,4,-1,0
1511884183147959,-3,-8,-6,-13,26,14,12,0
1511884183147959,-3,-9,-7,-3,0,2,0,-1
1511884183155959,-3,-1,-4,-1,18,2,3,-3
1511884183155959,0,16,8,-9,-15,-32,-29,1
1511884183170998,-5,-25,-4,5,26,5,7,-1
1511884183170998,-1,5,-4,-3,1,6,6,1
1511884183172001,-1,9,3,-3,-33,-9,-3,-1
1511884183172001,0,5,0,-5,0,1,2,-1
1511884183193590,4,7,9,21,11,6,3,2
1511884183193590,2,-3,-4,-4,-36,-12,-2,4
1511884183194092,-5,-26,-1,9,-6,5,1,-3
1511884183194092,4,9,3,-6,8,0,2,1
1511884183207758,1,19,-2,-14,15,-6,-7,-4
1511884183207758,-6,-29,-12,0,-14,1,2,-3
1511884183215779,-8,-18,0,1,-1,-8,-7,-5
1511884183215779,5,7,-3,-8,29,12,5,4
1511884183230820,7,-1,-1,-5,8,9,1,1
1511884183230820,1,14,3,-3,17,-2,2,-2
1511884183231823,0,-6,-1,-2,-7,-2,2,1
1511884183231823,-3,-8,-1,-8,13,-4,-3,-2
1511884183252906,-1,7,-5,-5,-58,-17,-5,-1
1511884183252906,2,-6,3,-1,-7,-12,-17,0
1511884183253881,1,12,1,0,6,-3,-4,-2
1511884183253881,-1,-14,-4,5,-16,6,9,1
1511884183267918,5,6,1,-4,50,12,3,6
1511884183267918,-2,-3,0,-11,-13,19,16,-2
1511884183275966,-1,3,-4,-13,-35,-37,-22,-5
1511884183275966,5,14,3,18,0,2,-2,1
1511884183291005,-6,-14,-6,-3,14,19,13,-2
1511884183291005,1,2,7,12,24,-7,-13,0
1511884183292013,4,4,6,8,-19,2,3,3
1511884183292013,-2,7,4,-3,4,1,0,-3
1511884183313703,-3,-5,-5,5,-21,-7,-3,-2
1511884183313703,0,-5,6,6,3,6,6,0
1511884183313703,1,14,-3,-5,7,1,-1,0
1511884183313703,0,-19,-2,27,-17,4,7,4
1511884183327714,-1,8,0,-20,26,-5,-9,-4
1511884183327714,4,11,1,-14,-15,0,3,3
1511884183335762,-2,5,6,6,26,14,6,-3
1511884183335762,5,7,4,7,-1,-12,-6,0
1511884183350802,-7,-35,-10,19,-18,6,9,2
1511884183350802,-3,14,9,17,24,-5,-9,-3
1511884183351778,-8,-43,-17,0,-29,-16,-9,-5
1511884183351778,-1,8,2,-8,42,13,3,2
1511884183372833,0,11,3,-15,-62,-25,-11,-6
1511884183372833,-5,-9,-18,-48,10,7,7,1
1511884183373837,6,17,9,24,4,22,12,7
1511884183373837,0,-7,1,-12,2,-9,-6,-1
1511884183387900,0,-12,-1,-4,10,-3,-3,2
1511884183387900,-4,-7,2,11,4,3,0,-4
1511884183395950,0,4,2,-8,47,-9,-10,-4
1511884183395950,-1,-10,-11,8,-23,-4,0,0
1511884183410988,3,17,5,9,33,7,-3,1
1511884183410988,3,13,4,-9,-28,6,15,2
1511884183411991,-2,-22,-4,12,-9,5,6,6
1511884183411991,-6,-15,-5,-15,-17,-36,-35,-12
1511884183433048,1,11,7,1,-7,1,6,-1
1511884183433048,-8,-49,-12,16,6,6,-2,-3
1511884183434050,2,5,-8,-18,5,10,5,0
1511884183434050,-1,2,8,6,15,12,13,3
1511884183448086,-2,-1,-3,-15,50,-15,-17,-4
1511884183448086,-3,5,-12,-12,-31,-9,-6,-5
1511884183456107,-5,-9,-5,-40,2,-2,-1,-4
1511884183456107,-5,-19,-10,-1,40,16,15,-4
1511884183471149,0,8,2,-9,-16,-13,-11,-1
1511884183471149,1,7,11,49,20,4,4,2
1511884183471149,4,13,-2,-13,12,0,-1,1
1511884183471149,-9,-12,-5,-10,-24,-4,-4,-5
1511884183493739,10,24,1,2,-3,8,2,3
1511884183493739,-2,-8,-3,-19,-12,-10,-4,0
1511884183494770,4,17,10,32,26,6,1,2
1511884183494770,0,15,2,7,-27,-1,-4,-4
1511884183507573,0,-18,-4,-2,-23,9,10,5
1511884183507573,-3,-1,6,6,-2,-5,-5,-3
1511884183515480,-2,2,-7,12,1,-7,-3,2
1511884183515480,-1,11,11,-25,3,10,4,-4
1511884183530522,-6,-16,-6,11,-19,-14,-4,-2
1511884183530522,7,32,8,-2,3,19,18,2
1511884183531520,-5,-37,-7,7,-17,-37,-28,-6
1511884183531520,2,8,-3,-4,0,7,7,4
1511884183553774,-1,20,1,-8,-18,4,6,-2
1511884183553774,-2,-13,-4,11,4,0,-4,1
1511884183554755,-2,0,6,-12,-5,2,6,1
1511884183554755,2,17,-8,-9,-18,-6,-4,0
1511884183568640,2,0,14,5,-7,1,-4,0
1511884183568640,-2,-6,-8,-5,-6,-10,3,0
1511884183569724,-1,19,4,6,-14,-2,-2,-5
1511884183569724,-3,-25,-2,7,-16,-4,-2,-2
1511884183591459,-2,-1,-2,2,3,13,12,4
1511884183591459,6,6,1,6,16,0,-3,0
1511884183591869,1,24,-3,-15,13,6,0,-1
1511884183591869,0,-9,0,25,-19,2,8,2
1511884183613670,-11,-24,-17,-7,26,-1,-7,-8
1511884183613670,4,4,4,-16,-11,-11,-11,-1
1511884183614672,2,0,1,1,0,3,6,1
1511884183614672,3,16,4,10,15,2,-1,0
1511884183627678,-9,-10,-3,4,-11,-2,-2,-4
1511884183627678,-1,3,3,10,14,9,-3,-3
1511884183635614,1,-5,-6,-12,-21,-16,3,3
1511884183635614,1,-6,-2,-6,7,-2,-1,1
1511884183650654,0,1,3,1,-12,4,0,-4
1511884183650654,-1,14,4,19,5,0,-3,0
1511884183651658,-10,-33,-3,-11,19,24,18,1
1511884183651658,5,3,-3,-23,-16,-32,-27,-2
1511884183673719,-3,-12,-12,-2,11,3,3,-2
1511884183673719,4,16,7,7,3,5,-1,1
1511884183673719,1,4,-1,19,46,-5,-11,-5
1511884183673719,-3,-14,-3,-4,-57,-2,8,3
1511884183687935,0,1,-7,-22,67,0,-7,-5
1511884183687935,-4,1,5,1,0,0,3,-1
1511884183695961,-2,-25,-7,10,-11,11,8,-1
1511884183695961,5,20,7,-10,-4,6,7,5
1511884183710825,4,11,2,20,-28,-17,-3,3
1511884183710825,-1,-5,2,-2,12,-1,-4,-3
1511884183711637,-3,-22,-4,24,-3,-3,-6,1
1511884183711637,5,20,2,10,8,10,9,0
1511884183733818,0,-5,0,-10,-23,6,4,3
1511884183733818,0,10,6,-10,-19,-3,-1,-1
1511884183734722,2,16,5,-12,-6,-3,1,0
1511884183734722,-5,-25,-15,-18,-3,-4,-4,-3
1511884183747732,2,13,8,5,-1,2,-2,0
1511884183747732,0,-8,-8,-5,-10,-5,-2,0
1511884183755780,1,5,5,0,-26,1,1,0
1511884183755780,-4,-21,-5,3,-5,-1,-2,-1
1511884183770821,5,1,6,6,7,1,-1,1
1511884183770821,2,7,2,-4,3,-6,-4,1
1511884183771796,-6,-3,-2,5,-20,2,3,-5
1511884183771796,-4,1,-1,-9,33,1,-7,-1
1511884183793355,-2,-2,1,8,-13,-5,-4,-2
1511884183793355,1,-7,-5,-7,-16,0,1,1
1511884183794358,4,7,2,7,25,12,3,4
1511884183794358,-1,5,5,9,-62,-10,2,0
1511884183807454,-1,17,0,1,9,2,0,-3
1511884183807454,-4,-17,-12,-23,35,11,10,-4
1511884183815475,-3,3,1,5,8,-22,-22,-3
1511884183815475,1,-4,2,30,14,1,-4,-3
1511884183830515,1,-7,1,15,-22,-6,-1,4
1511884183830515,-3,-13,-7,-10,-12,-8,0,1
1511884183831518,1,15,13,-17,-22,7,5,-2
1511884183831518,-5,2,3,0,23,-6,-8,-7
1511884183853606,1,4,1,-11,-16,-7,-3,0
1511884183853606,-2,-6,-1,3,8,4,-1,-1
1511884183853606,-1,-6,-6,-16,-30,-6,-2,-1
1511884183853606,4,17,7,10,40,13,7,3
1511884183867613,-1,-7,3,-14,-1,1,-1,-3
1511884183867613,-2,-15,-12,-7,-10,-3,0,3
1511884183875662,4,22,-1,-13,-35,-5,0,-2
1511884183875662,-2,-20,-12,-10,-4,3,0,0
1511884183891208,-2,7,3,-3,1,13,16,0
1511884183891208,2,4,-4,-2,6,-15,-18,-3
1511884183891679,-2,-1,3,9,-1,5,2,-1
1511884183891679,3,8,2,-4,27,8,4,3
1511884183913802,1,3,3,-3,-4,-5,-6,-3
1511884183913802,-9,-29,-12,-26,-13,-2,-2,-3
1511884183913802,4,10,2,4,3,1,1,0
1511884183913802,-6,-16,-4,-1,7,5,4,-2
1511884183927811,3,8,4,17,-7,2,-2,1
1511884183927811,-2,3,-1,-2,-9,-13,-4,-2
1511884183935848,0,-5,-3,-7,-37,2,1,-1
1511884183935848,-4,3,1,-11,-10,1,-1,-5
1511884183950888,-7,-24,-15,-1,-2,-10,-5,-3
1511884183950888,0,3,-3,2,9,1,-3,2
1511884183951891,-3,-1,0,3,-5,-7,-9,-3
1511884183951891,5,-1,-5,-18,2,2,6,6
1511884183972924,3,5,10,10,4,-5,-9,0
1511884183972924,-2,9,-13,-22,9,1,-2,-3
1511884183973928,-4,-17,3,-13,-26,-6,1,-1
1511884183973928,5,14,-2,-11,4,3,0,1
1511884183996542,-3,4,1,-2,4,-2,4,-2
1511884183996542,-6,-28,-5,8,1,-11,-8,-3
1511884183997544,-1,5,3,11,25,6,2,0
1511884183997544,3,18,6,9,11,9,1,-1
1511884184010563,0,-10,-7,-25,-58,-22,-9,-1
1511884184010563,4,20,14,21,-10,4,3,2
1511884184011537,-2,-5,-6,-24,40,4,0,1
1511884184011537,-3,2,5,-10,3,0,2,-1
1511884184033623,-6,-26,-12,11,15,8,2,1
1511884184033623,6,38,15,8,-2,0,0,2
1511884184034620,-2,-11,-3,8,-4,6,4,0
1511884184034620,-3,-7,-2,15,28,-7,-6,-1
1511884184056662,0,0,6,5,10,7,3,1
1511884184056662,7,15,-1,-10,-11,8,5,2
1511884184057660,-4,-10,-7,-6,15,-14,-12,-5
1511884184057660,-3,6,-4,-4,-18,-4,-3,-1
1511884184070696,-5,-12,-2,12,33,9,0,1
1511884184070696,-4,-10,7,23,8,19,14,-1
1511884184071724,5,15,3,-19,-27,-25,-24,-4
1511884184071724,-3,-12,-12,-8,54,-4,-8,-3
1511884184093789,3,10,8,-2,8,10,8,2
1511884184093789,-2,-2,-2,-2,-10,2,4,0
1511884184094290,-1,-9,-10,3,13,14,8,4
1511884184094290,-7,-18,6,-12,-48,-8,-4,-5
1511884184116878,7,33,-8,-54,8,-3,1,3
1511884184116878,-6,-21,7,-4,-11,1,2,-6
1511884184116878,-3,-4,-12,8,17,-9,-4,1
1511884184116878,7,8,-3,8,-6,1,1,1
1511884184130916,0,19,10,4,1,3,3,-3
1511884184130916,1,-20,-1,8,-8,-2,-3,3
1511884184131918,-2,4,6,21,16,7,3,-1
1511884184131918,-3,1,0,-22,-2,3,3,-1
1511884184152984,-3,-19,-7,5,-49,-8,-3,-2
1511884184152984,2,13,-1,3,24,1,-3,-2
1511884184153951,-1,-9,0,16,-3,5,6,1
1511884184153951,-1,1,-5,-7,-4,-12,-5,-2
1511884184177040,0,-6,10,23,-5,0,-5,-4
1511884184177040,-2,-6,-5,-12,0,-8,-2,2
1511884184177040,-3,-10,-9,-21,-13,13,9,-1
1511884184177040,2,13,6,29,-21,-19,-12,-2
1511884184191104,2,-13,-14,-21,25,15,16,6
1511884184191104,-7,-5,2,4,8,1,-10,-4
1511884184192112,4,23,9,2,-6,-7,1,1
1511884184192112,1,-16,-1,0,-34,-13,0,2
1511884184213190,-3,1,-10,-5,-13,-6,-4,-6
1511884184213190,1,-4,6,39,6,6,4,3
1511884184214167,1,-1,-4,-19,-4,-11,-12,-2
1511884184214167,-7,-8,-5,12,-2,11,3,-5
1511884184236254,0,-2,16,13,4,-5,-4,1
1511884184236254,6,28,10,3,-15,-11,-4,-1
1511884184237228,-6,-27,-5,4,20,15,13,-2
1511884184237228,-2,-4,-9,8,-15,-9,-8,-2
1511884184251291,-4,3,-9,-45,-7,-9,-6,-5
1511884184251291,1,6,0,11,16,3,1,-1
1511884184251291,1,1,8,12,14,0,-1,1
1511884184251291,2,2,-3,2,8,12,5,0
1511884184273323,0,3,10,42,22,3,2,2
1511884184273323,-1,5,2,5,-5,-1,-3,-3
1511884184274327,3,-3,-7,-6,4,-10,-5,2
1511884184274327,1,5,2,10,5,9,6,0
1511884184295932,-3,4,-3,-9,-13,1,-3,0
1511884184295932,-1,10,-2,-1,4,-10,-11,-5
1511884184296934,-7,-47,-5,6,6,4,2,1
1511884184296934,-1,13,7,2,8,0,-3,-3
1511884184310498,-2,-7,-5,-27,11,9,4,1
1511884184310498,2,-6,-3,12,7,15,20,3
1511884184311474,4,30,0,-36,-24,-14,-6,0
1511884184311474,3,-12,1,-11,0,-16,-7,1
1511884184333532,0,-14,2,16,-4,-4,-6,-5
1511884184333532,1,-4,-13,-22,-3,-1,-3,0
1511884184334535,0,12,7,23,-18,11,12,2
1511884184334535,-3,-1,6,8,-5,8,5,-2
1511884184355619,4,14,5,41,19,-13,-13,1
1511884184355619,-1,-8,-3,-19,-34,-5,-2,-1
1511884184356595,1,7,2,22,2,0,2,-3
1511884184356595,3,29,5,2,13,6,0,1
1511884184370631,-12,-44,-14,-1,-3,-1,4,-4
1511884184370631,1,19,5,-11,2,-5,-7,0
1511884184371634,-8,-32,-9,0,-7,4,-6,-4
1511884184371634,-1,-14,-9,-31,18,-3,-2,0
1511884184393752,5,12,-3,-27,-13,1,1,1
1511884184393752,1,-17,-8,-4,0,9,11,2
1511884184394227,3,26,7,-17,42,10,9,1
1511884184394227,1,-20,-2,33,66,6,-7,-2
1511884184415784,-2,5,-2,1,-17,-17,-13,-4
1511884184415784,-4,-6,-8,-29,-36,-12,0,-3
1511884184416796,2,11,3,-17,-4,1,-3,1
1511884184416796,-4,-7,5,0,-1,0,5,-1
1511884184430854,3,-1,1,43,2,5,2,1
1511884184430854,0,7,0,7,15,-7,-9,-2
1511884184431854,-1,7,-6,-2,-21,5,5,-3
1511884184431854,-4,0,-3,-10,-27,-12,-2,-2
1511884184452911,4,9,9,-7,18,8,3,1
1511884184452911,-10,-21,-13,-9,-3,2,4,-2
1511884184453887,3,19,7,8,-16,-22,-18,0
1511884184453887,-7,-5,5,4,-10,6,5,-3
1511884184476974,-3,-2,-12,-31,20,-4,-3,-3
1511884184476974,3,0,1,-4,36,11,4,0
1511884184476974,1,11,7,7,5,4,5,-1
1511884184476974,0,-2,1,2,-21,-18,-17,-2
1511884184491005,-2,-3,-4,-18,-12,-6,-5,-2
1511884184491005,-1,2,2,10,2,1,-3,-3
1511884184492008,-3,-6,0,4,7,-15,-11,-4
1511884184492008,7,15,4,7,-8,18,17,2
1511884184513668,-4,-20,-8,-19,-39,-1,1,0
1511884184513668,1,-3,3,10,-2,-7,-8,-1
1511884184514702,-1,-9,-11,-3,-3,3,3,1
1511884184514702,2,5,4,-13,11,12,8,-1
1511884184535719,2,11,5,13,-1,-2,0,2
1511884184535719,-3,-15,-2,-20,8,-4,-1,-3
1511884184536698,3,20,2,13,3,-2,0,2
1511884184536698,-11,-60,-17,-14,-10,-2,-7,-2
1511884184550753,-1,-2,0,7,44,14,10,3
1511884184550753,-4,-10,0,-10,2,-14,-8,-3
1511884184551738,4,9,3,17,-6,3,-2,0
1511884184551738,3,11,-5,-9,0,-1,2,3
1511884184573797,-2,7,6,2,-14,7,4,0
1511884184573797,1,0,1,14,14,3,-2,-2
1511884184573797,-2,-17,-7,-10,8,-3,5,2
1511884184573797,0,5,-6,3,-1,-6,-6,1
1511884184595885,-2,-12,-3,-10,-26,-35,-34,-9
1511884184595885,4,31,10,18,-15,-7,-3,2
1511884184597004,-1,-3,-9,-4,-1,11,9,-1
1511884184597004,-3,-19,-10,-14,7,5,4,-2
1511884184610481,7,18,5,-3,-3,11,15,4
1511884184610481,-7,-34,-7,-2,1,2,-1,-4
1511884184611481,2,9,7,-1,9,-1,-2,2
1511884184611481,0,7,1,0,-46,-16,-6,-1
1511884184633655,0,7,-1,-8,3,2,1,-1
1511884184633655,-2,7,-1,12,1,12,7,-2
1511884184634644,-1,-16,-3,-6,-10,-3,3,3
1511884184634644,1,17,8,0,-7,-9,-8,-2
1511884184655697,1,22,17,16,5,4,2,-1
1511884184655697,5,7,-3,2,27,7,0,-1
1511884184656601,-10,-24,3,17,-40,-17,-4,-2
1511884184656601,-3,-7,-16,-26,14,-4,-4,-4
1511884184670641,0,-2,-1,9,-13,12,12,2
1511884184670641,-2,10,-1,1,-4,-15,-17,-4
1511884184671641,-6,-15,-8,3,23,13,7,-5
1511884184671641,6,12,9,7,16,-2,-1,9
1511884184693923,-2,-9,-10,-13,9,3,7,-2
1511884184693923,-4,-7,-2,3,-14,-6,-11,-4
1511884184694358,2,7,-2,-12,8,-5,-9,-4
1511884184694358,-1,-2,3,3,9,5,7,3
1511884184715915,-1,3,-7,1,10,3,-7,-3
1511884184715915,3,3,10,16,-14,8,14,5
1511884184716983,-5,-18,-16,-28,-6,-16,-16,-9
1511884184716983,4,9,7,15,16,16,10,6
1511884184730958,-2,-6,1,-1,-3,22,7,-3
1511884184730958,-3,-2,2,4,-5,-27,-15,-2
1511884184731960,0,9,6,1,-13,-50,-41,-5
1511884184731960,-3,-20,-13,-6,-5,12,7,-6
1511884184753013,-2,-16,-6,0,25,4,3,3
1511884184753013,3,18,10,-6,-15,-22,-17,-8
1511884184754015,-2,-12,-4,-2,-29,23,17,2
1511884184754015,1,10,-2,-24,26,2,2,-2
1511884184776074,1,-16,-1,22,18,-1,3,4
1511884184776074,-1,1,-1,-8,-33,3,15,1
1511884184777077,1,7,-3,-11,15,-23,-23,-1
1511884184777077,-5,-2,5,9,-26,9,6,-1
1511884184791172,-1,-9,-11,-5,-6,8,6,1
1511884184791172,2,9,0,-11,7,9,8,4
1511884184791646,-1,4,4,20,-12,-3,-6,-2
1511884184791646,1,8,-4,3,-24,2,9,1
1511884184813253,-8,-7,-10,-4,49,-12,-16,-5
1511884184813253,0,-2,2,2,1,7,6,5
1511884184814254,3,7,7,4,22,30,20,-1
1511884184814254,4,12,2,-4,-18,-21,-15,0
1511884184835313,5,24,8,4,-16,-24,-13,0
1511884184835313,-9,-29,-16,-18,-13,-4,-3,-6
1511884184836289,1,-9,1,16,12,27,22,7
1511884184836289,1,3,-1,6,30,-10,-13,-3
1511884184850326,-1,4,1,-12,-41,-19,-9,-2
1511884184850326,2,0,3,-12,-20,16,10,2
1511884184851328,3,17,-1,-15,20,-2,1,3
1511884184851328,-5,5,-3,7,-7,8,7,-2
1511884184873432,-1,-19,5,4,-17,-9,-9,-3
1511884184873432,0,4,-3,-3,22,8,4,1
1511884184874419,0,19,4,-14,27,1,-1,1
1511884184874419,-9,-18,0,18,24,11,6,-3
1511884184895997,1,-1,-8,-15,2,-2,1,4
1511884184895997,-2,2,3,4,5,-2,-6,-5
1511884184896973,0,2,3,7,-8,7,8,0
1511884184896973,0,-1,2,-4,-2,-11,-7,-1
1511884184910557,0,8,-3,-18,-6,-1,-5,-2
1511884184910557,1,0,2,5,-11,7,10,4
1511884184918578,-8,-39,-13,-2,4,-8,-13,-6
1511884184918578,0,4,-1,-10,-1,1,3,0
1511884184933621,-2,-12,0,7,-21,8,13,-1
1511884184933621,2,0,-12,-28,-33,-23,-22,-2
1511884184933621,-3,3,2,-14,-9,8,10,-1
1511884184933621,-1,-12,-1,-2,-6,5,5,-1
1511884184955680,-2,15,3,-15,-23,-19,-20,-7
1511884184955680,1,24,10,25,20,9,8,4
1511884184956659,-10,-57,-17,14,-11,1,-1,-6
1511884184956659,2,18,3,-1,45,7,0,0
1511884184969718,-6,-23,-6,3,-29,-10,0,-2
1511884184969718,-2,3,-3,1,56,-1,-9,-4
1511884184978715,3,19,9,-6,-18,-11,-7,-1
1511884184978715,-2,2,7,12,-24,7,5,-3
1511884184993783,-1,-3,-1,9,42,2,-1,0
1511884184993783,1,-1,3,3,-10,1,3,-1
1511884184994284,-4,-15,-6,-4,-10,0,5,-1
1511884184994284,2,-6,-3,-2,-5,-17,-12,-3
1511884185015899,5,24,11,21,-22,3,2,1
1511884185015899,-8,-25,-14,-20,-34,-8,-2,-2
1511884185016904,5,29,8,8,-8,23,27,8
1511884185016904,-8,-32,-12,-41,-4,-19,-24,-8
1511884185029908,0,-7,-2,2,-19,-2,1,3
1511884185029908,4,6,7,15,-21,-13,-8,-4
1511884185037955,-4,-11,-9,-6,2,-10,-14,-5
1511884185037955,6,26,5,4,0,11,13,8
1511884185052995,-3,-25,-4,-13,15,14,6,-1
1511884185052995,-3,-7,-2,8,3,0,0,0
1511884185053972,6,13,4,4,25,10,14,5
1511884185053972,0,0,-1,28,6,-3,-12,-1
1511884185076031,0,13,-7,-31,-4,-5,-6,-6
1511884185076031,-2,-18,1,1,38,14,8,5
1511884185077034,5,29,7,7,-13,-7,-5,-2
1511884185077034,-5,-16,-5,-1,-2,9,10,-3
1511884185090628,0,4,2,15,9,-3,-2,-2
1511884185090628,1,-2,-7,-3,-9,-20,-12,0
1511884185098656,-3,3,0,1,-19,-6,-10,-7
1511884185098656,-1,3,-2,-43,-29,-5,4,-3
1511884185113720,7,18,5,12,9,7,4,5
1511884185113720,-2,-7,-15,-25,-25,-3,6,-1
1511884185113720,-2,-1,5,8,23,5,0,-1
1511884185113720,1,23,7,19,-24,5,3,1
1511884185135779,-7,-29,-7,-23,-16,-15,-4,-1
1511884185135779,-3,-21,-6,4,12,8,-2,-3
1511884185136782,1,9,-1,6,0,3,4,2
1511884185136782,-3,-12,-4,0,-6,-6,-8,-4
1511884185149791,-1,16,2,14,13,8,4,0
1511884185149791,2,12,6,-6,14,7,10,4
1511884185157838,-2,-5,0,-6,-20,-17,-15,-5
1511884185157838,0,-6,4,20,25,0,-2,3
1511884185172852,1,-4,-2,10,15,-12,-10,0
1511884185172852,0,-1,5,21,11,14,9,1
1511884185173872,-2,0,-4,-13,8,5,2,-3
1511884185173872,1,2,-8,-32,-11,-6,-7,3
1511884185195952,-1,-1,0,2,-6,5,7,1
1511884185195952,-4,0,0,-10,32,6,-9,-6
1511884185196950,5,19,7,10,-29,1,6,6
1511884185196950,-7,-24,-4,21,50,18,15,-3
1511884185209985,1,7,-1,-14,-5,-18,-17,-2
1511884185209985,-5,-5,-3,1,-20,-6,0,-3
1511884185218007,0,4,-5,-8,3,1,0,0
1511884185218007,0,2,5,4,-22,-17,-13,-4
1511884185233027,-2,7,1,11,14,8,2,-4
1511884185233027,2,14,-5,-24,17,6,4,-1
1511884185234026,-2,2,2,4,12,-6,-7,-2
1511884185234026,-1,-24,1,14,1,-12,-10,-1
1511884185256085,3,1,8,8,12,8,8,4
1511884185256085,4,13,4,-7,-39,-2,-1,2
1511884185257087,-2,-10,-5,0,-26,5,4,1
1511884185257087,4,13,1,-9,-6,-20,-6,0
1511884185279147,0,5,5,-1,6,15,7,-2
1511884185279147,1,-11,0,1,-29,-6,-3,0
1511884185280149,3,-4,1,12,23,2,-1,2
1511884185280149,0,3,-2,15,-1,9,4,0
1511884185293716,-1,0,-1,-14,-18,-10,-5,-2
1511884185293716,-1,-2,1,4,-10,1,2,0
1511884185294189,1,2,-1,-8,-17,-6,-8,-2
1511884185294189,-1,-8,-7,6,6,12,14,5
1511884185316026,-2,2,-1,-9,0,-7,-5,-2
1511884185316026,0,-6,-9,5,27,-23,-24,-6
1511884185317028,1,0,-5,0,-4,-3,0,0
1511884185317028,1,14,6,-13,-12,1,1,0
1511884185339081,-4,-15,-9,3,-37,11,13,0
1511884185339081,0,17,7,16,26,9,9,-1
1511884185340057,-1,-21,-4,-13,12,-20,-22,-4
1511884185340057,0,16,-1,-3,2,-6,-4,-5
1511884185353092,-1,3,-2,3,18,3,2,-2
1511884185353092,-1,-5,5,0,-24,-5,-4,1
1511884185354106,-2,-2,-6,-28,54,17,7,-2
1511884185354106,0,-5,0,-2,-9,7,5,2
1511884185376181,2,0,0,-9,-9,-9,-1,0
1511884185376181,-2,-9,-6,2,17,6,3,-1
1511884185376181,-3,1,5,9,-9,6,10,0
1511884185376181,2,0,8,6,-1,5,5,-3
1511884185399216,-3,-1,-10,3,5,-19,-19,2
1511884185399216,1,3,-1,-23,-17,6,5,1
1511884185400219,-2,-11,-4,-6,-13,-21,-14,-1
1511884185400219,-1,7,3,14,28,8,2,-4
1511884185413256,0,1,2,-1,-26,10,11,0
1511884185413256,-1,-4,0,9,-30,-4,0,-2
1511884185414259,2,3,-2,-2,-2,4,3,3
1511884185414259,-3,-7,-3,-4,13,1,-9,-4
1511884185435347,-1,5,10,40,-10,-2,-2,-1
1511884185435347,2,1,-2,-10,-8,-2,-1,-1
1511884185436344,2,7,9,11,37,11,8,1
1511884185436344,-6,-16,-3,1,2,-2,-3,1
1511884185459379,0,-10,-11,-21,-23,-8,1,1
1511884185459379,-1,3,1,-2,31,14,10,1
1511884185459379,-2,-2,2,-6,-17,-25,-18,-6
1511884185459379,2,12,2,-7,7,6,5,1
1511884185473416,0,6,9,30,-1,10,4,0
1511884185473416,-3,-5,-5,1,5,-26,-20,-3
1511884185474419,-3,-5,1,0,-22,4,7,2
1511884185474419,1,6,0,3,-22,2,-2,-3
1511884185496009,-5,-1,-3,-23,10,-22,-14,-5
1511884185496009,-1,-12,0,21,1,12,10,2
1511884185497081,0,-1,-4,7,-11,4,5,2
1511884185497081,2,1,-2,8,1,-5,-9,-5
1511884185518708,-3,-1,5,2,-31,13,15,1
1511884185518708,2,15,-5,-11,-7,-13,-9,2
1511884185519660,-2,-8,-3,-5,2,-6,-7,-4
1511884185519660,4,3,5,8,-6,4,7,6
1511884185533758,-2,-22,-13,-29,14,7,3,0
1511884185533758,-2,-3,3,5,13,5,1,-1
1511884185533758,2,7,0,13,-15,-6,1,0
1511884185533758,-7,-16,-10,-8,-15,-18,-11,-2
1511884185555806,-1,10,2,-2,1,2,0,-2
1511884185555806,-2,0,4,-18,-6,7,4,-1
1511884185556759,1,12,-2,-1,29,12,1,-1
1511884185556759,3,10,-2,-30,-8,3,9,2
1511884185578818,-3,-12,-1,3,19,-22,-19,-3
1511884185578818,-4,-4,-1,-9,-24,9,6,-3
1511884185579820,0,-1,1,20,1,-9,-2,-2
1511884185579820,-4,2,1,-12,-11,1,-7,-4
1511884185593567,1,-4,-5,-10,10,13,18,5
1511884185593567,5,9,4,7,4,-9,-9,2
1511884185594392,-6,0,2,12,-27,1,2,-5
1511884185594392,2,-6,-4,-17,0,10,7,2
1511884185615725,0,6,-1,1,-7,-15,-10,-4
1511884185615725,0,10,3,-1,-9,-8,-9,-3
1511884185616622,-1,-5,-6,-12,2,10,9,1
1511884185616622,1,-11,-3,14,8,3,2,1
1511884185638796,2,17,9,10,10,3,-5,-4
1511884185638796,1,7,-1,-6,1,-5,-2,3
1511884185639685,-5,-12,-8,-14,-12,1,2,-3
1511884185639685,3,11,7,-4,-13,8,13,2
1511884185661745,3,6,3,24,22,-4,-4,0
1511884185661745,-3,-25,-11,-27,-9,-1,-7,-6
1511884185662749,3,8,6,2,2,3,5,5
1511884185662749,0,1,-3,-3,1,-9,-9,-2
1511884185675957,-1,-2,8,-1,-7,12,9,1
1511884185675957,-2,-2,0,14,-18,0,3,0
1511884185676782,2,11,-1,-12,2,4,2,3
1511884185676782,-2,-27,-4,16,21,8,3,-5
1511884185699378,-5,-13,-12,-55,-22,-15,-8,4
1511884185699378,-3,0,-2,9,11,-6,-5,-4
1511884185699877,-2,-6,-9,-7,21,9,3,-3
1511884185699877,-6,-11,-10,-13,10,-2,-6,-2
1511884185713458,0,-4,2,32,13,26,19,2
1511884185713458,-1,0,1,1,10,8,3,1
1511884185714461,2,11,12,3,-15,-22,-13,-3
1511884185714461,-3,-30,-9,-24,-7,2,4,1
1511884185735556,-2,-7,-9,-16,0,3,4,-3
1511884185735556,3,0,-3,-19,-33,-16,-12,4
1511884185736544,4,5,8,15,20,7,1,1
1511884185736544,0,20,6,8,-29,-8,-4,-3
1511884185759579,2,-5,-8,-1,10,4,1,0
1511884185759579,-3,5,5,21,-12,-4,-3,-3
1511884185759579,-4,-40,-19,-30,-21,-2,-3,-1
1511884185759579,1,10,4,21,-6,-21,-17,-2
1511884185772643,5,6,5,-6,4,-1,-3,2
1511884185772643,-5,-1,-2,8,35,23,16,-3
1511884185780645,-3,-3,2,10,-46,-24,-16,-4
1511884185780645,0,9,-1,4,15,6,3,-4
1511884185796177,4,6,8,8,9,7,0,-1
1511884185796177,4,6,-9,-55,10,-11,-1,4
1511884185796678,-1,10,9,13,20,11,5,0
1511884185796678,-4,-17,-5,3,1,-5,-1,1
1511884185819079,-1,18,-1,-18,3,-20,-19,-4
1511884185819079,0,-9,3,18,18,7,6,1
1511884185820083,-1,-10,-13,-3,9,3,2,0
1511884185820083,-4,17,4,-15,-1,5,5,0
1511884185833117,-4,-27,-7,14,-3,1,3,-4
1511884185833117,-1,-2,4,26,9,4,1,1
1511884185834120,2,11,6,-1,8,-8,-7,-1
1511884185834120,5,10,4,17,-9,-12,-3,0
1511884185856179,-10,0,1,-6,-20,-12,-11,-6
1511884185856179,-1,-15,-2,14,2,-10,-5,2
1511884185856179,0,4,0,-2,-4,13,9,-4
1511884185856179,2,5,1,-9,-26,-7,-5,3
1511884185879241,2,10,2,11,4,6,3,1
1511884185879241,-1,-14,-6,4,-8,8,8,-4
1511884185880243,-1,-7,2,3,15,2,0,2
1511884185880243,-1,3,-5,-26,2,-2,-3,0
1511884185892807,3,12,1,3,2,1,-5,-1
1511884185892807,3,1,7,-10,-12,-3,3,1
1511884185901307,-3,3,-3,3,-3,1,0,-1
1511884185901307,-4,-10,4,14,7,-1,-2,-4
1511884185915388,-2,-17,-8,-6,-9,1,2,-1
1511884185915388,0,14,3,-3,1,-1,-1,-1
1511884185916373,-1,-3,-1,0,0,5,3,-1
1511884185916373,9,25,6,-15,1,-8,1,7
1511884185939433,-6,-10,-4,19,10,2,1,-4
1511884185939433,-3,-11,-3,-4,-18,2,-7,-2
1511884185939433,0,13,2,-2,14,1,3,-1
1511884185939433,0,6,-2,-4,-42,-3,1,2
1511884185952490,0,-9,-2,-1,54,2,-7,-1
1511884185952490,-2,4,7,13,21,22,19,-1
1511884185960485,2,-2,-2,-7,-5,-13,-16,-2
1511884185960485,-4,-4,-2,16,13,2,-4,-2
1511884185975525,2,2,2,5,-13,1,5,4
1511884185975525,-3,-6,-5,5,6,10,3,-1
1511884185976527,-2,3,1,21,-24,-6,2,2
1511884185976527,1,1,4,8,-15,-22,-16,-6
1511884185999140,-4,-8,-12,-24,-42,6,10,1
1511884185999140,1,6,-3,-15,28,2,7,4
1511884186000119,-1,-1,7,12,-13,-20,-16,-7
1511884186000119,3,10,-9,-26,-9,-5,-7,-1
1511884186012714,2,-7,2,-12,17,-2,1,-2
1511884186012714,1,14,-1,-18,-32,3,-1,-1
1511884186020730,0,6,-3,-5,6,15,11,2
1511884186020730,-9,-31,-6,8,4,-12,-2,-4
1511884186035747,1,9,5,-13,-49,-23,-16,-5
1511884186035747,-4,-5,0,16,23,-1,-4,-1
1511884186036750,1,-6,-9,-25,-5,3,5,2
1511884186036750,-2,-1,-1,-2,16,18,7,-1
1511884186058808,2,0,6,21,14,11,7,2
1511884186058808,0,5,-3,-8,-68,-40,-21,-3
1511884186059811,-6,6,3,-19,12,10,4,-3
1511884186059811,-2,-21,-3,17,9,1,0,3
1511884186072847,-2,-10,-8,-14,5,4,-2,0
1511884186072847,2,-1,3,-3,9,7,10,-2
1511884186080867,0,7,4,17,32,-2,-7,0
1511884186080867,3,16,4,-19,14,-3,-2,-2
1511884186095909,-6,-15,-3,12,11,19,10,1
1511884186095909,-1,-4,1,13,4,-11,-8,2
1511884186096911,-1,4,-1,-7,-3,-11,-6,-2
1511884186096911,-2,-9,4,25,16,14,8,0
1511884186119142,4,12,1,7,0,-5,-3,2
1511884186119142,-1,0,-7,-14,10,15,7,-2
1511884186120144,-2,-17,-4,3,-1,-2,-5,-2
1511884186120144,1,5,3,0,9,-10,-7,0
1511884186132149,2,17,2,-9,1,1,-1,-3
1511884186132149,-14,-17,-7,1,-27,-9,-2,0
1511884186141173,6,-8,-1,-1,-3,6,3,-1
1511884186141173,18,21,3,3,-7,2,3,6
1511884186156215,1,-5,-3,-15,-4,-2,-2,0
1511884186156215,-3,-9,-5,1,12,-7,-5,-2
1511884186156215,-6,4,2,10,-1,-2,-4,-1
1511884186156215,-10,-25,-9,-20,-7,18,15,0
1511884186179275,-2,8,9,17,-1,-22,-15,-9
1511884186179275,0,-8,-3,-19,-15,-5,-10,2
1511884186180277,2,1,-5,-22,21,12,12,10
1511884186180277,1,13,4,5,5,2,1,-8
1511884186192840,0,5,2,-1,-5,10,7,7
1511884186192840,2,-5,-2,2,-26,4,6,-6
1511884186200834,-2,-6,0,14,-20,-21,-16,-4
1511884186200834,3,-4,-7,10,7,-6,-7,10
1511884186215994,-1,7,12,0,33,11,3,-8
1511884186215994,-1,-5,-6,-5,18,2,0,-3
1511884186216995,8,15,10,-12,10,16,11,4
1511884186216995,-5,-10,-10,-1,16,6,-1,-8
1511884186239054,-5,-15,0,20,-2,-15,-5,6
1511884186239054,9,32,14,10,10,3,5,5
1511884186240041,-7,-45,-12,6,-43,-13,-6,-1
1511884186240041,-6,2,-1,-15,1,-2,-3,-2
1511884186261113,1,-4,-7,-10,-37,-7,9,2
1511884186261113,-1,8,0,-1,22,-1,-2,-2
1511884186262088,-1,-7,-1,0,-23,-3,-3,-2
1511884186262088,2,9,8,-1,-15,1,-3,2
1511884186276152,-1,-11,-7,3,-9,3,4,0
1511884186276152,-1,-6,-1,7,-11,-19,-13,-3
1511884186276152,-6,4,-1,6,-12,4,7,0
1511884186276152,0,-7,-4,-1,1,4,4,-1
1511884186299212,0,7,-4,-5,6,-3,-11,-2
1511884186299212,2,6,1,25,2,-3,-3,0
1511884186300216,2,8,6,9,17,7,2,-1
1511884186300216,-7,-29,-14,-18,-4,1,2,-4
1511884186321150,-3,8,2,-6,-4,-4,1,-3
1511884186321150,1,-2,1,7,-24,-11,-10,-4
1511884186322152,-3,6,-4,-26,11,0,0,-2
1511884186322152,1,10,5,10,2,1,2,2
1511884186336191,-3,-23,-11,-3,-33,-4,2,-3
1511884186336191,1,3,3,2,11,2,3,0
1511884186336191,1,7,2,5,2,3,3,-2
1511884186336191,-3,0,-1,1,7,-16,-12,-2
1511884186359251,1,5,2,-17,7,6,-4,-4
1511884186359251,0,9,0,-3,5,-5,-5,1
1511884186360253,0,-18,-17,-9,3,0,9,4
1511884186360253,-4,7,2,16,1,-7,-8,-4
1511884186381311,3,12,5,4,5,5,4,3
1511884186381311,0,-3,-3,6,23,10,2,1
1511884186382314,3,-6,-6,-22,27,3,-2,0
1511884186382314,4,3,0,0,-7,-2,5,1
1511884186395884,-7,-26,-10,5,36,4,-7,-4
1511884186395884,0,-2,0,-16,-30,-2,5,0
1511884186396887,-3,4,9,14,-6,9,2,-2
1511884186396887,0,17,3,1,-17,-13,-1,2
1511884186419449,-5,-1,-8,-34,-6,-7,-12,-6
1511884186419449,1,7,1,15,-15,2,2,1
1511884186419449,0,-22,-3,-5,-7,-2,1,-2
1511884186419449,1,10,7,15,15,13,5,1
1511884186441534,-1,-2,1,-16,-19,-7,3,0
1511884186441534,-3,-13,-7,-8,-7,6,6,0
1511884186442536,1,16,5,-9,-19,-12,-13,-3
1511884186442536,-2,-2,-6,-6,32,11,0,-3
1511884186455543,3,-2,7,23,6,-10,-5,4
1511884186455543,0,7,3,1,33,8,-3,-5
1511884186456546,1,-3,1,1,-1,4,7,3
1511884186456546,-1,3,-1,-2,-9,-12,-4,0
1511884186478632,1,-22,-4,16,15,4,1,0
1511884186478632,-4,-12,-3,-16,-10,-2,1,-1
1511884186479607,3,9,1,-6,1,0,-3,-1
1511884186479607,-6,-12,-2,10,-27,-2,-2,-5
1511884186501696,1,15,0,13,12,-6,-1,2
1511884186501696,-2,-1,6,17,32,1,-2,-2
1511884186502699,-3,0,-4,11,-1,-2,-4,0
1511884186502699,-3,-18,-4,-18,-11,12,7,0
1511884186515734,-1,8,3,10,-5,-7,-5,-1
1511884186515734,1,-5,2,-10,-11,-2,6,4
1511884186516734,-2,5,-10,4,18,-5,-5,-1
1511884186516734,3,15,8,1,-14,3,-1,-1
1511884186538971,-7,-29,-3,1,1,10,4,-1
1511884186538971,4,11,-9,-42,-18,-5,0,0
1511884186539797,-4,-13,-3,11,5,4,4,-1
1511884186539797,2,-2,-2,3,1,-6,-4,0
1511884186561854,2,2,3,4,-3,2,-5,-3
1511884186561854,-4,2,-1,6,19,1,-4,-4
1511884186562866,7,17,13,11,-25,-6,9,8
1511884186562866,-6,-36,-20,-26,-3,-3,-5,-5
1511884186575950,4,20,3,-7,4,5,6,2
1511884186575950,-4,-18,-3,7,-7,2,-3,-5
1511884186576895,-2,10,2,-5,-11,-4,-9,-3
1511884186576895,3,6,7,5,9,-3,-3,-2
1511884186599058,4,15,3,6,-2,-2,3,5
1511884186599058,-8,-12,-9,16,13,10,1,-3
1511884186600061,2,-4,-4,-14,7,-20,-7,0
1511884186600061,1,12,5,12,2,8,6,0
1511884186621805,-4,-3,-6,-1,-12,-9,-9,-4
1511884186621805,5,8,6,7,-2,2,6,4
1511884186622615,-1,3,6,-3,6,7,2,1
1511884186622615,-3,-7,1,4,-4,0,-3,-4
1511884186635844,1,8,-2,5,-5,5,4,0
1511884186635844,-1,11,-5,-14,20,1,0,-3
1511884186636650,-9,-43,-15,-19,-20,-13,-3,-1
1511884186636650,2,16,5,-5,-21,-4,-1,0
1511884186658882,-1,7,6,-2,9,9,7,1
1511884186658882,1,-16,-6,-5,5,-4,-1,5
1511884186659712,-1,15,3,-7,-20,-7,-11,-8
1511884186659712,-6,-5,-4,-2,20,-1,-3,-4
1511884186681773,4,17,5,8,9,-2,-2,0
1511884186681773,-3,-10,-2,2,-7,7,1,-2
1511884186682777,2,4,1,5,11,6,7,4
1511884186682777,-8,4,6,3,-14,-7,-10,-5
1511884186695983,9,9,1,5,0,-7,-3,2
1511884186695983,3,8,8,10,-15,4,2,1
1511884186697011,-4,-13,-5,-22,-18,2,-4,-2
1511884186697011,-3,-5,-4,6,4,-10,2,-3
1511884186719305,-4,-9,-5,-32,-42,-5,1,-4
1511884186719305,-7,-7,-4,10,16,-7,-12,-5
1511884186720185,1,0,2,1,3,5,2,-3
1511884186720185,6,-4,-2,-4,5,-4,-3,5
1511884186741251,-3,-2,-3,-9,-6,0,2,1
1511884186741251,5,19,5,-14,-14,0,7,2
1511884186742260,-3,-28,-12,19,11,-10,-16,-6
1511884186742260,5,10,4,9,-4,3,1,0
1511884186756281,-4,-8,-3,2,-2,-2,1,4
1511884186756281,2,5,7,17,-15,-3,-1,1
1511884186756281,-2,8,-4,-5,24,7,7,-3
1511884186756281,1,-2,0,-7,-16,-11,-7,-2
1511884186778369,-4,-1,-3,1,9,3,0,-2
1511884186778369,7,1,2,-1,-4,-1,4,4
1511884186779341,-3,0,4,14,7,-2,-7,-3
1511884186779341,9,12,9,11,4,5,6,6
1511884186801907,-11,-5,-3,-18,2,-5,-4,-5
1511884186801907,-2,-22,-11,-19,-6,-2,-3,1
1511884186802405,3,8,4,-2,-5,-2,2,1
1511884186802405,-1,-12,-13,5,1,3,2,0
1511884186815486,-7,-10,5,18,-2,0,-5,-3
1511884186815486,6,6,1,-25,-7,-1,1,0
1511884186823480,0,11,4,-13,7,4,2,1
1511884186823480,-3,-1,-7,-2,1,1,0,-2
1511884186838553,-4,-36,-6,13,2,1,1,-1
1511884186838553,-7,2,4,-19,-3,-5,-4,-4
1511884186839554,3,6,1,12,2,6,5,0
1511884186839554,-3,2,6,13,-1,-3,-2,4
1511884186861609,4,15,2,8,-10,-6,-2,-3
1511884186861609,1,-3,5,9,-4,3,2,2
1511884186862612,-9,-16,-18,-28,7,-6,-13,-8
1511884186862612,-1,-1,10,26,6,21,24,2
1511884186875632,6,18,1,-5,-7,-18,-11,4
1511884186875632,-6,-17,-5,8,-36,-8,-6,-7
1511884186883668,2,25,6,0,-18,9,8,0
1511884186883668,-8,-39,-16,-8,-32,-23,-14,-3
1511884186898737,-1,-4,-1,-21,-5,14,9,-2
1511884186898737,-10,1,-4,-2,7,-6,-2,0
1511884186899238,8,15,7,10,4,7,4,1
1511884186899238,-6,-28,-16,-9,-9,2,1,2
1511884186921799,3,13,3,-5,10,0,0,-2
1511884186921799,-1,-6,1,22,6,1,-2,-3
1511884186921799,-4,-5,2,2,17,7,4,2
1511884186921799,3,20,7,6,5,-12,-10,-1
1511884186934836,-2,-11,-15,-3,-3,-6,-1,-2
1511884186934836,-1,4,3,-5,7,-8,-10,-4
1511884186942858,1,4,7,13,-5,5,3,2
1511884186942858,-1,7,-1,-10,7,10,2,-2
1511884186957895,0,-8,2,5,-3,5,5,4
1511884186957895,1,19,4,4,0,-5,-4,-4
1511884186958883,-4,-27,-6,-6,-15,-3,5,3
1511884186958883,-3,-7,-8,-2,43,-1,-13,-5
1511884186981932,-4,-3,-9,-29,-67,0,6,-2
1511884186981932,2,3,3,1,17,3,4,3
1511884186981932,-2,-1,-5,-7,0,-3,-3,-1
1511884186981932,-1,5,4,-6,-10,-7,-7,-1
1511884186995509,1,4,6,-1,8,0,-2,-2
1511884186995509,0,-3,-6,-3,7,2,1,-1
1511884187003522,0,-8,-6,-5,-6,-1,2,0
1511884187003522,3,7,1,-16,11,4,0,-1
1511884187018615,-3,6,7,28,15,-5,-4,-1
1511884187018615,0,-7,-5,-5,-10,1,1,2
1511884187019629,-3,0,-3,3,6,-3,-2,-2
1511884187019629,4,4,6,23,15,6,4,1
1511884187041711,-1,1,-2,4,11,2,0,0
1511884187041711,0,-2,0,3,3,1,-2,0
1511884187042708,0,0,0,-2,-3,-4,-1,1
1511884187042708,-2,2,-1,-6,-14,-2,0,1
1511884187054739,2,0,-1,6,18,6,2,2
1511884187054739,-2,-1,-2,5,-8,0,1,-3
1511884187063763,2,10,6,12,-1,-4,-4,-1
1511884187063763,-5,-10,-7,-14,-7,0,3,-2
1511884187078789,1,0,-1,-18,15,0,-1,0
1511884187078789,0,-1,0,-2,4,-1,-1,0
1511884187079779,-2,0,4,21,9,-4,-4,-2
1511884187079779,-4,-2,-11,-21,-14,-2,3,-2
1511884187101891,1,1,-1,6,-6,0,1,0
1511884187101891,0,-4,-1,11,6,1,-1,1
1511884187103396,-2,-2,0,0,-5,-1,-1,-1
1511884187103396,2,5,8,19,8,3,0,0
1511884187114641,1,-3,-2,-18,-1,-2,-3,0
1511884187114641,-2,0,-2,-4,5,0,0,0
1511884187123669,2,-2,-4,-18,5,2,-1,-2
1511884187123669,-2,1,0,0,-9,-1,-1,-1
1511884187137705,-1,-1,0,-15,0,0,-3,-1
1511884187137705,1,2,-1,-37,5,1,1,-1
1511884187146702,2,-2,1,-2,3,-1,-1,0
1511884187146702,0,3,0,7,28,5,1,-1
1511884187161754,0,2,-2,31,12,1,-3,0
1511884187161754,-1,-1,-2,2,-10,-2,-1,1
1511884187162746,-2,-3,-2,7,-11,-5,-3,-3
1511884187162746,0,1,0,3,-2,1,0,0
1511884187183828,1,1,1,9,-1,-2,-1,-3
1511884187183828,-2,-1,0,-1,-2,-1,-1,0
1511884187185833,-4,-3,-2,-5,-1,-1,-2,0
1511884187185833,0,1,0,-8,-4,-1,-1,0
1511884187197891,0,-2,-1,-7,1,-1,1,0
1511884187197891,0,-2,-1,0,-5,-3,-1,0
1511884187206390,0,-2,1,5,-1,-1,0,-1
1511884187206390,1,0,0,1,-9,-5,1,0
1511884187221534,-1,0,0,0,0,1,1,-1
1511884187221534,0,-2,-1,5,3,0,1,-1
1511884187223539,-1,1,-1,-4,-2,-4,-1,-1
1511884187223539,-3,-1,-1,-22,-6,3,-1,-3
1511884187243592,0,0,-3,-52,-1,0,1,4
1511884187243592,4,1,1,-40,1,0,-2,0
1511884187245598,-2,2,0,-26,-1,-1,-1,0
1511884187245598,-8,-3,0,-23,-7,-3,-1,-2
1511884187257654,0,-4,-6,-10,-2,-1,0,-2
1511884187257654,-10,0,2,5,-1,-1,-1,-2
1511884187266655,10,-1,-5,15,-1,1,-1,-1
1511884187266655,-5,3,12,31,-2,-3,-2,-3
1511884187288742,0,2,3,39,-2,-2,-2,-1
1511884187288742,1,6,34,34,-2,-3,1,0
1511884187290718,-5,-8,-19,20,-2,-1,0,-2
1511884187290718,4,0,-6,10,-4,1,-1,1
1511884187304281,1,-4,-7,14,1,-3,0,0
1511884187304281,1,2,4,11,-1,1,0,0
1511884187305785,-6,3,10,3,0,1,1,1
1511884187305785,1,-5,-5,-4,-3,-2,0,1
1511884187317584,-2,5,7,3,2,0,-2,-3
1511884187317584,1,-4,-12,2,-5,-8,2,3
1511884187326608,0,-1,0,-5,-2,0,-1,0
1511884187326608,-1,-3,-8,-7,6,9,-4,-5
1511884187341675,-2,-2,2,1,-12,0,4,2
1511884187341675,1,-1,-8,-1,6,27,14,-1
1511884187342678,-3,-11,-16,-24,-27,-30,-11,4
1511884187342678,7,8,10,-3,-5,-26,-14,2
1511884187363735,1,4,3,-8,8,-41,5,1
1511884187363735,-1,-2,-6,2,-13,2,-9,4
1511884187365713,-9,-5,-5,-7,17,76,0,-16
1511884187365713,2,0,-3,16,6,16,9,3
1511884187377772,-3,-5,-3,-29,1,-1,-5,-1
1511884187377772,0,-1,-7,1,-20,-42,3,2
1511884187386769,4,3,8,10,3,-8,2,5
1511884187386769,-2,-4,-7,-10,-3,0,-5,-2
1511884187401858,2,2,1,15,4,-10,4,1
1511884187401858,-3,-3,-2,-8,4,13,-1,-3
1511884187403362,-1,0,0,-2,-2,-4,-3,-2
1511884187403362,0,1,2,3,9,21,7,2
1511884187423597,-1,0,-1,0,-18,-21,-5,-2
1511884187423597,-5,-7,-7,-9,4,16,-8,-9
1511884187425610,0,7,7,7,3,-4,1,1
1511884187425610,2,-12,-4,-4,-1,-46,9,7
1511884187437663,1,-3,-8,0,-2,32,-4,-1
1511884187437663,-3,-1,-1,3,18,37,-1,-7
1511884187446658,4,10,2,4,-3,-2,5,4
1511884187446658,-5,-12,1,-5,7,8,-4,-5
1511884187461698,-5,-4,-4,-7,-30,-15,-16,-11
1511884187461698,3,2,-15,-7,7,-12,-3,4
1511884187462724,1,3,21,14,13,2,5,2
1511884187462724,0,3,-1,-10,-2,-24,-2,2
1511884187483780,-3,-21,-17,11,-10,48,6,-1
1511884187483780,3,14,44,7,18,0,2,0
1511884187485762,-2,-13,-62,-16,2,-9,-3,0
1511884187485762,4,16,23,18,-21,-34,-6,3
1511884187497819,0,0,-12,8,17,17,3,2
1511884187497819,5,3,12,-15,-43,10,12,5
1511884187506353,-3,-4,17,6,-13,-43,-10,-2
1511884187506353,-8,-15,-57,-12,-11,-9,-9,-10
1511884187521528,5,17,59,-17,13,33,7,2
1511884187521528,1,-11,-39,11,-8,-20,0,1
1511884187523521,4,13,47,12,8,5,6,4
1511884187523521,6,2,-12,45,25,31,9,6
1511884187543622,5,23,20,-77,-16,-28,-1,3
1511884187543622,-13,-24,13,68,-5,-18,-10,-8
1511884187545578,-2,-12,-64,-116,11,13,-1,-6
1511884187545578,6,7,15,79,-8,17,8,7
1511884187557636,-3,-1,10,4,-8,-7,1,0
1511884187557636,3,22,11,10,7,-14,-7,-1
1511884187566667,5,-12,4,42,11,7,4,4
1511884187566667,-12,-22,-16,-95,-21,-7,-8,-10
1511884187581788,-1,2,-38,-11,1,-7,0,-2
1511884187581788,5,14,-28,-102,-1,2,-1,3
1511884187583686,-3,-3,7,47,3,0,-2,-3
1511884187583686,2,-4,-7,-20,-3,11,6,4
1511884187604503,-9,-19,9,28,-2,-10,-8,-8
1511884187604503,-2,19,10,24,8,-2,-3,-1
1511884187605904,-1,-30,-44,-51,-9,-7,1,1
1511884187605904,2,30,27,-4,1,-5,-2,-2
1511884187617927,-11,-31,-7,20,1,11,-4,-5
1511884187617927,3,14,17,57,5,4,-4,-4
1511884187626824,10,45,20,37,-1,-8,3,4
1511884187626824,-12,-46,-12,-33,-22,20,16,-7
1511884187642045,3,-3,40,-19,6,-18,-28,3
1511884187642045,-6,-23,-29,6,-4,-15,-7,-2
1511884187642913,-14,-10,7,-13,5,7,-7,-11
1511884187642913,9,29,18,-5,6,-18,-8,4
1511884187663963,5,3,-25,32,35,16,27,5
1511884187663963,1,-8,0,-27,12,-2,-4,3
1511884187665928,5,31,39,47,-12,-2,4,-5
1511884187665928,-5,-15,-21,-38,13,22,2,1
1511884187678057,0,9,-19,1,-9,-5,0,7
1511884187678057,-6,-28,27,-5,-3,-12,-1,-8
1511884187687108,4,17,6,44,-25,-11,-11,3
1511884187687108,9,19,8,6,3,3,5,3
1511884187702580,-6,6,15,-9,-1,20,11,-4
1511884187702580,-12,-30,-20,-26,-2,-3,3,-6
1511884187708093,-8,-20,-3,2,0,-3,-5,3
1511884187708093,6,29,14,18,9,0,-4,-4
1511884187724249,7,5,7,15,-3,-6,0,2
1511884187724249,4,20,-11,14,8,16,12,3
1511884187725152,1,24,10,-10,-8,-1,1,2
1511884187725152,-2,-22,0,8,48,0,-4,-4
1511884187738261,-1,2,-14,43,-12,-5,-1,1
1511884187738261,3,13,-12,-29,-28,-5,-11,1
1511884187747221,-14,-64,-10,7,20,9,15,-3
1511884187747221,4,29,-7,-32,-6,1,-6,-1
1511884187761234,-7,-7,-3,-16,3,-3,-11,-5
1511884187761234,6,-1,4,46,32,22,30,-1
1511884187763240,1,1,-1,-38,-18,-43,-51,5
1511884187763240,-2,-11,-3,12,-35,15,19,2
1511884187784296,0,5,-7,-3,41,-7,-7,-1
1511884187784296,-3,6,15,5,39,13,0,-6
1511884187785299,-1,-10,-16,-22,-20,23,21,2
1511884187785299,-1,17,5,16,17,0,1,1
1511884187797834,-7,-21,-14,-9,-34,-4,-7,-4
1511884187797834,-2,1,-3,8,-18,-29,-19,-1
1511884187806858,14,58,9,-15,12,7,8,1
1511884187806858,-26,-91,-27,-12,-3,-5,-13,-10
1511884187821137,9,8,-15,-4,-5,-1,7,6
1511884187821137,2,8,7,-10,-22,16,16,5
1511884187823115,-11,-17,-11,8,-16,-7,-10,-7
1511884187823115,3,14,15,31,-17,-35,-26,-9
1511884187844170,2,-2,-11,-24,21,11,8,0
1511884187844170,2,4,11,0,-4,13,0,7
1511884187845173,-4,-37,-4,4,-6,1,12,-7
1511884187845173,-3,-5,-2,5,13,20,14,9
1511884187857232,-2,-1,1,1,-11,-85,-45,-13
1511884187857232,3,3,7,21,9,12,4,6
1511884187866256,0,7,-1,-23,-18,1,-1,-7
1511884187866256,5,18,2,-39,28,54,12,4
1511884187880293,-8,-16,-6,10,-22,-71,0,1
1511884187880293,-5,6,9,26,6,-2,-22,-11
1511884187887312,11,-5,5,17,68,30,20,17
1511884187887312,1,-1,6,4,-10,-5,-12,-6
1511884187904385,2,33,9,-31,-59,26,21,5
1511884187904385,-7,-21,-10,4,-53,-51,-16,-6
1511884187905887,1,10,13,65,86,32,6,0
1511884187905887,6,14,19,66,-36,1,6,4
1511884187918039,11,13,6,91,55,45,9,7
1511884187918039,4,-8,11,16,41,21,13,8
