timestamp,emg1,emg2,emg3,emg4,emg5,emg6,emg7,emg8
1511885873289747,1,-1,-1,-1,-1,-4,-3,0
1511885873289747,-1,-1,-4,-2,-1,-3,-3,0
1511885873299777,-3,-2,-1,-2,-3,-9,-2,-1
1511885873299777,-1,0,-3,0,3,19,4,-1
1511885873300781,0,-1,2,0,1,-4,-2,-1
1511885873300781,-1,-1,-2,-3,-2,-4,0,0
1511885873301783,1,1,0,-1,-2,-18,-6,-3
1511885873301783,-1,-1,0,-2,-3,14,5,1
1511885873302782,-1,-1,-4,-3,2,3,-3,-2
1511885873302782,1,0,3,1,-8,-6,3,-2
1511885873316820,0,0,-1,-2,-1,-4,-9,-2
1511885873316820,0,0,0,5,5,0,-4,-1
1511885873324873,0,1,-2,-2,-12,-3,1,1
1511885873324873,-2,0,-3,-1,1,5,1,0
1511885873332862,-3,-1,-2,-5,1,-6,1,0
1511885873332862,-2,0,1,-2,-3,-12,-2,-2
1511885873346903,-1,-1,-1,4,9,8,3,2
1511885873346903,0,-1,0,-3,-4,-3,-3,0
1511885873361944,1,1,3,3,1,5,0,0
1511885873361944,0,-2,-7,-4,-1,-12,-2,-2
1511885873362954,-1,-3,0,0,1,7,-3,-2
1511885873362954,0,0,1,0,4,-4,-1,0
1511885873410066,-3,-2,0,-1,-1,-5,0,-2
1511885873410066,0,0,1,3,-3,-4,-2,-2
1511885873411070,-1,-1,-5,-2,-1,0,-1,-1
1511885873411070,0,1,2,0,-3,-1,-1,1
1511885873412076,0,0,-1,-2,-2,1,0,1
1511885873412076,1,0,0,2,2,1,10,1
1511885873415080,-1,-1,-1,1,1,5,-3,-1
1511885873415080,1,-1,-2,0,0,0,0,-1
1511885873421097,-1,1,-1,-6,5,-4,-2,-2
1511885873421097,-2,0,0,4,-13,-6,1,-2
1511885873430174,0,-1,0,0,0,-4,0,0
1511885873430174,-3,0,1,-1,1,0,-1,-1
1511885873436179,-1,-3,-1,-1,2,1,-2,0
1511885873436179,-1,0,-3,-4,-1,-4,-5,-1
1511885873452269,-2,0,2,1,-4,-11,-5,-3
1511885873452269,-1,-3,-12,-4,1,9,7,0
1511885873459288,-2,-1,4,4,-3,2,-1,-1
1511885873459288,-1,-1,-5,-4,5,-7,-2,0
1511885873474325,-2,-1,0,-5,-2,-1,-1,-1
1511885873474325,0,-4,-6,-6,-3,-13,-5,-3
1511885873483349,0,1,6,9,-3,-1,2,-2
1511885873483349,0,-1,-3,3,1,1,-5,-1
1511885873497406,1,-1,-1,-3,1,-11,-2,0
1511885873497406,1,0,1,0,-2,13,1,-1
1511885873504589,-1,-1,-5,-6,2,-6,0,-1
1511885873504589,0,1,3,-3,0,3,-1,1
1511885873520799,-2,0,-2,3,-1,3,3,0
1511885873520799,-3,-2,1,-1,0,-5,-1,-1
1511885873521778,1,-1,-2,2,1,1,-1,0
1511885873521778,1,-1,-1,-3,0,-2,-3,0
1511885873542834,1,-2,3,0,1,3,-1,1
1511885873542834,1,1,-2,4,0,-5,-3,-1
1511885873544835,1,0,-1,-3,4,-7,0,-1
1511885873544835,-3,-1,0,1,-7,8,1,-1
1511885873557056,0,-1,-1,5,0,4,2,1
1511885873557056,-3,0,2,-16,-4,-9,-4,0
1511885873564076,1,0,1,12,-1,6,1,0
1511885873564076,0,0,0,2,0,5,-6,-1
1511885873580062,0,-1,-5,-2,-1,-4,0,-2
1511885873580062,-2,-1,3,0,0,0,-1,-1
1511885873581934,-2,0,-5,-7,-5,-9,-3,-1
1511885873581934,-1,-4,-14,-6,2,5,3,0
1511885873603118,-2,0,2,0,-2,1,-1,-1
1511885873603118,0,-1,2,8,0,-6,0,0
1511885873604996,-1,0,-12,-6,2,1,-3,-1
1511885873604996,0,1,6,-1,2,-4,1,0
1511885873618033,1,1,0,-3,-5,-10,-2,-1
1511885873618033,-1,1,4,1,2,11,0,-2
1511885873619036,2,0,8,0,3,13,4,2
1511885873619036,1,-1,1,10,-3,-4,0,-1
1511885873640142,1,1,4,-2,1,-3,-1,0
1511885873640142,0,-3,-1,-6,-6,-1,2,0
1511885873642124,-2,0,-3,9,8,-1,1,-2
1511885873642124,-3,-2,1,-5,1,-15,-5,-3
1511885873663153,-1,0,1,2,-4,9,10,2
1511885873663153,1,-1,-3,2,8,8,-12,-1
1511885873664157,-2,-1,1,-3,-5,-3,-1,-1
1511885873664157,0,0,1,-2,-6,-6,-4,0
1511885873677380,-1,-2,-8,-7,6,-2,-4,-1
1511885873677380,0,1,1,10,-4,-11,0,0
1511885873684208,0,0,5,-5,-5,-7,0,-1
1511885873684208,-2,-1,0,-1,-2,0,1,-1
1511885873700251,-2,-1,-5,-7,0,7,-4,0
1511885873700251,-2,-1,-3,1,-1,0,2,-1
1511885873702258,-1,-2,-2,-2,-2,-2,-1,1
1511885873702258,-1,0,3,-1,1,2,-1,-1
1511885873723441,0,1,-1,0,-2,-4,0,1
1511885873723441,0,-1,-2,-3,-2,3,4,0
1511885873724438,-1,-2,-1,0,-5,-9,1,0
1511885873724438,-2,-2,-3,-6,2,4,-9,-1
1511885873737653,0,-1,2,-1,-3,-3,-1,-2
1511885873737653,0,0,-1,4,1,-3,-1,-2
1511885873744636,1,0,4,2,-2,-1,-1,1
1511885873744636,0,-1,-2,-4,-6,-6,1,0
1511885873760778,-4,-3,-3,-3,0,2,1,0
1511885873760778,0,0,0,-4,21,-4,-2,-1
1511885873761712,-1,-1,0,7,-32,19,1,0
1511885873761712,-1,0,-1,1,-11,0,0,0
1511885873782741,-1,0,2,-3,2,-4,0,-1
1511885873782741,0,0,-1,-8,-9,-6,-2,-2
1511885873784746,-3,-1,-3,-4,16,-2,-2,-1
1511885873784746,-1,-3,-2,3,1,-2,1,-1
1511885873796776,0,-2,-2,-1,-2,-8,-4,-2
1511885873796776,0,0,2,3,-35,-5,5,0
1511885873803912,-1,-1,-1,-1,72,-6,-25,-4
1511885873803912,1,0,0,1,-1,13,22,0
1511885873820843,1,-2,-3,-1,-2,-7,3,-2
1511885873820843,2,0,4,8,9,5,6,0
1511885873821841,2,0,-2,-4,-17,-7,1,0
1511885873821841,0,1,-1,-3,12,-8,-7,-1
1511885873843098,0,0,0,7,-15,-1,0,-1
1511885873843098,-2,-4,-3,-5,-10,-7,-2,0
1511885873844914,-2,0,-4,-6,-8,15,4,0
1511885873844914,-2,-1,1,-1,3,-9,-1,-1
1511885873857092,-1,-2,0,9,7,-4,-3,-2
1511885873857092,-2,0,-2,-2,5,-9,-4,0
1511885873863954,0,-3,-3,-2,-19,-31,-3,-2
1511885873863954,-1,-1,-2,-5,0,7,-2,-1
1511885873880170,0,1,2,5,-5,9,2,2
1511885873880170,-3,-3,-5,-5,6,0,-4,-1
1511885873882002,-1,0,3,-12,-2,4,3,0
1511885873882002,0,0,3,27,2,-1,-6,1
1511885873903060,-1,-3,-2,-3,-3,4,4,0
1511885873903060,0,1,0,6,8,-1,-6,1
1511885873904060,-2,-2,-5,-8,-12,7,3,-1
1511885873904060,0,-1,-1,-9,-9,-5,-6,-1
1511885873917095,-1,-2,3,1,14,11,-7,-2
1511885873917095,0,-2,-3,-4,7,-2,1,-2
1511885873924116,-2,-2,-1,2,-30,-6,-1,0
1511885873924116,0,2,-1,-3,-8,5,0,0
1511885873940247,-1,1,-2,2,-1,2,4,0
1511885873940247,-1,-1,0,-5,-6,-24,-4,-2
1511885873942164,0,0,1,7,6,1,-5,-1
1511885873942164,0,0,0,0,16,-6,4,0
1511885873963217,-2,0,-4,-5,-17,-2,-2,-1
1511885873963217,0,0,-2,0,-5,1,6,1
1511885873964220,-1,-2,0,3,23,1,-9,-2
1511885873964220,-3,-2,-5,-17,-4,-2,-1,0
1511885873977372,-1,-1,1,6,4,-9,-5,0
1511885873977372,-1,1,3,14,8,14,0,1
1511885873984278,1,0,-2,-7,6,1,6,-1
1511885873984278,1,-1,1,-3,-17,6,3,1
1511885874000321,1,0,0,-8,10,-8,-6,-1
1511885874000321,0,1,-3,-1,-21,1,-6,-3
1511885874002325,0,-1,-1,-5,2,1,4,1
1511885874002325,0,-1,2,17,11,8,1,-1
1511885874022495,1,0,-2,-2,-7,1,6,0
1511885874022495,0,-4,0,1,5,-7,-4,0
1511885874024501,-2,-1,-3,-1,-5,-2,-3,-3
1511885874024501,0,-1,-1,-4,5,4,1,0
1511885874036533,-1,-3,0,0,-4,3,1,0
1511885874036533,-1,-1,0,-4,8,15,3,-2
1511885874045599,-2,-2,1,0,-2,-2,1,-2
1511885874045599,-4,-2,1,-3,-10,-8,-2,1
1511885874060595,2,1,0,1,4,3,1,0
1511885874060595,0,0,-1,-5,-2,0,2,3
1511885874061595,-1,0,0,2,-4,-8,-2,-1
1511885874061595,-2,0,-2,-3,-7,4,4,-2
1511885874082651,-1,2,-1,0,23,-5,-14,0
1511885874082651,1,2,0,-1,-10,2,6,-1
1511885874084660,-1,-1,-2,0,-8,0,1,1
1511885874084660,0,-3,0,-2,6,-5,-5,0
1511885874096873,-1,-1,0,-1,4,1,6,-1
1511885874096873,-1,-2,-1,0,-4,1,1,0
1511885874105711,1,0,-1,3,2,-1,0,-1
1511885874105711,1,2,0,-2,-1,-5,-5,-3
1511885874120873,0,-1,-1,-2,-9,3,3,-1
1511885874120873,-2,-2,-1,-1,2,-20,-25,-1
1511885874121847,-2,-1,-2,-2,-2,18,30,1
1511885874121847,1,-1,1,0,5,2,0,1
1511885874142931,-4,-2,-2,-4,-6,-5,-4,-3
1511885874142931,6,3,3,8,4,-6,4,0
1511885874144910,0,0,0,-7,-7,-9,-5,1
1511885874144910,-1,-1,-4,3,-2,-5,-3,-1
1511885874157012,-3,-2,-2,-4,-4,-6,1,0
1511885874157012,-2,0,-2,-7,-1,-2,-1,0
1511885874164963,0,-3,2,2,-2,-5,-5,-1
1511885874164963,-1,0,-2,-3,4,7,11,-2
1511885874180007,0,-1,0,0,-6,-1,-13,2
1511885874180007,-2,-2,-2,-3,9,6,8,0
1511885874182009,0,1,-2,4,-11,-6,-8,1
1511885874182009,-1,0,0,-3,0,5,5,-2
1511885874203154,0,-2,1,1,4,1,5,-1
1511885874203154,-3,0,2,-2,-4,-5,2,-1
1511885874204178,0,-2,-1,0,5,3,-3,-1
1511885874204178,-2,-1,-1,0,-2,-8,-9,-2
1511885874216103,-1,-1,-1,-1,-7,3,3,-1
1511885874216103,0,-1,-2,-2,0,8,2,0
1511885874225123,-1,0,-3,-6,-3,-14,-4,-1
1511885874225123,2,4,6,13,4,19,-1,1
1511885874240343,1,-2,1,0,-1,-11,-3,0
1511885874240343,-3,-2,-3,0,-2,2,-2,-5
1511885874242170,0,1,-1,-4,2,-1,-4,-2
1511885874242170,-1,-2,-1,-12,-8,-11,0,0
1511885874263225,-1,1,-4,0,1,4,-16,0
1511885874263225,-1,-1,-2,-1,5,0,0,1
1511885874264228,1,0,11,10,0,13,9,1
1511885874264228,-1,-6,-9,-1,2,-9,-5,-1
1511885874276435,1,4,4,-5,-6,-5,5,1
1511885874276435,-2,-9,-21,-1,-1,-2,-1,-1
1511885874285284,-1,1,13,2,1,7,-4,-2
1511885874285284,0,-3,-15,0,16,-15,0,-1
1511885874300371,-4,1,5,-2,-15,0,1,-1
1511885874300371,0,2,3,-6,-5,0,1,-1
1511885874302330,-2,-5,-7,-1,-55,-17,-2,0
1511885874302330,0,0,6,-9,65,11,-4,-1
1511885874322385,-1,-2,-7,5,38,13,4,-2
1511885874322385,-2,2,7,1,2,-10,-2,0
1511885874324387,0,-1,5,6,18,4,1,0
1511885874324387,-1,0,-3,-3,-42,-15,-2,-1
1511885874336422,0,-2,-5,-2,-13,-4,-3,-1
1511885874336422,-1,2,0,1,1,2,3,-1
1511885874345449,-1,0,-4,-2,17,2,-10,-2
1511885874345449,-1,-1,0,-1,-22,3,0,1
1511885874360526,-1,-2,-1,0,1,-10,3,-1
1511885874360526,3,-1,4,-1,26,0,-5,-1
1511885874362495,-4,0,-12,-3,-37,-18,2,-1
1511885874362495,-2,-2,-1,2,-13,-1,6,0
1511885874381544,0,0,4,-4,-89,28,1,-2
1511885874381544,-2,-1,-7,1,42,1,2,0
1511885874390564,0,-1,1,-4,-3,-21,-4,-2
1511885874390564,0,1,-1,2,3,17,2,-1
1511885874405606,-1,-1,4,5,5,-7,-2,-1
1511885874405606,0,-1,-1,-6,-31,-7,0,-3
1511885874407610,0,-1,-3,-1,5,4,-2,-1
1511885874407610,-2,-2,4,-6,-24,-12,-8,-3
1511885874427748,1,1,1,7,26,3,10,2
1511885874427748,-1,0,-2,-4,-9,5,-18,-2
1511885874427748,-3,-2,-1,6,18,-6,14,-3
1511885874427748,1,1,2,-2,4,-15,-19,1
1511885874449723,-1,-2,0,-2,3,15,0,-1
1511885874449723,-5,1,2,0,-34,-2,-3,0
1511885874450727,8,1,-1,-2,-4,7,15,1
1511885874450727,0,-1,-2,-2,9,-9,-4,-1
1511885874464761,-1,-2,-5,-1,19,7,10,0
1511885874464761,0,-2,2,-1,10,3,-1,-2
1511885874465764,-1,1,-6,-2,19,13,-3,-1
1511885874465764,-2,0,9,3,-13,-23,-5,-2
1511885874487823,1,-1,-2,1,32,4,-1,0
1511885874487823,0,-1,2,3,-18,12,8,0
1511885874487823,-1,-2,-1,-1,7,-5,-13,0
1511885874487823,-1,0,-5,-5,7,4,2,-1
1511885874509883,-2,-1,-2,-1,-9,-14,0,-1
1511885874509883,0,0,4,1,-4,-5,-1,-1
1511885874510884,-1,-2,-1,-2,33,5,1,0
1511885874510884,-2,-1,0,-3,-37,-3,12,-1
1511885874524939,-1,1,-1,2,-20,8,-10,2
1511885874524939,0,-3,-1,0,3,-7,6,-2
1511885874524939,-1,0,0,-1,-32,-2,-5,0
1511885874524939,0,2,6,7,63,6,7,-1
1511885874547165,0,-1,-9,-3,-29,-7,-1,-2
1511885874547165,0,0,0,-3,23,-11,-4,-1
1511885874547982,-2,-3,-7,1,-15,6,0,-1
1511885874547982,0,-1,0,-1,11,8,-1,0
1511885874570170,-2,-2,-4,-6,-15,-20,-3,-4
1511885874570170,0,0,2,-1,-30,-1,-2,2
1511885874571046,-2,-1,3,-3,14,13,4,0
1511885874571046,-6,-2,-1,4,5,12,-12,-1
1511885874585081,1,-1,2,-2,36,4,-1,-2
1511885874585081,-1,0,-1,-2,17,-5,0,0
1511885874585081,-1,0,1,-3,-56,-18,1,-2
1511885874585081,-1,-4,-3,-3,-8,17,4,1
1511885874607479,-1,0,2,-1,-6,-11,-3,-1
1511885874607479,0,-1,-1,3,10,-3,-4,-1
1511885874608320,-3,1,-10,-8,-43,8,9,-1
1511885874608320,0,-1,3,9,67,8,-15,2
1511885874629346,-2,-1,-3,-10,-5,-14,-5,-2
1511885874629346,0,1,-1,-3,-28,5,8,1
1511885874630350,0,-2,1,3,19,-6,-5,0
1511885874630350,1,-1,-5,1,14,4,7,0
1511885874644580,1,0,0,-4,-21,-7,-1,0
1511885874644580,-2,-1,1,-2,2,1,-3,-1
1511885874645389,-1,0,-1,0,11,-4,-5,-1
1511885874645389,1,0,-3,-4,-38,-4,2,0
1511885874667448,0,-1,1,3,6,-8,1,1
1511885874667448,4,0,-1,1,7,13,2,1
1511885874667448,7,0,3,0,9,-4,-4,-1
1511885874667448,-9,-1,-1,-2,-14,-10,2,0
1511885874689509,16,0,-3,1,1,-3,-1,1
1511885874689509,-24,-2,1,-1,-27,-4,1,-4
1511885874690509,-8,-1,2,1,29,5,-4,0
1511885874690509,6,-1,-1,1,-14,7,4,1
1511885874704546,-8,-1,4,-2,13,-1,-2,-4
1511885874704546,11,-3,-16,-6,-2,9,-3,0
1511885874705576,6,2,7,16,-14,-13,-3,0
1511885874705576,-3,1,-3,-11,1,-5,0,-2
1511885874726605,5,-1,-3,13,60,13,0,2
1511885874726605,5,1,4,-4,-2,-7,-1,1
1511885874727619,-4,1,22,0,6,8,2,3
1511885874727619,0,-10,-37,-10,-19,-5,3,-5
1511885874749666,-6,2,2,5,-17,6,-7,-1
1511885874749666,-2,0,-2,8,53,4,2,-2
1511885874750669,-2,0,2,-1,4,0,-4,0
1511885874750669,3,5,21,-3,-33,-7,0,3
1511885874764706,-1,-1,1,-3,-12,-6,3,0
1511885874764706,0,0,-4,-2,-4,2,2,-2
1511885874765709,-6,-1,-1,1,-49,-5,-4,-3
1511885874765709,4,2,6,6,26,14,3,4
1511885874786764,-3,-4,-17,-12,-10,-1,-1,-1
1511885874786764,4,3,11,3,-11,-9,-6,0
1511885874787768,-3,-2,-8,-3,21,-8,0,-2
1511885874787768,-3,-2,-16,3,-8,-2,0,-3
1511885874809945,-3,2,30,-8,0,-7,-1,-3
1511885874809945,3,2,-16,4,15,9,1,4
1511885874810947,-2,-7,-7,-3,-47,-24,-3,-4
1511885874810947,-1,0,3,8,50,13,-1,-2
1511885874824866,-1,-2,1,-9,-28,-9,-1,0
1511885874824866,-1,2,8,-9,-22,-10,-1,-1
1511885874825873,3,4,11,8,8,21,3,1
1511885874825873,-1,2,3,3,-11,-8,-4,-1
1511885874847107,-2,-6,-14,-2,-1,8,-1,-3
1511885874847107,-9,-11,1,-2,-9,-9,-3,-5
1511885874847928,-2,-1,-13,-10,24,-3,2,0
1511885874847928,-1,2,18,-5,-19,2,-1,-3
1511885874869990,2,3,-4,1,46,0,-2,3
1511885874869990,0,-2,-8,6,-63,-9,-3,1
1511885874871005,2,-6,-9,-3,24,3,0,-2
1511885874871005,1,3,0,0,-12,-9,1,0
1511885874885124,-1,2,8,3,-3,3,0,-1
1511885874885124,1,-3,10,1,38,15,1,0
1511885874886060,-1,0,1,1,17,15,-3,0
1511885874886060,0,-2,-9,-9,-49,-9,1,-1
1511885874907540,-4,-4,13,11,74,10,2,0
1511885874907540,-7,3,-14,0,-8,-3,3,-1
1511885874908394,10,0,-5,-5,-10,-4,-2,1
1511885874908394,-3,0,6,9,-5,-6,-1,-1
1511885874929473,-1,-3,-7,-3,-26,-4,3,0
1511885874929473,0,1,1,-3,5,-1,-3,-3
1511885874930423,-3,0,-2,-2,24,-2,-1,0
1511885874930423,1,-1,-7,-4,-15,-6,-5,-1
1511885874944459,0,-2,-3,-2,-7,-3,-1,-1
1511885874944459,3,-1,2,-1,-12,7,2,0
1511885874945461,-1,2,1,-2,1,-1,-1,1
1511885874945461,-2,-4,6,-10,14,0,-3,-1
1511885874967519,-1,-2,-23,5,-16,1,2,-2
1511885874967519,0,-1,0,-8,-10,-10,-2,-2
1511885874967519,1,-3,-21,3,24,12,0,0
1511885874967519,1,1,14,7,27,8,1,0
1511885874989701,-3,3,-1,-2,-13,-10,-2,1
1511885874989701,1,-2,5,-2,-10,3,0,-1
1511885874990583,1,1,12,-1,-20,-8,-1,-2
1511885874990583,1,-1,0,3,-7,1,-1,0
1511885875004621,-1,-2,-3,2,-6,0,-1,-2
1511885875004621,-2,1,-7,-4,17,2,-1,-1
1511885875005621,-2,-5,-3,-5,-14,10,3,-2
1511885875005621,-1,-3,-4,-2,5,-4,0,-2
1511885875026696,-2,0,-5,2,-10,1,-5,-1
1511885875026696,-2,-2,3,-9,6,-12,-4,0
1511885875027695,1,5,11,15,11,14,1,0
1511885875027695,1,2,7,-1,-14,3,2,1
1511885875049757,2,6,18,1,1,2,0,2
1511885875049757,-4,-13,-56,-12,8,-3,0,-1
1511885875056776,-2,1,10,-14,-10,-7,-3,-2
1511885875056776,-4,-9,-24,2,6,-9,-1,-1
1511885875064795,0,2,40,5,-12,2,1,-1
1511885875064795,2,2,-8,-3,15,-1,0,1
1511885875065800,0,3,9,1,-7,-5,0,-1
1511885875065800,1,-2,2,6,0,-1,0,-2
1511885875087023,-8,-8,-37,-13,-26,-11,-4,-5
1511885875087023,1,-2,29,12,29,-2,2,1
1511885875088022,1,5,-13,-5,20,7,4,1
1511885875088022,1,1,22,-3,-14,2,-3,0
1511885875110202,1,4,1,-1,6,-1,-2,0
1511885875110202,-2,3,-2,-4,-16,-13,-3,-1
1511885875117099,-2,-8,-16,-4,1,11,-5,-2
1511885875117099,-1,3,-5,0,-6,5,2,2
1511885875124238,0,-3,-8,-2,10,0,0,-1
1511885875124238,0,3,21,9,-6,0,1,1
1511885875125120,0,0,4,1,5,-17,-2,-1
1511885875125120,-2,2,-2,-11,-8,9,-1,-2
1511885875147225,-4,-10,-25,-2,-3,-3,0,-4
1511885875147225,3,2,15,1,-62,6,-2,-1
1511885875148189,-2,-10,-45,-2,8,-4,-4,0
1511885875148189,-1,-4,1,5,37,-16,0,0
1511885875170244,2,8,28,6,3,1,0,2
1511885875170244,-1,0,9,6,27,11,0,-1
1511885875177436,-3,-3,-6,-10,-2,-3,-2,-2
1511885875177436,-2,2,-5,-5,-43,-5,-1,-1
1511885875184303,0,0,4,2,-15,8,-1,-1
1511885875184303,0,-1,-13,-2,24,7,-1,-2
1511885875185281,-1,3,26,0,17,-2,-1,0
1511885875185281,-1,2,-8,-4,19,1,-4,0
1511885875207450,-3,-9,-19,1,-1,-8,0,-1
1511885875207450,0,-2,-2,-7,-8,-1,-1,0
1511885875207450,-1,3,10,14,6,3,1,1
1511885875207450,0,3,12,-4,-47,-11,-1,-1
1511885875229510,3,15,35,-14,-33,8,2,2
1511885875229510,-6,-25,-51,-3,80,-12,-2,-2
1511885875230510,-2,-2,0,4,18,8,1,0
1511885875230510,-4,-12,-32,2,-12,3,-1,-4
1511885875244735,3,6,25,4,4,-6,2,0
1511885875244735,3,7,16,3,2,-1,0,3
1511885875245552,1,3,5,-1,-30,2,1,0
1511885875245552,0,1,17,6,22,8,-4,0
1511885875266644,-3,-7,-20,-1,-3,-6,-3,-3
1511885875266644,-3,-2,-19,-3,-55,-16,0,-3
1511885875267609,0,-2,2,-5,-2,-5,-5,-1
1511885875267609,5,5,-10,-3,-21,9,-1,2
1511885875289787,-4,-6,-23,-10,11,-9,-1,-1
1511885875289787,1,7,21,19,9,10,2,-1
1511885875290670,-2,-1,8,-5,-15,-7,-1,-1
1511885875290670,0,-3,-3,-2,-10,-10,0,-1
1511885875304818,0,0,15,0,28,3,-1,1
1511885875304818,-1,2,11,-4,-11,2,0,-1
1511885875305710,-2,-3,-34,1,-6,-3,-1,-2
1511885875305710,1,2,15,0,6,-7,-2,0
1511885875326888,1,-1,-3,-2,4,2,0,2
1511885875326888,3,9,27,6,-32,4,0,0
1511885875327887,0,-1,8,-2,-10,-1,1,0
1511885875327887,-5,-13,-36,7,34,-6,-2,-3
1511885875349949,-2,-6,-21,-5,4,-5,0,-2
1511885875349949,1,2,4,-4,-14,-1,-1,0
1511885875350949,1,2,18,4,24,-2,-2,0
1511885875350949,-3,0,3,-3,-6,-1,0,-2
1511885875364986,-1,-1,-8,-3,-43,-6,-2,0
1511885875364986,-1,-1,-4,-4,10,1,-2,-1
1511885875364986,-1,-3,2,5,-3,5,1,-1
1511885875364986,-2,0,1,-9,8,1,0,0
1511885875387047,1,-2,1,8,12,5,-3,-2
1511885875387047,0,0,-4,-4,-6,3,1,0
1511885875388047,-1,0,-7,-6,10,-3,-1,1
1511885875388047,0,-1,10,0,-4,1,0,-1
1511885875410263,0,0,2,9,2,-3,-6,-3
1511885875410263,0,-3,-3,7,10,3,-2,-3
1511885875411122,-2,0,-9,-12,-12,-13,-2,-1
1511885875411122,1,6,18,5,2,2,-1,-1
1511885875425146,-3,-3,-6,3,1,7,1,0
1511885875425146,-3,0,-2,-5,2,-5,-1,0
1511885875425146,-2,-3,-14,0,-1,2,0,-1
1511885875425146,-1,-3,-8,-4,0,4,1,1
1511885875447205,1,3,5,-2,9,-1,-1,-1
1511885875447205,0,4,21,1,-28,-2,-3,-2
1511885875448214,1,0,18,0,69,2,-1,-1
1511885875448214,-1,-12,-60,-14,21,-2,-3,-2
1511885875469305,-1,-4,2,-1,-23,-8,-2,-2
1511885875469305,-1,-1,-2,-3,-45,-3,0,0
1511885875470284,1,2,10,2,-14,3,0,0
1511885875470284,0,4,17,4,1,-5,-1,0
1511885875484303,0,1,-6,1,21,14,3,2
1511885875484303,-1,-5,-10,-12,5,-4,-1,-1
1511885875492327,-1,-2,3,11,-16,2,5,0
1511885875492327,-1,0,3,3,-9,1,-8,-1
1511885875507492,-1,0,-6,-1,-3,-7,0,-2
1511885875507492,0,1,3,0,16,14,-1,-2
1511885875508370,-1,-1,-7,-4,-17,-3,4,0
1511885875508370,0,-1,2,0,0,3,3,-1
1511885875529426,1,1,3,3,11,4,-2,0
1511885875529426,-1,-1,-5,2,5,0,6,-2
1511885875530426,-1,0,-5,-10,76,3,-4,1
1511885875530426,0,3,14,24,-9,-8,-16,-1
1511885875552488,-1,-1,3,-4,-1,16,19,0
1511885875552488,-1,-4,-6,3,14,-7,-32,-5
1511885875553488,-1,-2,-7,-5,-43,-5,57,1
1511885875553488,-1,0,6,-9,12,-6,3,0
1511885875567651,0,0,6,4,11,-1,-10,1
1511885875567651,1,-1,-12,-3,-2,-1,14,2
1511885875567651,-1,-1,0,0,-13,-12,-18,-2
1511885875567651,0,0,2,-2,10,14,0,-1
1511885875589714,-2,-5,-5,-9,-45,-38,7,-3
1511885875589714,2,1,4,-1,11,4,-12,1
1511885875590716,-1,-1,-9,-2,-19,-2,-13,-4
1511885875590716,-1,3,4,3,-1,0,7,1
1511885875603811,-1,0,-3,3,9,5,-4,-1
1511885875603811,-1,0,0,-2,5,-8,8,0
1511885875611882,0,2,-2,-5,-10,-1,-20,4
1511885875611882,0,1,3,0,-8,4,23,-1
1511885875627814,0,1,0,1,10,5,-13,-1
1511885875627814,0,-1,-3,0,6,-3,1,0
1511885875627814,1,1,0,1,-22,-3,-6,-3
1511885875627814,-1,-2,-3,-6,-7,-5,1,-2
1511885875649897,2,-2,1,1,9,0,-21,0
1511885875649897,0,0,-1,0,3,-11,-39,-3
1511885875650984,-2,0,3,0,1,21,53,-1
1511885875650984,-2,-2,-2,-7,-16,-22,-5,-1
1511885875663905,-1,0,-4,-1,5,-3,8,0
1511885875663905,-1,-2,1,-1,-2,12,15,1
1511885875671926,1,-2,-1,1,4,-8,-20,0
1511885875671926,0,0,1,0,-15,-8,-6,-1
1511885875686967,1,0,-1,3,6,11,1,1
1511885875686967,0,1,-1,-5,6,-5,16,0
1511885875687971,-1,1,1,7,-11,-12,-7,1
1511885875687971,-1,-2,-3,0,10,4,-7,-1
1511885875718098,0,-1,1,-1,-5,-7,1,-3
1511885875718098,-2,0,0,0,-5,2,-1,0
1511885875719054,-3,-1,0,-4,3,3,-6,-1
1511885875719054,0,-2,-3,-6,5,-17,-15,-1
1511885875724204,2,0,1,2,11,34,-10,1
1511885875724204,-1,-2,0,-2,-5,-5,62,1
1511885875732167,0,-1,2,-2,-3,-8,-11,1
1511885875732167,-4,-2,-3,-3,12,14,13,1
1511885875747209,5,2,-1,-5,-14,0,-37,0
1511885875747209,-5,-1,-4,-8,-10,0,29,3
1511885875748209,5,1,0,8,-4,-9,-22,-1
1511885875748209,3,1,5,5,0,-4,-24,-3
1511885875770270,-9,-2,-1,-2,8,9,33,1
1511885875770270,-1,-2,-1,2,-1,4,-12,-2
1511885875770270,-5,-1,-3,-7,-6,14,14,-2
1511885875770270,2,1,0,0,0,6,-10,0
1511885875784308,-1,1,-3,-3,-28,-44,0,-6
1511885875784308,-1,0,-1,0,2,-5,-49,-2
1511885875799348,-4,-2,0,-2,4,14,-8,-1
1511885875799348,0,0,0,-2,3,-1,0,1
1511885875807545,4,-1,-3,-4,5,-11,23,-1
1511885875807545,-3,0,0,4,34,4,11,-2
1511885875808370,2,-1,0,0,-9,-3,-16,-1
1511885875808370,-1,1,0,1,13,7,-12,3
1511885875829428,2,2,0,-1,21,10,3,1
1511885875829428,-3,-1,-1,2,5,-2,-13,-1
1511885875830428,3,0,1,0,-7,6,6,2
1511885875830428,-2,-2,-1,-3,-10,-18,15,-1
1511885875844520,-9,0,0,0,5,2,-46,-5
1511885875844520,3,-2,-1,0,-26,-6,-21,-3
1511885875852514,-2,0,-1,-2,-1,-19,-6,-2
1511885875852514,5,0,0,-2,-4,16,28,-1
1511885875867628,-8,-1,0,-1,-2,8,-4,2
1511885875867628,1,1,2,0,-4,-2,-24,1
1511885875867628,-1,0,-3,-1,-5,-5,48,0
1511885875867628,-6,0,1,1,4,-7,-10,0
1511885875889694,1,-1,1,-2,-4,9,0,-1
1511885875889694,3,-1,-1,2,4,8,10,1
1511885875890588,-2,-2,0,3,8,6,-3,-2
1511885875890588,2,0,-1,0,2,9,14,1
1511885875912649,5,0,-1,1,9,12,0,1
1511885875912649,0,-2,1,-3,-5,-1,19,1
1511885875913649,-3,-2,0,-4,-3,-5,-15,-3
1511885875913649,6,-1,0,2,5,1,-19,-1
1511885875926865,0,0,-1,-2,-17,1,41,6
1511885875926865,-2,2,0,1,-2,-12,8,-3
1511885875927687,3,0,-2,-1,-4,-8,-58,0
1511885875927687,-10,-2,-1,-1,18,1,-11,-4
1511885875949745,2,-5,-3,-5,-11,-17,-6,-4
1511885875949745,9,-1,-1,-1,2,-2,-8,-1
1511885875950748,-9,0,1,2,-3,7,13,0
1511885875950748,-1,1,-1,-2,-3,-6,-5,0
1511885875972905,-3,-3,-2,-2,-2,-18,-76,-5
1511885875972905,0,-1,0,0,-1,19,43,-6
1511885875973809,2,0,-1,2,10,0,-26,13
1511885875973809,-2,1,-3,-5,-12,-6,-4,5
1511885875986846,-2,-5,-4,-6,-15,-22,11,-10
1511885875986846,-2,1,-3,1,-19,-4,-53,1
1511885875987846,20,2,0,-1,6,12,45,-4
1511885875987846,-4,1,-1,-1,-2,-5,-8,-17
1511885876010088,3,-1,0,-1,-11,-5,25,14
1511885876010088,18,0,0,0,8,1,-26,7
1511885876010982,-11,-1,0,-3,-3,-1,39,9
1511885876010982,-11,-2,1,2,-7,-9,19,-22
1511885876033004,11,0,-2,-2,21,18,-1,-14
1511885876033004,-6,2,2,-2,-24,-22,-9,-1
1511885876034133,5,-1,1,4,36,19,-47,-1
1511885876034133,19,1,2,2,-17,13,78,17
1511885876047115,-15,1,1,1,19,-14,8,17
1511885876047115,-3,-2,-1,-3,5,18,24,-9
1511885876048006,-10,-4,-3,-4,1,-13,29,1
1511885876048006,-1,0,-2,0,2,0,-18,-8
1511885876070073,13,-1,0,0,-5,1,-16,14
1511885876070073,3,2,-1,0,11,-7,33,5
1511885876070073,-18,-4,-1,-2,-14,-15,-15,-8
1511885876070073,20,-1,-2,-4,9,13,-9,4
1511885876093131,-20,-6,-8,2,-42,-20,11,9
1511885876093131,-11,-3,-3,-6,5,-10,-28,-24
1511885876094130,-28,0,0,-7,-3,-1,-3,0
1511885876094130,-2,-1,-1,-3,-18,-16,-16,19
1511885876107201,-8,0,0,-6,-41,8,-20,-16
1511885876107201,31,8,0,13,88,19,9,14
1511885876108187,-9,-15,-22,4,22,21,4,-20
1511885876108187,46,7,11,-5,4,-19,8,16
1511885876130261,-11,-2,-12,1,14,-9,-2,1
1511885876130261,-9,0,6,1,-35,9,10,-1
1511885876130261,16,6,20,-8,-14,-9,-6,3
1511885876130261,-20,-2,-28,4,28,27,-5,3
1511885876153286,27,2,6,10,-8,-16,11,-6
1511885876153286,-4,5,-9,-20,-15,-7,-13,-3
1511885876153286,9,-5,-24,-3,6,-3,1,0
1511885876153286,-25,-7,20,16,-46,-14,-13,-9
1511885876167326,-2,4,10,-3,-7,3,6,-6
1511885876167326,-17,-7,-6,0,25,-6,-3,5
1511885876168327,2,11,26,0,-34,0,0,4
1511885876168327,-6,-2,-24,3,5,7,-8,-8
1511885876189503,-3,-4,-5,2,40,8,6,0
1511885876189503,-1,-3,3,-5,-17,2,0,2
1511885876190390,23,1,-3,-2,-16,-3,-5,-6
1511885876190390,-3,2,9,-6,9,2,-2,-4
1511885876212615,-1,2,4,4,16,23,6,2
1511885876212615,7,-3,-8,0,2,-6,-2,-5
1511885876213448,8,0,-3,-6,-34,-13,-4,1
1511885876213448,-3,-5,-12,-9,-20,-2,-2,1
1511885876227487,1,2,6,2,12,6,3,-1
1511885876227487,-5,-1,2,7,-4,-2,-2,-1
1511885876228516,4,5,10,10,22,6,-2,-1
1511885876228516,-1,0,4,2,12,4,-3,3
1511885876249561,3,-3,-16,-13,-8,8,6,-2
1511885876249561,-1,1,0,-7,-11,-16,-6,1
1511885876250546,-6,-5,1,11,12,23,-1,-2
1511885876250546,-2,-1,-9,-10,-7,-13,3,-1
1511885876272717,-4,4,12,1,10,-2,-5,-5
1511885876272717,-6,-1,9,7,-12,-2,0,2
1511885876273606,-7,-3,-11,-7,26,-16,0,-4
1511885876273606,-4,1,2,2,-42,15,5,-1
1511885876286644,-2,-5,-15,-2,-6,-8,3,-2
1511885876286644,-4,-2,3,-1,6,4,2,4
1511885876287643,0,4,12,2,-6,4,-1,0
1511885876287643,-2,-5,-11,-4,12,-3,-6,-3
1511885876317742,0,0,-2,-1,10,-3,-4,-1
1511885876317742,-1,-3,-4,-3,-32,2,0,-3
1511885876318726,-2,-1,4,0,8,-2,0,0
1511885876318726,-11,0,3,-2,-10,-2,1,-1
1511885876332764,-2,0,3,-2,17,8,0,-1
1511885876332764,-2,0,-4,4,-6,-4,-5,-3
1511885876333767,2,-2,1,-1,-6,-1,-2,0
1511885876333767,-7,-2,-1,-3,4,-1,-4,-3
1511885876346971,2,0,-1,-2,-11,-2,3,0
1511885876346971,1,-1,4,1,4,-3,0,2
1511885876347805,3,1,-6,-1,-9,-5,0,0
1511885876347805,2,2,4,-1,10,1,-3,0
1511885876369862,16,-1,3,0,2,-11,-3,1
1511885876369862,-37,-2,-1,-1,5,7,2,-4
1511885876370866,-5,1,-7,0,-4,-1,-4,0
1511885876370866,1,-2,2,-1,15,4,-2,-3
1511885876392924,1,2,16,0,4,11,-1,-1
1511885876392924,11,0,-19,1,-1,-4,-1,0
1511885876393926,-3,-3,3,-6,-16,-18,-2,-3
1511885876393926,-6,-3,14,7,10,7,-2,-2
1511885876406963,-1,-2,-10,-3,-14,-1,2,1
1511885876406963,3,-1,10,3,-1,2,0,-2
1511885876407964,-4,1,-4,-1,1,-4,-1,-1
1511885876407964,6,4,4,-2,4,0,-3,0
1511885876430064,-6,-1,-1,0,-4,2,0,-1
1511885876430064,3,-1,-2,-5,0,-1,-1,-1
1511885876430064,1,-2,-5,-3,-4,-5,-2,0
1511885876430064,2,1,6,-1,-1,-6,-3,0
1511885876453086,-4,-3,-9,1,0,1,0,-2
1511885876453086,0,0,-1,-1,1,3,-1,1
1511885876454248,1,-2,-6,-2,2,-4,1,0
1511885876454248,0,0,-1,1,6,-7,1,-1
1511885876467224,-5,3,3,0,-8,8,-1,-1
1511885876467224,6,1,13,-4,1,0,-1,-1
1511885876468166,0,0,-11,8,27,24,3,1
1511885876468166,-3,-2,0,-3,11,-9,-3,-1
1511885876490188,-2,-1,2,5,-5,-6,-1,1
1511885876490188,1,-8,-26,5,3,-4,2,-1
1511885876490188,-2,0,9,-4,-5,-1,-3,-1
1511885876490188,0,4,32,1,-4,-4,-1,0
1511885876513267,0,2,-9,1,4,-2,1,0
1511885876513267,-2,-3,0,-6,-5,5,2,-1
1511885876513267,-1,0,-6,-9,-8,-8,-3,-1
1511885876513267,-2,-5,-15,-3,2,2,0,-2
1511885876526303,2,-2,-12,19,-7,-8,-5,-2
1511885876526303,-1,-4,-7,-1,10,-3,-1,-1
1511885876534303,2,3,1,-21,-11,-5,1,0
1511885876534303,-3,-1,3,-4,-9,0,0,0
1511885876549342,-2,-1,16,-7,-2,4,0,-3
1511885876549342,-2,-2,-11,2,3,0,-3,-1
1511885876550342,-1,-2,1,10,-3,-5,-1,-2
1511885876550342,1,2,-3,3,1,1,-4,-1
1511885876573405,0,-2,-5,-7,5,0,0,-2
1511885876573405,1,0,6,0,-3,-4,0,0
1511885876573405,-1,0,3,1,-3,0,1,0
1511885876573405,1,1,-4,0,-2,1,0,0
1511885876586474,-3,-3,-3,-4,2,-1,1,-1
1511885876586474,0,2,16,-2,-3,-5,-1,0
1511885876594496,-1,-2,-16,2,-11,2,-3,-1
1511885876594496,0,-2,-7,-2,0,1,-2,-1
1511885876609692,-3,-1,4,-2,1,2,1,0
1511885876609692,-1,1,3,-2,-5,8,1,0
1511885876610503,-1,-2,1,2,-1,-12,-2,-1
1511885876610503,0,-1,-4,-2,-1,11,-2,0
1511885876632561,-2,0,1,-5,0,-7,0,0
1511885876632561,-2,0,2,0,-2,0,0,-2
1511885876632561,1,-1,1,1,5,-2,1,-2
1511885876632561,1,-3,-5,-2,0,-3,-1,-1
1511885876646598,0,1,5,-3,0,2,-1,-2
1511885876646598,-1,1,-2,-1,-1,-8,-1,-2
1511885876654623,-2,-2,-2,1,4,9,0,-2
1511885876654623,0,1,-3,0,0,-1,2,-1
1511885876669663,0,-1,-1,-2,-1,-4,0,-1
1511885876669663,0,0,-1,-1,0,-2,-1,-1
1511885876670666,-1,-1,3,0,-2,-6,-1,1
1511885876670666,-2,-1,-1,0,-1,-2,1,0
1511885876691718,1,-1,-1,0,0,4,-1,-1
1511885876691718,1,1,1,2,-2,-3,-1,1
1511885876692720,-3,0,2,-1,1,2,-1,-1
1511885876692720,-3,-1,-5,-2,-1,-1,-1,-3
1511885876715012,-2,-2,0,-2,-2,-1,-1,1
1511885876715012,2,0,1,-7,-6,1,-1,0
1511885876715915,0,-1,-1,4,1,2,1,0
1511885876715915,0,-2,-3,-4,-3,1,-2,0
1511885876730131,-1,1,0,-11,-2,0,6,2
1511885876730131,1,-2,2,18,7,4,-10,-2
1511885876730131,-2,0,0,-10,-4,-2,0,2
1511885876730131,0,-1,-3,3,-1,-3,2,-1
1511885876752146,-1,-3,-3,-17,-15,-4,-23,-5
1511885876752146,-12,-3,-3,-51,-4,2,1,1
1511885876753149,12,0,4,47,18,0,-1,0
1511885876753149,-1,0,-3,-6,-2,1,-1,0
1511885876776234,-2,-2,-1,11,-2,3,1,-3
1511885876776234,3,0,-4,-23,-12,9,-4,0
1511885876777210,-3,-3,1,8,9,8,-7,-2
1511885876777210,-3,-2,0,-12,-2,0,-3,-1
1511885876789269,-1,-3,-3,4,4,4,17,2
1511885876789269,0,-1,-4,2,-6,-4,-21,-4
1511885876790245,-1,1,1,-4,0,-12,3,2
1511885876790245,2,1,2,18,-3,-15,-2,1
1511885876812329,-2,0,-1,-16,-3,-17,7,1
1511885876812329,-2,-2,0,11,0,-25,-6,0
1511885876813310,4,8,4,-3,15,-19,19,3
1511885876813310,2,-2,-4,-5,3,-32,13,0
1511885876835479,0,5,-1,7,16,10,-39,1
1511885876835479,13,1,-13,-28,-37,-36,22,-2
1511885876836367,-11,-10,1,12,9,102,-18,-5
1511885876836367,-1,3,6,15,21,-19,-16,-2
1511885876849405,4,11,1,-18,-17,-100,32,-1
1511885876849405,29,24,12,28,18,-118,50,9
1511885876850405,-15,24,-1,-31,-23,-128,53,9
1511885876850405,-34,9,4,18,13,-32,36,7
1511885876872662,-2,-5,-6,12,4,66,-1,2
1511885876872662,7,-18,-7,-3,3,122,-33,-2
1511885876873486,11,-30,-18,-7,-15,127,-55,-13
1511885876873486,-4,-22,-10,-10,-13,88,-51,-7
1511885876895526,-3,-12,-4,-5,-11,26,-23,-6
1511885876895526,-8,-8,-4,-1,-2,54,-8,-4
1511885876896528,-7,-6,-2,-2,-4,27,-16,-8
1511885876896528,24,-6,-9,-13,-18,98,-20,-12
1511885876909563,-31,-15,-3,-2,0,110,-18,-15
1511885876909563,-3,-8,0,15,7,116,-18,-9
1511885876910569,-5,-4,0,-6,-2,31,-12,-6
1511885876910569,5,3,-3,-23,-25,-65,1,-4
1511885876932624,16,10,12,22,23,-103,23,7
1511885876932624,-11,9,8,11,6,-126,22,4
1511885876932624,-3,10,2,-9,-8,-128,18,5
1511885876932624,8,11,6,1,6,-101,32,8
1511885876955767,4,8,7,8,10,-38,16,5
1511885876955767,-15,-1,1,6,4,-12,4,1
1511885876955767,8,0,-2,-5,-4,8,3,2
1511885876955767,-1,-2,-1,4,3,26,0,0
1511885876969812,-3,-4,-3,-2,-3,10,-6,-1
1511885876969812,0,-3,0,5,3,25,-2,-3
1511885876970763,6,-3,0,-1,-3,40,11,1
1511885876970763,-3,-4,-1,1,5,36,-7,-2
1511885876991818,-1,-6,-4,-2,-6,38,-9,-2
1511885876991818,-1,-4,-2,-4,-5,34,-7,-4
1511885876992822,-2,-3,-2,-7,-4,13,-9,-2
1511885876992822,-4,-2,2,1,-1,0,-3,-1
1511885877014997,3,1,1,-1,-4,-26,4,0
1511885877014997,-2,2,-2,0,1,-42,0,0
1511885877015996,-2,3,1,2,3,-31,2,1
1511885877015996,2,4,0,1,4,-32,7,4
1511885877030037,2,3,0,1,-2,-15,1,0
1511885877030037,-3,1,2,1,5,-24,3,2
1511885877030037,-1,1,1,-3,-2,-23,1,-1
1511885877030037,0,2,4,0,-2,-8,7,2
1511885877052092,1,0,-4,-2,-1,-6,3,1
1511885877052092,-4,-2,-12,-3,-2,-4,1,0
1511885877053095,2,1,-3,-2,0,0,1,2
1511885877053095,-1,-2,0,-4,0,6,-2,-1
1511885877075167,0,1,7,3,-1,2,1,1
1511885877075167,-2,0,0,-2,0,-3,2,0
1511885877076157,1,0,0,-6,-2,-13,-2,-1
1511885877076157,-1,-1,-8,4,0,-4,-1,0
1511885877090277,0,-1,1,-1,-1,-12,0,-2
1511885877090277,1,-1,4,4,0,-9,2,-1
1511885877090277,-2,-1,0,-1,-2,-7,0,0
1511885877090277,-3,-1,-3,-3,0,-5,1,1
1511885877112350,-2,-1,0,1,-1,-3,2,-1
1511885877112350,-2,-1,-1,0,0,14,-3,0
1511885877113255,-1,-4,-4,0,-2,37,-5,-3
1511885877113255,1,-4,-1,-3,-2,35,-7,-5
1511885877135316,1,-3,-4,-4,-2,25,-8,-3
1511885877135316,-1,-3,3,0,-2,6,-8,-2
1511885877136316,-3,-2,-4,-8,-2,11,-4,-1
1511885877136316,-2,-5,-11,-1,-3,15,-7,-1
1511885877149354,-1,-7,-4,0,0,0,-2,-3
1511885877149354,-2,-1,-14,-1,1,-4,2,0
1511885877150353,0,0,4,5,2,-17,0,-1
1511885877150353,3,3,13,0,-4,-15,-2,-1
1511885877172456,-5,-1,-2,-5,-2,9,-3,-2
1511885877172456,-2,-2,0,0,1,-3,0,-1
1511885877173416,1,1,12,4,2,3,1,-1
1511885877173416,-1,0,-13,-4,-1,-3,1,0
1511885877195476,2,5,11,-3,-3,-4,0,2
1511885877195476,1,-1,-18,10,2,0,0,0
1511885877196480,5,3,-9,-13,-2,-10,1,1
1511885877196480,-4,0,5,2,0,-5,0,-1
1511885877209550,-9,-11,-7,3,-2,-2,-1,-2
1511885877209550,-3,0,12,-4,-3,1,-1,-3
1511885877210521,2,5,5,5,0,-4,-3,-1
1511885877210521,12,7,9,2,-1,4,-1,2
1511885877232576,-4,1,-12,-4,2,4,0,2
1511885877232576,-5,-8,-15,-7,-3,-6,-1,-3
1511885877232576,-3,-21,-6,4,-1,0,-4,-2
1511885877232576,-8,0,11,-4,0,-2,-1,1
1511885877255637,1,-2,6,-4,-2,8,-1,0
1511885877255637,9,-2,-50,-6,1,3,5,1
1511885877256660,-11,-18,-1,-3,-2,-25,-5,-5
1511885877256660,-4,-6,-5,1,-1,-9,2,-4
1511885877269713,6,8,9,3,0,3,-9,1
1511885877269713,4,20,27,0,4,15,15,5
1511885877270707,3,13,9,8,1,11,4,4
1511885877270707,2,9,34,20,0,-8,-1,0
1511885877291754,-2,-7,-50,-28,-4,-3,-2,1
1511885877291754,0,-11,4,1,0,-3,-6,-4
1511885877292733,-8,-2,-8,-2,-1,18,2,-2
1511885877292733,-6,-20,0,2,-1,8,-2,-4
1511885877314794,8,31,16,1,-4,-2,-2,1
1511885877314794,-13,-42,-7,-2,-5,-11,-8,-7
1511885877315793,-13,2,28,-7,-3,-12,-4,-4
1511885877315793,3,-3,-40,-4,1,7,2,3
1511885877329950,5,-18,17,9,-2,-19,1,-1
1511885877329950,7,34,-4,-14,-1,-2,-6,5
1511885877330834,10,-14,-36,0,2,-8,20,4
1511885877330834,-13,0,22,-4,-3,-19,-3,-2
1511885877351892,0,5,5,12,2,9,5,0
1511885877351892,4,8,36,11,-1,-5,-2,1
1511885877352892,3,1,2,1,-1,19,-8,-1
1511885877352892,8,18,-19,-7,1,16,2,2
1511885877375072,-16,-52,-23,-2,-2,-7,3,-3
1511885877375072,-2,18,33,-2,-7,-3,-6,-5
1511885877375955,18,81,34,7,3,10,-5,-1
1511885877375955,-9,-47,-57,-15,1,-10,-9,-5
1511885877389995,-16,-21,-4,-12,-2,-15,-1,-7
1511885877389995,17,21,15,1,-3,5,-2,-2
1511885877389995,15,17,34,12,1,11,3,10
1511885877389995,12,35,21,6,-15,-9,11,7
1511885877420074,8,-3,-36,20,51,-16,7,0
1511885877420074,-38,-31,41,-11,-16,-21,7,-8
1511885877421073,-32,-111,-112,-25,-10,-44,-3,-9
1511885877421073,37,102,101,-8,-11,7,0,2
1511885877435114,5,-36,-31,14,12,-4,5,11
1511885877435114,12,31,43,2,4,4,2,-3
1511885877436113,-35,-89,-68,-3,-5,-6,-8,-6
1511885877436113,-13,-9,16,6,1,-3,1,-7
1511885877449151,30,111,-11,-28,-20,8,-4,4
1511885877449151,10,-33,-11,10,7,19,-1,16
1511885877457173,2,-7,-10,-9,-3,19,-7,2
1511885877457173,4,34,41,-15,-1,34,0,-4
1511885877472252,0,10,25,40,0,13,-3,-3
1511885877472252,21,33,-11,-3,6,5,-4,3
1511885877473246,-17,-30,9,3,-3,-9,4,-1
1511885877473246,-12,-66,-52,1,4,-22,-2,-7
1511885877495274,4,22,4,-12,-9,-5,-1,-2
1511885877495274,-7,-11,-31,-7,-1,-12,1,3
1511885877496297,14,4,15,13,4,-4,3,1
1511885877496297,-11,-12,-9,6,6,2,-5,1
1511885877509342,-22,-41,1,-14,-11,13,-2,-7
1511885877509342,-4,-2,-29,-3,-4,6,-8,-4
1511885877517339,9,26,31,-4,-1,8,-2,-4
1511885877517339,3,3,-3,10,8,26,0,6
1511885877532409,11,7,31,-3,-12,7,-5,5
1511885877532409,-28,-70,-32,7,1,-7,0,-7
1511885877533376,6,44,11,-7,-1,-13,2,-2
1511885877533376,-5,-13,-18,1,0,-13,9,2
1511885877555433,2,11,31,5,-5,-12,2,0
1511885877555433,3,0,-4,0,2,-15,1,-1
1511885877556437,-1,13,-2,-4,1,-16,3,-2
1511885877556437,-1,-10,-4,2,-1,-19,-2,0
1511885877568468,-3,2,4,-4,-5,-5,3,0
1511885877568468,2,7,-2,2,11,-6,2,-1
1511885877577494,2,4,-1,1,-17,-7,1,2
1511885877577494,1,-2,1,-3,4,14,-2,-1
1511885877592534,-5,-11,-2,-3,2,-6,0,-3
1511885877592534,-4,-9,-17,-3,1,7,1,-2
1511885877592534,4,17,27,7,4,9,0,2
1511885877592534,-5,-10,-23,-21,-5,-13,-10,-3
1511885877615594,-5,-9,3,17,1,1,1,-1
1511885877615594,3,6,5,1,-7,-4,-19,1
1511885877616594,4,13,5,1,2,3,15,0
1511885877616594,-2,-10,-10,1,1,-1,5,-2
1511885877628628,-5,-12,-10,-11,-3,3,-1,-1
1511885877628628,-2,6,8,-2,0,1,-5,-2
1511885877637649,0,5,3,3,4,-1,-8,1
1511885877637649,-4,-15,-16,-3,5,6,-3,-3
1511885877651689,6,0,9,0,-4,-10,-4,-2
1511885877651689,-9,2,-2,3,-6,7,5,-2
1511885877652688,2,3,-1,-1,22,4,17,0
1511885877652688,-3,-3,-2,3,-13,-5,-14,-3
1511885877674863,2,-3,-2,-3,1,1,1,-1
1511885877674863,3,4,1,1,0,-1,-1,0
1511885877675751,0,4,-2,0,-1,-4,-6,-1
1511885877675751,0,-4,0,0,3,6,21,3
1511885877697809,-4,-3,1,-1,-6,-8,3,-1
1511885877697809,0,-3,-7,-4,3,5,6,1
1511885877698812,4,2,4,0,-4,7,5,-1
1511885877698812,1,-2,-2,4,-1,-8,-11,-1
1511885877711858,-3,-4,-3,-4,-2,4,-3,-2
1511885877711858,-6,1,3,2,-1,-6,13,-1
1511885877712849,4,3,1,-2,-2,0,-12,-7
1511885877712849,-1,-5,-6,-3,-7,10,-35,-3
1511885877734911,2,-1,-3,-1,7,10,59,8
1511885877734911,-6,3,1,2,33,7,2,0
1511885877735910,12,1,0,-1,-24,-2,-17,-1
1511885877735910,-13,-4,-5,-3,-17,-27,-10,0
1511885877748949,-8,-1,0,1,5,1,-15,-5
1511885877748949,10,0,-2,0,13,-1,4,1
1511885877756969,-5,0,-2,-3,-19,1,0,-1
1511885877756969,4,-1,0,0,12,2,4,2
1511885877772009,-3,-1,-3,-5,0,-7,-12,-2
1511885877772009,0,2,-2,-7,-46,-22,-12,1
1511885877773009,-4,-1,3,5,20,1,-16,0
1511885877773009,-2,-1,-1,1,4,10,9,-1
1511885877795071,1,0,1,-6,1,37,4,-1
1511885877795071,2,-1,-1,3,0,3,-8,-3
1511885877796070,-4,-1,1,2,2,-5,1,0
1511885877796070,3,-1,-1,-1,-13,-13,-1,-3
1511885877818132,-1,-2,-3,-2,5,-11,16,2
1511885877818132,-2,-1,-3,-3,-5,-21,-27,-3
1511885877819133,-4,-2,0,-3,-23,0,1,-4
1511885877819133,34,2,-1,2,9,-5,6,-3
1511885877832166,-11,-3,-3,0,-4,-9,-25,1
1511885877832166,-1,2,2,2,20,1,24,4
1511885877833173,-6,-5,-6,-9,-26,6,-8,-6
1511885877833173,3,0,0,4,5,9,16,1
1511885877855270,3,-1,1,-2,-42,12,7,-2
1511885877855270,0,-2,-4,-7,-23,-7,-4,-3
1511885877856264,1,1,-2,-2,17,-24,-7,0
1511885877856264,-10,0,0,1,-2,1,4,0
1511885877878293,-1,-1,0,2,35,1,-25,-4
1511885877878293,-4,-1,1,1,-26,20,5,1
1511885877878293,0,-1,0,1,13,-4,13,0
1511885877878293,-7,-2,-2,-2,10,-1,5,-1
1511885877900351,0,-2,-1,1,-26,-1,-17,2
1511885877900351,6,0,-1,-1,0,-5,46,-2
1511885877901350,-2,2,2,1,2,2,8,3
1511885877901350,-5,-2,-2,-1,7,-14,-23,1
1511885877915391,-2,-2,0,-1,4,-8,-30,-2
1511885877915391,6,1,1,0,8,28,35,0
1511885877916390,-10,-2,-3,0,-6,5,-44,0
1511885877916390,-6,-1,1,1,-30,-4,69,-3
1511885877937449,-5,0,-1,1,-12,-15,4,-5
1511885877937449,7,-4,-4,-7,-20,-8,-18,-1
1511885877938449,4,2,2,7,32,16,-19,3
1511885877938449,-1,-1,-1,-5,-51,12,-10,1
1511885877952486,4,-2,-2,-2,12,-12,-1,-3
1511885877952486,-13,-1,1,3,14,-7,-7,-1
1511885877952486,0,-4,-5,-7,-17,8,18,-1
1511885877952486,-2,1,-1,2,15,-18,-34,0
1511885877976550,16,4,1,1,9,42,28,-3
1511885877976550,-7,0,1,4,-6,-12,-29,-2
1511885877977556,-1,-1,-1,-3,1,2,9,2
1511885877977556,-3,-2,-1,-1,21,0,-5,0
1511885877997606,-1,1,2,4,2,-9,8,-3
1511885877997606,5,-1,-2,-2,2,-4,-15,-3
1511885877998609,-3,1,1,2,-7,-15,16,0
1511885877998609,1,0,-1,1,17,23,8,0
1511885878011668,0,0,-2,0,-8,-8,-26,2
1511885878011668,9,0,2,1,38,3,-3,2
1511885878012645,1,-2,-2,-2,-4,-5,4,0
1511885878012645,-3,2,2,-2,7,8,4,-3
1511885878034849,-9,-4,-3,-3,3,-8,4,1
1511885878034849,10,-3,-4,0,-9,12,-7,-4
1511885878035827,-15,-3,-2,-1,3,-1,-4,0
1511885878035827,10,3,1,0,4,-7,-7,0
1511885878058067,-22,-7,2,-1,2,-2,-1,1
1511885878058067,-3,-1,-2,-1,-4,4,-5,0
1511885878058892,6,5,0,-2,1,0,5,-1
1511885878058892,-9,-3,-5,-3,-10,-3,-5,-1
1511885878071927,-1,-4,-3,-3,-2,-6,0,0
1511885878071927,-4,10,2,-3,-4,1,5,1
1511885878072925,4,-14,0,5,1,1,-4,0
1511885878072925,-4,2,-1,-1,5,-4,-5,1
1511885878095168,5,4,2,0,-4,4,-1,1
1511885878095168,-4,-3,1,-2,-13,-3,-3,0
1511885878095988,6,6,2,0,-2,-4,0,-1
1511885878095988,-2,-2,-3,-1,1,0,-5,-1
1511885878118089,0,-6,-2,-8,-23,-38,-4,-3
1511885878118089,-2,0,2,3,1,14,-4,-3
1511885878119053,-1,2,-3,-9,16,-15,2,-1
1511885878119053,-1,-14,-19,4,-31,25,5,1
1511885878132108,3,5,3,3,8,9,6,2
1511885878132108,-4,-1,-1,-5,4,-10,-2,-1
1511885878133087,0,-3,7,1,-5,0,-6,-2
1511885878133087,0,0,-5,0,6,-14,-3,-1
1511885878155182,2,0,2,0,4,-3,0,0
1511885878155182,-2,-3,0,2,-5,-2,-4,1
1511885878156150,1,0,-1,0,1,20,1,-1
1511885878156150,1,3,7,-3,-6,-8,2,-1
1511885878178209,-1,-1,0,1,0,8,2,1
1511885878178209,-5,-4,0,1,7,2,0,-2
1511885878178209,6,3,5,-14,2,-2,-2,-2
1511885878178209,-1,2,-5,1,-8,13,0,0
1511885878192271,1,-3,3,13,0,-11,-1,-2
1511885878192271,0,3,-1,-2,3,-8,-2,-2
1511885878193412,-1,-4,9,0,-3,5,0,0
1511885878193412,-1,-2,-13,0,8,-2,1,1
1511885878215309,-1,0,-2,-10,-2,-3,-2,-2
1511885878215309,2,2,27,5,5,-2,0,2
1511885878216308,-3,-4,-22,-2,-39,-14,-4,-2
1511885878216308,-1,-7,-6,-7,-8,-8,4,0
1511885878237366,0,1,-6,-2,32,16,3,2
1511885878237366,-1,-1,-1,1,-40,-9,-4,-1
1511885878238365,3,4,14,6,21,2,-1,-3
1511885878238365,2,2,7,-2,-24,-19,-3,1
1511885878252517,-1,-3,-10,-3,4,10,0,2
1511885878252517,-4,-2,-2,-2,6,0,0,-1
1511885878253442,2,1,-5,4,-8,0,0,1
1511885878253442,-5,-2,-8,-9,1,-11,9,-1
1511885878275570,-1,3,20,11,9,17,-7,-3
1511885878275570,1,-4,2,2,30,-4,-1,-2
1511885878276468,-6,-6,-54,2,-44,5,-1,-3
1511885878276468,3,4,18,-2,-24,3,4,1
1511885878297524,3,0,-12,-11,51,-16,2,-1
1511885878297524,-2,-2,0,10,60,37,2,-1
1511885878298527,-1,-2,20,-4,4,-18,3,1
1511885878298527,-1,2,-1,0,9,8,-7,0
1511885878312713,3,0,7,2,-5,3,-4,-1
1511885878312713,0,-3,-8,-5,-40,0,3,1
1511885878313569,-3,0,1,0,25,6,1,-1
1511885878313569,-2,1,3,3,28,-6,2,-1
1511885878335649,-3,-2,3,2,-8,13,-9,1
1511885878335649,1,-1,-10,-3,7,4,9,0
1511885878336626,-3,0,0,1,4,5,-17,-3
1511885878336626,6,-1,10,3,1,4,7,-3
1511885878357687,-6,1,-5,0,-22,-5,0,2
1511885878357687,-2,-4,-12,-7,-18,-13,0,-3
1511885878358685,1,1,8,1,4,-3,4,0
1511885878358685,-5,0,1,0,5,4,-5,-1
1511885878371720,0,0,-6,-5,-16,-13,0,0
1511885878371720,-2,0,-5,-2,-4,-10,-3,-2
1511885878380746,-1,-1,5,3,2,14,6,1
1511885878380746,-4,-3,0,-1,12,-12,-9,-1
1511885878395889,4,1,-3,-5,-11,13,4,-2
1511885878395889,-1,-3,-3,-4,-8,-6,1,0
1511885878395889,-1,1,6,0,-8,6,-1,0
1511885878395889,0,1,-7,-3,-4,11,-4,-1
1511885878417845,1,-5,-10,3,-4,-14,7,1
1511885878417845,1,-1,10,3,16,7,-7,-4
1511885878418845,0,0,-5,-2,-13,-6,-1,0
1511885878418845,-1,0,3,-2,-63,-13,-2,0
1511885878431880,2,1,-6,-2,60,15,8,1
1511885878431880,-3,-2,9,-4,-69,-7,10,0
1511885878440137,5,-1,-5,4,-5,8,-5,1
1511885878440137,-3,-2,0,-5,-2,-10,3,-2
1511885878455114,1,1,3,6,-6,-2,-9,0
1511885878455114,0,-2,-5,1,15,2,4,1
1511885878456082,-1,0,5,0,13,-11,-3,-2
1511885878456082,2,0,-2,2,-19,10,-4,0
1511885878478180,-3,0,-4,-5,63,0,1,-2
1511885878478180,2,1,-2,0,6,-2,-6,1
1511885878479157,-8,1,2,5,2,-1,2,-1
1511885878479157,6,-2,0,5,26,4,-3,1
1511885878491214,-1,-3,-4,-9,-56,-14,-8,-3
1511885878491214,-1,1,-9,-4,-13,8,-5,0
1511885878500220,-2,-2,-4,-4,9,-5,-3,-1
1511885878500220,-4,0,6,4,30,12,5,-2
1511885878514256,1,2,6,3,-13,-11,2,-2
1511885878514256,0,0,-1,1,23,25,2,1
1511885878521292,-1,-1,-7,-4,-11,-2,1,0
1511885878521292,-3,-1,4,2,24,-4,-11,-2
1511885878538300,0,-1,0,-3,-31,-14,4,0
1511885878538300,-3,0,-4,-3,13,-1,-6,-3
1511885878539299,0,0,5,-4,-16,-9,2,0
1511885878539299,0,-1,0,-2,-22,-11,1,-1
1511885878551347,-1,-1,-2,2,-4,-10,-3,-2
1511885878551347,-7,-1,-1,2,-3,-1,-2,-1
1511885878560355,-1,-1,-1,-3,-14,3,5,-1
1511885878560355,1,1,12,4,41,12,0,0
1511885878574395,-4,-3,-13,-5,-57,-15,-4,-2
1511885878574395,3,1,13,5,-25,-8,2,-1
1511885878582414,1,1,-3,1,29,7,3,2
1511885878582414,-2,-1,-8,-6,-24,-6,-7,-1
1511885878597454,-3,0,7,5,38,14,1,-1
1511885878597454,8,2,-2,-4,17,-3,-2,-1
1511885878599459,0,-3,-3,0,-55,-2,5,-1
1511885878599459,-1,1,3,0,21,-1,-2,2
1511885878611613,0,0,-4,-4,-15,5,2,0
1511885878611613,0,0,-8,-1,8,-5,12,1
1511885878620515,-1,0,4,-1,-3,-2,-14,1
1511885878620515,1,-2,-6,0,-7,-9,-1,-3
1511885878633552,4,2,4,10,69,37,4,2
1511885878633552,-4,-2,-3,-3,-27,-22,-4,-2
1511885878642747,0,0,4,0,1,-2,1,0
1511885878642747,-3,-2,-8,-2,-10,11,2,-2
1511885878657798,0,-3,-1,4,38,6,3,1
1511885878657798,0,-2,-1,-10,-9,-3,-4,-1
1511885878659647,0,-2,1,5,-11,7,1,-1
1511885878659647,-1,0,-4,3,82,6,-1,1
1511885878671650,1,1,2,-4,-30,-9,6,1
1511885878671650,-1,-4,-2,2,41,0,-10,-2
1511885878680794,-7,-1,-4,-4,6,1,2,-2
1511885878680794,5,-1,0,1,-13,9,1,1
1511885878693937,3,3,3,2,-16,-9,0,-2
1511885878693937,-5,-2,-2,-4,34,-1,0,0
1511885878702851,-4,-2,0,4,39,8,-1,-1
1511885878702851,-5,1,-3,-8,-28,-4,3,-1
1511885878717993,1,-4,-5,-5,-15,4,-5,0
1511885878717993,4,0,-9,-4,-37,-14,-6,0
1511885878719901,3,4,35,10,20,10,-1,-2
1511885878719901,-6,-9,-38,-1,29,8,2,0
1511885878739952,-6,-2,-2,-12,-73,-30,-7,-5
1511885878739952,-4,-5,-12,-3,40,15,3,1
1511885878741954,4,2,8,0,-70,-11,3,4
1511885878741954,3,4,22,5,76,2,-7,0
1511885878755199,-1,0,-9,1,-35,1,0,1
1511885878755199,3,2,12,5,23,-1,-1,-1
1511885878762018,1,-2,-7,0,25,-16,-2,-1
1511885878762018,-1,-1,1,-5,-68,-13,-1,-3
1511885878778152,0,-1,-5,-6,11,4,1,0
1511885878778152,-7,3,13,12,-7,-4,1,0
1511885878779142,0,-5,-20,-8,-2,2,-6,-5
1511885878779142,-4,6,26,14,-26,-23,-5,-4
1511885878800113,-4,-3,-16,-11,13,-5,-4,-2
1511885878800113,3,5,5,12,-19,3,4,1
1511885878802115,-5,-12,-11,-6,15,13,0,-2
1511885878802115,-2,-11,-32,-15,-22,-6,1,0
1511885878814263,-1,11,30,14,22,6,-1,1
1511885878814263,-5,-11,-3,-4,-11,-21,-6,-4
1511885878821284,1,3,-9,-2,-41,-1,1,0
1511885878821284,3,6,23,7,-2,-15,-3,0
1511885878838327,3,-1,-5,5,-17,12,2,2
1511885878838327,8,15,7,1,73,9,-1,2
1511885878839328,-7,-7,-1,-4,9,5,0,0
1511885878839328,-6,-9,-11,-2,34,3,-1,-4
1511885878860428,-1,-2,1,-6,-26,0,1,-1
1511885878860428,0,-2,9,8,-1,9,2,0
1511885878862391,3,8,-4,2,6,0,-1,1
1511885878862391,1,-5,-49,-18,3,9,1,0
1511885878874623,-5,-13,-7,9,-22,-15,-1,-2
1511885878874623,2,-3,-18,-5,9,7,1,1
1511885878881441,3,23,16,4,2,-5,-5,-1
1511885878881441,-1,-5,29,0,-40,-5,2,0
1511885878897483,2,-4,-21,-15,28,3,0,-1
1511885878897483,-5,-6,-3,-2,-63,-11,-2,0
1511885878899488,-7,-23,-10,7,-1,-7,1,-3
1511885878899488,-1,-3,-13,-3,4,10,-2,-2
1511885878920728,0,7,24,7,27,-13,-4,0
1511885878920728,0,6,5,-15,-52,7,0,-1
1511885878921639,6,27,36,1,25,3,1,2
1511885878921639,0,-2,-29,2,-7,-2,-1,1
1511885878934585,-6,-20,-18,-19,-13,-10,-1,-1
1511885878934585,-4,-6,4,11,7,-1,-3,-4
1511885878941604,-2,-3,-8,-7,0,1,-1,-1
1511885878941604,4,9,24,15,-7,-3,1,1
1511885878957825,5,11,9,3,5,3,0,3
1511885878957825,-5,-10,-21,-12,-11,-10,-3,-3
1511885878959650,-4,-9,-4,-11,0,-3,-1,-2
1511885878959650,1,4,15,15,-16,0,0,2
1511885878980706,-2,4,8,-1,3,-8,-3,-3
1511885878980706,1,-4,-3,-6,8,19,0,0
1511885878981707,1,-1,6,-11,-71,-22,0,1
1511885878981707,-1,-1,-17,-6,81,17,2,2
1511885878994904,-2,-4,-8,-3,-18,-32,-8,-3
1511885878994904,-1,4,20,5,-24,-1,1,-2
1511885879001763,-1,-10,-37,-6,23,1,0,0
1511885879001763,0,2,9,-5,-49,2,0,0
1511885879017979,-1,1,7,1,16,9,1,-1
1511885879017979,0,-3,-1,-2,1,-3,0,0
1511885879019809,2,2,4,12,12,3,2,1
1511885879019809,-3,-6,6,-9,-11,-5,0,-3
1511885879040008,1,2,1,7,8,17,2,0
1511885879040008,-3,-2,-4,-8,-11,-6,-2,-1
1511885879042010,-1,-4,-11,-34,11,5,0,1
1511885879042010,0,3,10,57,1,-7,-1,-1
1511885879054045,-2,-2,6,-3,-6,2,-2,-2
1511885879054045,-1,0,-11,-8,-18,-4,5,1
1511885879063066,0,-2,2,17,19,-5,-15,-1
1511885879063066,0,-1,1,-26,-9,-3,-1,-1
1511885879078290,1,0,-1,9,0,4,2,-1
1511885879078290,1,-1,-6,-6,-13,-24,9,-3
1511885879079213,-4,-3,-3,-7,-5,-13,-13,-1
1511885879079213,-1,2,7,-3,-9,9,1,2
1511885879100176,-1,-3,-5,5,5,8,0,0
1511885879100176,-2,1,-1,-1,17,-17,-2,-1
1511885879102173,1,-1,3,5,0,-10,2,-3
1511885879102173,-1,-1,-2,-5,-6,11,-2,-1
1511885879114207,-1,-1,-3,-7,-6,-5,0,-1
1511885879114207,2,1,2,2,4,14,-10,0
1511885879123229,-2,-1,0,9,21,4,8,-1
1511885879123229,-3,-1,1,-5,1,16,-16,-2
1511885879138269,1,0,0,-4,-2,2,1,1
1511885879138269,0,0,1,3,4,5,7,2
1511885879139269,0,-2,-3,3,6,3,-3,-1
1511885879139269,-2,-3,0,-13,-2,-3,1,-2
1511885879160504,-1,0,3,2,-4,-3,5,-1
1511885879160504,0,-1,-5,1,-1,17,-4,2
1511885879162330,1,-2,-1,-2,-1,-2,12,0
1511885879162330,-1,0,2,-2,0,-5,5,-1
1511885879174526,1,-1,-2,-5,-13,-2,-27,-4
1511885879174526,-5,-3,-2,0,-4,-7,-3,-2
1511885879182658,-1,1,-3,-4,4,4,-11,-2
1511885879182658,-1,0,-3,-6,-12,-14,27,0
1511885879197672,-1,0,1,3,4,-1,-7,1
1511885879197672,-1,0,-2,0,5,6,-1,-2
1511885879199680,3,0,1,3,6,16,6,1
1511885879199680,-3,0,0,0,-2,4,-7,0
1511885879220733,-1,-1,-3,-2,-6,-5,19,0
1511885879220733,1,2,0,1,3,-1,-17,2
1511885879221735,-2,-2,1,2,11,7,-72,0
1511885879221735,-2,-2,-4,-3,-20,-3,61,-4
1511885879233806,0,0,-1,-5,-3,3,3,0
1511885879233806,1,1,1,5,5,4,12,0
1511885879242792,0,-1,-1,2,-1,4,-3,3
1511885879242792,-2,-2,-2,-5,1,-11,-30,0
1511885879257933,-1,0,0,6,9,0,-15,-1
1511885879257933,1,-1,-1,-1,-5,-6,29,-3
1511885879258834,0,1,-3,-4,-16,-15,22,1
1511885879258834,1,0,-1,2,7,-2,-21,1
1511885879280061,1,-1,0,-1,4,5,8,-1
1511885879280061,-1,-1,0,-1,5,-6,0,-1
1511885879281896,2,0,0,-1,-9,-7,-22,2
1511885879281896,0,0,-2,-2,3,5,1,0
1511885879294110,-3,-2,0,2,3,4,-3,-1
1511885879294110,-1,-1,-2,-2,-14,-22,-6,-2
1511885879302952,0,-1,-1,-2,-5,-1,20,-3
1511885879302952,-3,-2,0,-1,8,-2,8,-3
1511885879317994,-1,0,-2,-5,-31,-46,-5,0
1511885879317994,-1,0,1,-1,1,14,-33,0
1511885879318997,-4,-2,-2,0,2,-9,25,-6
1511885879318997,1,1,2,-5,-36,-21,-22,-2
1511885879340243,-1,-2,-1,-2,10,13,-17,0
1511885879340243,-6,0,-2,1,-3,8,58,1
1511885879342057,-1,0,-2,0,0,-10,9,3
1511885879342057,-1,0,0,0,11,11,2,-1
1511885879354090,-1,1,1,0,9,10,25,0
1511885879354090,3,-3,-2,-1,-8,14,-20,-1
1511885879363148,1,-1,1,3,2,-3,-1,-2
1511885879363148,1,-1,0,-4,4,-2,1,0
1511885879378195,-5,-1,0,6,3,8,-1,1
1511885879378195,0,0,0,2,11,-8,2,4
1511885879379155,-7,0,0,1,-14,-10,-20,-11
1511885879379155,0,-1,1,-3,2,-7,-31,-15
1511885879399211,-1,0,-1,-2,8,0,-16,6
1511885879399211,0,-1,-2,1,1,-2,-3,19
1511885879408357,-3,-1,-4,-7,-13,-11,-1,-6
1511885879408357,5,0,0,2,4,-1,-7,2
1511885879414373,-11,3,0,-2,0,7,3,-12
1511885879414373,12,0,0,1,5,-27,-4,3
1511885879423397,-18,-1,2,0,-11,10,17,4
1511885879423397,15,0,-1,3,1,-2,-5,-1
1511885879437476,-26,-3,-1,-1,-2,4,12,0
1511885879437476,-4,1,0,-4,-7,-14,-19,-7
1511885879439471,-1,-2,-2,-1,-14,-24,-5,-5
1511885879439471,6,2,0,0,-21,-6,15,2
1511885879460687,1,-3,-1,-4,-6,3,-13,3
1511885879460687,9,0,1,0,-6,-4,-14,-6
1511885879461621,1,-2,-1,0,12,12,11,2
1511885879461621,-5,0,-1,-2,-6,0,14,5
1511885879473585,5,-2,-6,-4,-6,-11,-1,-4
1511885879473585,-13,1,-1,2,3,11,-2,-8
1511885879482589,17,2,2,0,-1,2,-5,3
1511885879482589,-6,0,1,0,14,20,-6,5
1511885879497597,3,1,-1,1,1,6,9,-1
1511885879497597,-3,-3,-2,-1,6,-2,14,-4
1511885879499601,17,1,-1,0,5,14,-19,4
1511885879499601,-48,-4,1,4,5,-6,-6,-6
1511885879520697,11,0,-2,-3,-13,3,19,1
1511885879520697,4,1,-1,-1,-4,7,-11,2
1511885879521662,-4,-2,1,1,18,9,3,-1
1511885879521662,11,-3,-5,-5,-22,-17,14,11
1511885879533695,7,-2,-4,-2,-3,-3,-14,-11
1511885879533695,-8,-2,-1,-2,-2,6,-4,-8
1511885879542717,-11,-2,-1,2,16,6,1,0
1511885879542717,14,1,1,-1,-5,-6,15,2
1511885879557870,-5,-4,1,6,-19,4,-26,-1
1511885879557870,21,-1,1,-2,-17,-1,-10,-5
1511885879559760,-6,1,0,3,18,7,14,-1
1511885879559760,3,1,0,4,29,16,-37,-12
1511885879579913,4,1,-1,-9,0,0,60,9
1511885879579913,-1,1,2,2,9,-1,-14,-3
1511885879581818,3,0,1,7,-9,6,3,1
1511885879581818,-3,-3,0,-2,-10,4,3,-4
1511885879593849,26,0,-2,-2,-1,-8,-46,-1
1511885879593849,-3,-1,0,0,-18,1,14,3
1511885879602873,3,0,-2,-1,32,16,15,-5
1511885879602873,-5,-3,-6,-2,-7,-13,-15,-1
1511885879616948,-4,3,0,-2,-4,-4,1,-3
1511885879616948,6,0,0,1,-2,13,5,4
1511885879624266,-33,-3,-3,-5,-7,0,-9,1
1511885879624266,14,-2,-1,1,0,-16,7,-1
1511885879640137,0,-2,-3,0,6,-12,-9,-4
1511885879640137,-15,-2,0,1,-16,-6,-14,-1
1511885879642142,10,-1,-2,-1,-10,2,-7,-2
1511885879642142,2,0,1,-3,5,0,0,3
1511885879654213,7,5,10,8,18,12,6,0
1511885879654213,-7,-2,-6,-9,-41,-17,-8,-3
1511885879663195,8,-1,0,-2,60,0,7,1
1511885879663195,-10,2,28,0,-77,14,-14,1
1511885879677418,0,-19,-77,-8,20,-2,1,1
1511885879677418,1,2,15,0,58,-4,6,-3
1511885879684254,-3,5,2,5,-88,-12,-2,2
1511885879684254,4,0,-6,-5,103,27,-3,-1
1511885879700394,-6,-1,-4,-19,-20,-3,-1,-5
1511885879700394,-10,-4,-5,9,-11,-1,2,-2
1511885879702306,-3,4,-14,-32,-5,-6,4,-2
1511885879702306,32,-1,36,22,14,-2,0,4
1511885879723360,-9,-6,-17,14,-20,-6,-2,-1
1511885879723360,23,-1,-11,-13,21,-9,0,6
1511885879724362,-15,6,50,18,-12,16,-3,-5
1511885879724362,4,0,-27,-9,20,-21,9,6
1511885879737393,13,1,5,-8,-39,-28,-4,5
1511885879737393,-3,0,-4,-1,-13,9,1,-2
1511885879744415,-14,-9,7,5,5,-6,-3,-2
1511885879744415,-20,0,1,-6,21,-4,-1,-5
1511885879760576,-15,1,8,-1,11,-6,0,0
1511885879760576,9,1,4,4,-13,3,-2,-2
1511885879761463,15,4,5,2,13,-2,0,1
1511885879761463,-7,-6,-44,-8,-19,-7,-1,-1
1511885879782516,-9,-2,37,12,3,4,1,-1
1511885879782516,0,-3,-15,-4,-1,6,3,0
1511885879784519,10,-3,-12,-4,-14,-6,0,0
1511885879784519,-15,4,18,8,-23,3,-1,-5
1511885879797554,8,0,-10,-4,19,10,1,1
1511885879797554,7,1,-1,-1,5,9,2,1
1511885879804612,-16,-10,-13,-3,-7,-12,-1,1
1511885879804612,3,-3,-7,-8,-11,3,3,1
1511885879820745,-7,13,22,6,0,-3,-1,0
1511885879820745,-2,-10,8,13,40,19,2,-1
1511885879821618,9,5,-4,-6,-13,-7,-2,0
1511885879821618,7,-2,-26,-7,-27,-9,-2,3
1511885879842776,0,0,15,-2,17,1,-4,-1
1511885879842776,-13,0,-3,-5,-30,-4,-2,-1
1511885879844680,9,-11,-27,-7,10,2,2,1
1511885879844680,1,1,13,9,-7,-7,-1,-4
1511885879857718,-39,-1,3,7,-2,3,4,-1
1511885879857718,-2,3,4,-8,14,1,-4,-1
1511885879863728,4,-3,-6,3,0,-4,-3,-1
1511885879863728,1,1,5,-1,1,8,2,0
1511885879880774,7,2,7,-11,-2,6,2,-1
1511885879880774,-8,-8,-33,-5,0,-7,-2,-3
1511885879881776,0,3,2,-5,-10,-6,3,0
1511885879881776,-1,2,1,8,16,10,1,2
1511885879902835,10,-2,10,3,8,4,3,-1
1511885879902835,-7,3,2,-5,-46,-7,3,0
1511885879904871,1,2,14,7,56,3,-1,-1
1511885879904871,4,3,-10,3,43,17,3,-1
1511885879917006,-2,-7,-19,-9,-4,5,-1,-1
1511885879917006,-2,4,28,14,1,-5,-1,-1
1511885879924027,-5,-8,-29,-2,-14,-2,-1,-8
1511885879924027,-5,3,11,-8,-19,-3,-4,0
1511885879940071,18,2,-5,0,6,-4,-3,0
1511885879940071,-44,-4,20,12,19,2,-1,-3
1511885879942074,11,3,5,4,-8,6,1,1
1511885879942074,-14,-3,-2,-2,-7,-5,-3,-3
1511885879970188,9,0,-4,-3,-13,1,1,4
1511885879970188,11,1,-5,-4,1,-1,0,1
1511885879972156,6,4,4,-2,-9,-1,-1,3
1511885879972156,-5,-2,1,2,4,6,2,0
1511885879976188,0,0,3,-1,5,-3,0,0
1511885879976188,5,0,-2,-1,18,11,1,-1
1511885879985191,-4,-3,-2,0,-2,-17,-3,-1
1511885879985191,5,-1,0,-1,-8,-7,-3,-2
1511885880000232,-4,-1,4,2,-5,4,0,0
1511885880000232,4,2,-1,2,70,1,-1,0
1511885880002233,2,1,-2,-4,-23,1,0,-1
1511885880002233,-2,-4,-3,-6,-21,-16,-2,-1
1511885880023288,-5,1,6,2,-4,-3,-3,-4
1511885880023288,0,-1,-14,-2,-11,-7,0,0
1511885880024291,-3,0,3,-2,3,-1,-1,0
1511885880024291,11,-3,3,0,-2,-3,1,4
1511885880036323,-5,-4,0,-1,-5,0,-1,-1
1511885880036323,8,2,7,-1,-13,-6,0,0
1511885880045347,1,-2,2,1,1,2,0,0
1511885880045347,-2,-1,-3,0,-9,0,-2,-2
1511885880060574,-1,-2,0,-1,6,3,1,-2
1511885880060574,-2,-2,-5,-5,-13,-5,0,-2
1511885880061390,0,1,2,1,0,2,-1,-1
1511885880061390,2,0,-3,-2,-1,-6,0,-2
1511885880082470,-2,0,-1,0,-11,-3,0,1
1511885880082470,0,0,0,-1,-9,-1,2,0
1511885880084451,-3,-2,-3,0,4,10,1,-1
1511885880084451,-1,-1,-2,-4,-2,-2,-1,-1
1511885880096584,0,1,1,2,5,1,-2,-2
1511885880096584,-2,-3,-1,-5,-9,0,-2,0
1511885880105508,2,0,0,1,0,-2,-2,-1
1511885880105508,-5,1,0,1,0,5,1,-3
1511885880120591,-3,0,0,1,2,-2,-3,1
1511885880120591,2,-1,-3,-2,-3,-4,-1,-1
1511885880121575,1,0,-1,0,2,-1,0,1
1511885880121575,-4,0,-2,-1,0,-2,-1,-1
1511885880142650,-2,-1,-2,-2,-3,-3,1,0
1511885880142650,1,0,3,0,-4,-4,6,0
1511885880144635,0,0,-2,1,-4,-2,-20,-1
1511885880144635,0,-1,0,-1,-4,0,1,-1
1511885880156685,1,1,-1,-2,1,1,0,-2
1511885880156685,-2,-2,-1,-2,-5,-1,3,0
1511885880165667,0,0,1,0,-1,-3,1,-1
1511885880165667,0,-1,-1,0,1,1,-4,0
1511885880180710,2,-1,0,0,5,3,1,-1
1511885880180710,-2,-2,-2,-2,-4,-6,0,-2
1511885880181724,0,-1,-2,-1,-2,-1,-5,-2
1511885880181724,0,0,0,-2,-3,-1,-2,-1
1511885880202813,-1,0,-3,0,1,-1,3,-1
1511885880202813,2,1,1,0,-4,-3,0,0
1511885880204815,-1,-1,1,0,1,-4,1,2
1511885880204815,-2,-1,-1,-1,0,-1,5,1
1511885880216850,-2,-2,0,1,0,1,-2,0
1511885880216850,-1,0,0,-3,-4,2,-4,-1
1511885880225871,-1,1,-1,-1,2,3,6,1
1511885880225871,-1,-1,-1,2,0,-1,-2,-1
1511885880240007,0,2,0,1,1,-3,1,0
1511885880240007,-2,-4,-4,-4,-3,-3,-18,-3
1511885880241914,-4,-4,-3,-3,-1,-2,4,0
1511885880241914,-3,-3,-3,0,0,0,-1,-3
1511885880263129,-1,0,-1,-3,-3,1,1,0
1511885880263129,3,1,1,-2,1,0,0,1
1511885880264979,-1,0,1,-2,-1,0,2,0
1511885880264979,-1,-2,-1,-2,1,1,-1,0
1511885880277007,-2,-3,-1,1,-3,0,-3,1
1511885880277007,-2,1,-3,-2,-3,0,-1,-2
1511885880285028,0,0,-2,-2,-3,0,2,-1
1511885880285028,0,-1,0,-1,2,0,1,0
1511885880300069,0,-1,2,0,0,1,-1,-1
1511885880300069,-1,0,-3,-3,-3,1,2,1
1511885880302073,0,0,-2,-1,-1,1,2,-2
1511885880302073,-1,0,-2,1,-2,-1,-1,-1
1511885880323242,-1,-1,-2,-4,1,0,-2,-1
1511885880323242,0,-2,4,7,-2,0,0,0
1511885880324189,1,0,1,-8,2,0,0,-2
1511885880324189,-1,-2,0,8,-1,1,-4,-1
1511885880338199,-1,-2,-2,-18,-2,3,7,0
1511885880338199,0,1,-3,0,-1,2,-10,-2
1511885880345188,-1,-1,-1,-2,-1,1,0,-1
1511885880345188,0,0,1,11,-2,1,1,0
1511885880360262,-1,-3,-3,2,2,0,-3,-3
1511885880360262,-2,-2,-3,-6,0,2,3,0
1511885880362233,0,-2,0,1,-4,-1,-1,-1
1511885880362233,0,1,-2,-7,-1,2,-1,0
1511885880383299,-1,3,-1,3,-3,-2,-3,1
1511885880383299,0,0,-2,0,1,-5,4,-1
1511885880384292,-3,1,-2,1,-2,-6,-1,1
1511885880384292,0,1,-1,-7,1,-3,3,0
1511885880396328,0,-2,0,1,0,-6,-1,-2
1511885880396328,-1,1,2,2,0,-9,5,1
1511885880405347,-2,-2,-4,0,-8,-9,20,0
1511885880405347,1,2,7,5,14,-10,5,2
1511885880419388,0,2,-3,1,-3,-23,1,1
1511885880419388,2,-4,0,3,-2,46,0,0
1511885880426404,-1,-5,-2,0,0,79,-12,0
1511885880426404,-2,-8,-4,-6,-5,58,-14,-2
1511885880442483,-4,-9,-5,-2,0,74,-11,-2
1511885880442483,-6,-2,0,0,2,-33,-6,-1
1511885880444488,-5,8,5,3,-2,-114,9,3
1511885880444488,-3,15,3,-1,0,-120,35,7
1511885880456487,1,30,16,13,15,-128,50,11
1511885880456487,4,24,12,4,4,-118,52,7
1511885880465508,9,2,-6,2,6,77,12,3
1511885880465508,4,-7,-5,0,-3,75,-4,1
1511885880480548,4,-5,-4,-1,-2,0,-9,2
1511885880480548,-1,-22,-12,-8,-5,127,-37,-4
1511885880481554,2,-27,-11,-9,-9,81,-59,-10
1511885880481554,-25,-33,-14,-14,-15,127,-63,-108
1511885880502609,-30,-35,-17,-7,-10,127,-63,-29
1511885880502609,46,-9,3,-4,-7,115,-31,89
1511885880504611,3,-2,-1,-4,-7,23,-5,10
1511885880504611,3,3,2,-2,-6,-39,-5,14
1511885880525706,0,6,6,-3,-6,-77,7,-35
1511885880525706,-22,5,0,-1,2,-104,14,-43
1511885880526676,-3,7,6,3,7,-78,16,2
1511885880526676,10,8,10,6,10,-72,16,12
1511885880539748,-1,4,3,3,1,-32,16,2
1511885880539748,-5,-4,-11,0,2,-17,4,0
1511885880546766,1,4,4,-1,-2,-40,8,1
1511885880546766,-4,4,2,-3,0,-40,11,7
1511885880562769,7,4,17,3,-1,23,0,18
1511885880562769,-6,-8,-26,0,-2,39,-9,-10
1511885880564775,-6,-7,-6,5,-3,21,-10,-14
1511885880564775,1,-1,1,-2,0,47,1,13
1511885880576804,6,-1,3,2,-2,27,-1,13
1511885880576804,-5,5,17,-6,-2,-38,9,-14
1511885880585990,-6,6,5,3,-1,-81,10,-3
1511885880585990,-1,3,-3,-6,-1,-50,4,14
1511885880599868,9,12,2,5,4,-36,5,11
1511885880599868,-7,3,3,4,1,-38,8,-8
1511885880607000,-5,0,35,2,2,-10,3,-27
1511885880607000,4,0,-64,-8,-2,-20,2,31
1511885880623107,6,-3,22,8,-3,-8,2,0
1511885880623107,-7,-13,-19,-9,2,-21,-2,-5
1511885880624090,-5,-1,3,9,2,6,3,7
1511885880624090,0,-3,7,-3,-2,-8,2,-10
1511885880644985,-3,0,-13,-4,1,-4,0,-5
1511885880644985,4,9,12,5,-1,9,-1,3
1511885880646990,7,2,8,0,2,14,2,3
1511885880646990,-1,3,12,3,-3,7,-4,-3
1511885880660025,2,0,16,-3,-3,9,-2,6
1511885880660025,-5,-12,-56,4,-2,5,-10,-9
1511885880666050,-3,1,-5,-9,0,-9,-2,-3
1511885880666050,4,17,17,5,-2,-11,3,6
1511885880683216,-5,-10,-7,-5,1,19,5,0
1511885880683216,-13,-30,12,-3,-1,2,0,-10
1511885880684223,-3,10,-12,1,-2,-6,-4,0
1511885880684223,12,4,-2,0,-1,-9,-1,7
1511885880705334,-2,9,10,2,-4,-5,-4,1
1511885880705334,-2,8,6,1,2,-2,-2,-4
1511885880707280,-3,-21,-23,-7,0,-5,2,4
1511885880707280,0,-4,24,-1,0,8,-1,-1
1511885880720320,1,2,-39,8,0,-10,-5,-2
1511885880720320,2,4,4,1,0,6,4,2
1511885880726336,4,5,-4,-7,1,5,1,4
1511885880726336,-3,0,3,-1,-3,-8,-4,-2
1511885880743377,-1,-7,-2,1,0,3,-8,-2
1511885880743377,3,13,28,-4,0,-4,0,1
1511885880744384,7,4,-18,9,2,8,8,3
1511885880744384,-9,-22,-14,-2,-3,10,-2,-3
1511885880765434,-11,-6,-4,-7,-2,19,1,-1
1511885880765434,10,12,25,4,-3,0,-11,-1
1511885880766441,-3,-13,4,1,2,34,-8,4
1511885880766441,-2,6,-9,-5,1,17,-1,-3
1511885880779476,-5,-29,-21,-5,-7,6,-5,-3
1511885880779476,1,12,4,-6,-3,9,-3,-4
1511885880786786,-1,3,-12,-14,-5,-8,-9,-3
1511885880786786,0,-5,-9,13,0,-2,-3,2
1511885880802702,7,11,12,-1,3,14,1,4
1511885880802702,5,18,19,2,1,2,0,1
1511885880804711,0,-15,-9,-3,-5,4,-3,-1
1511885880804711,-12,-5,-20,-18,0,1,5,-4
1511885880824947,-6,-26,-25,-12,-1,-7,-2,-5
1511885880824947,-4,-4,-1,8,-3,-11,-2,-3
1511885880826769,4,12,14,3,5,-18,6,1
1511885880826769,10,1,17,-1,5,3,4,3
1511885880839990,2,8,3,0,-3,-17,-1,0
1511885880839990,-8,-9,-22,-15,-1,-28,3,-5
1511885880846823,-5,0,-2,-4,-18,-34,2,-3
1511885880846823,2,12,15,13,43,-28,6,4
1511885880862961,5,11,20,0,-2,-43,19,7
1511885880862961,3,10,5,-1,0,-53,3,6
1511885880863893,-5,9,-10,17,4,-63,11,2
1511885880863893,-6,-3,7,2,-14,-63,15,2
1511885880884925,5,16,6,4,-3,-38,1,3
1511885880884925,10,16,21,-2,14,32,5,5
1511885880886927,-7,-30,-17,-13,-31,84,-9,1
1511885880886927,-3,-31,-21,13,37,119,-26,-6
1511885880898983,-11,-24,-13,-13,-27,127,-33,-12
1511885880898983,-6,-12,-37,-15,19,84,-21,-8
1511885880907983,6,4,18,-6,7,55,-8,0
1511885880907983,10,11,30,-4,-21,31,-11,-6
1511885880923194,-1,8,15,8,7,-65,1,-6
1511885880923194,3,-8,-37,-3,-4,-98,7,-7
1511885880924188,1,26,17,8,7,-97,9,-5
1511885880924188,-3,-7,-4,-13,-6,-62,14,0
1511885880945255,3,-12,10,10,7,-35,3,3
1511885880945255,-1,2,0,3,-13,22,3,3
1511885880947123,9,21,15,-1,11,44,-9,6
1511885880947123,-8,-31,-21,-2,-12,92,-11,-3
1511885880959157,-5,-13,-15,-14,-7,54,-15,-6
1511885880959157,-17,-24,6,-4,0,29,-10,-4
1511885880968148,-6,1,-44,-12,3,39,-10,-4
1511885880968148,2,11,15,6,-7,35,-6,3
1511885880983275,-15,-4,15,4,2,36,-3,-8
1511885880983275,2,-2,-15,-7,-4,-25,3,11
1511885880984284,0,8,20,-7,1,-67,-3,2
1511885880984284,-2,8,4,11,-9,-83,7,1
1511885881005371,-2,3,-41,-2,9,-76,18,2
1511885881005371,0,13,40,19,-3,-40,11,-6
1511885881007339,5,12,10,5,4,-36,13,2
1511885881007339,-4,-17,-4,-2,-5,-49,9,0
1511885881019370,13,16,12,2,4,-6,7,5
1511885881019370,18,46,11,6,4,17,12,3
1511885881028396,-12,-57,-33,1,-2,8,5,-1
1511885881028396,-11,-13,-10,-15,-9,-8,-4,-5
1511885881042432,2,21,-1,3,6,-1,-4,-2
1511885881042432,-2,-2,2,0,-4,13,-5,1
1511885881044438,5,0,3,1,3,16,0,-1
1511885881044438,2,9,1,-1,-7,-2,-5,1
1511885881065494,0,-4,4,-8,-2,6,0,3
1511885881065494,-1,-9,17,13,-3,14,-4,0
1511885881066496,-1,1,-37,-4,4,10,1,-2
1511885881066496,2,4,4,-3,-3,-7,-6,-1
1511885881078532,0,-1,-8,-1,-3,-5,-2,1
1511885881078532,-4,-8,8,-6,0,22,11,-2
1511885881087644,-3,-4,16,2,4,4,-6,-2
1511885881087644,2,7,1,3,-1,-7,0,-1
1511885881102596,4,2,-17,-10,2,1,-2,3
1511885881102596,-8,-16,-3,13,-15,-10,-8,-2
1511885881104599,0,3,8,-6,0,1,-1,-2
1511885881104599,2,7,-2,-10,-4,-5,1,3
1511885881125687,0,-2,4,-20,-3,6,-2,-2
1511885881125687,-5,-15,-17,9,5,1,-3,-2
1511885881126657,-3,2,5,3,-4,3,-1,0
1511885881126657,3,8,2,1,-3,-2,-2,-1
1511885881138706,0,-6,-2,-2,-3,0,1,-1
1511885881138706,1,-3,-7,2,9,5,-3,0
1511885881147711,2,3,11,6,22,6,1,0
1511885881147711,-2,4,-2,-6,-32,-7,-3,-1
1511885881162755,0,-3,1,7,1,4,1,0
1511885881162755,-2,-2,-7,-9,-5,-3,-1,0
1511885881164757,-2,0,9,2,1,-7,-4,-1
1511885881164757,-1,-3,-9,-6,14,13,-1,0
1511885881184813,-1,1,7,-5,-14,-8,-4,-2
1511885881184813,-1,-4,-5,16,3,-4,6,-1
1511885881186816,-4,-11,-5,-25,-4,-9,-10,-6
1511885881186816,2,9,6,29,3,26,19,2
1511885881198852,0,3,4,12,-5,-10,0,-1
1511885881198852,-2,-2,-3,-12,-2,3,0,0
1511885881207873,0,0,-1,0,-7,-5,0,-1
1511885881207873,-6,1,-3,-1,2,1,-4,-1
1511885881223090,-2,-4,0,-1,9,6,2,0
1511885881223090,-3,-5,-3,-4,-11,-14,-4,-4
1511885881224030,2,3,13,7,1,10,1,-1
1511885881224030,20,-2,-20,-11,2,-4,-6,-2
1511885881245150,-16,3,3,8,8,6,4,2
1511885881245150,-3,-3,-2,-11,-6,-1,-5,0
1511885881246976,-3,3,13,3,-9,-5,0,0
1511885881246976,-1,-3,-13,-2,0,-4,-2,-4
1511885881259008,6,-2,-2,1,7,5,9,2
1511885881259008,-1,-2,-1,-5,1,0,-11,-3
1511885881268032,-3,0,-4,3,-3,5,5,1
1511885881268032,-3,0,8,-1,-2,-11,-12,-1
1511885881283073,2,-1,-3,-2,-4,1,4,-1
1511885881283073,-7,-3,-2,-5,1,0,8,7
1511885881284076,2,-1,-5,-2,-1,-2,6,-1
1511885881284076,-4,0,5,11,13,10,-3,-1
1511885881305133,3,0,0,-2,-4,-35,-8,0
1511885881305133,4,0,2,3,-13,-6,-7,-1
1511885881307137,-3,-1,-2,6,0,3,2,-1
1511885881307137,-2,-2,3,-8,-11,-13,7,1
1511885881319171,2,0,-1,0,8,14,-2,-1
1511885881319171,-1,-1,-3,1,5,1,-5,-2
1511885881328192,3,-1,-6,-5,-7,1,-3,-2
1511885881328192,10,5,7,3,8,0,-1,-1
1511885881343330,-2,-1,-2,-1,-13,1,-4,0
1511885881343330,-4,0,-4,-8,4,5,3,-1
1511885881344236,3,-1,-3,-4,-30,-35,-8,-5
1511885881344236,-1,1,1,-4,4,13,-3,0
1511885881365290,1,-3,-2,2,14,7,-24,-1
1511885881365290,0,-1,-3,-6,-33,-13,3,0
1511885881367333,-2,-1,0,2,16,9,-8,-1
1511885881367333,-6,-1,-1,7,-8,-13,21,0
1511885881379429,0,1,0,4,23,5,-3,-2
1511885881379429,-2,-2,0,-10,-2,-15,9,0
1511885881388352,-1,2,3,6,7,4,-5,3
1511885881388352,-3,-2,-1,-6,-5,-20,-11,-2
1511885881402606,0,-4,1,3,21,27,8,0
1511885881402606,3,-3,-2,1,-15,-9,-1,-2
1511885881404611,-1,-2,-2,1,-1,22,8,1
1511885881404611,-2,-3,-1,-5,3,-6,2,2
1511885881425669,0,0,0,-1,-14,-9,0,-1
1511885881425669,-2,1,-2,0,9,6,1,-2
1511885881426699,-2,-1,-1,-4,-3,1,0,0
1511885881426699,0,1,1,4,17,28,-6,-1
1511885881438705,2,1,2,2,13,4,5,0
1511885881438705,-3,-1,-2,0,-24,-8,-2,-2
1511885881447729,1,1,-1,0,12,-3,-4,-1
1511885881447729,0,0,0,-7,-26,-10,-5,-1
1511885881462941,0,2,-1,-2,-8,-2,4,-1
1511885881462941,0,-1,0,1,6,1,-8,-2
1511885881463771,-3,-2,-1,2,-1,-25,32,0
1511885881463771,-3,-1,-3,-7,3,-2,-26,0
1511885881484826,-1,-4,-2,-7,-19,-14,25,-4
1511885881484826,-3,1,2,5,10,6,-4,-1
1511885881486830,2,-2,0,3,7,-7,-7,-1
1511885881486830,0,0,-1,4,18,17,-2,-1
1511885881498962,-4,0,0,-2,-10,-13,-16,1
1511885881498962,0,-3,-3,-9,17,26,10,0
1511885881507886,-1,0,0,8,15,9,-6,-1
1511885881507886,2,1,3,6,-1,-15,13,1
1511885881521926,-1,-2,-2,-5,-32,-10,-24,-1
1511885881521926,4,-2,1,3,31,10,14,-1
1511885881528969,-7,0,-2,-6,-20,-22,-33,1
1511885881528969,-5,-1,-2,-6,28,-2,-1,-2
1511885881545093,2,0,-1,-1,-62,8,4,0
1511885881545093,0,1,-1,-3,0,-9,-3,-1
1511885881546990,1,-2,-2,0,0,16,9,-1
1511885881546990,-1,-2,0,-4,-12,-16,-22,1
1511885881568049,-1,-1,-1,-5,12,-9,36,2
1511885881568049,-1,1,-1,7,2,13,-1,-3
1511885881569064,1,-1,1,-5,-9,7,-8,-2
1511885881569064,-1,-3,-3,-1,-7,-8,4,1
1511885881582083,1,-1,-2,1,22,10,-20,-1
1511885881582083,0,-1,0,-6,-57,-31,-8,-2
1511885881589128,0,2,2,9,31,0,12,2
1511885881589128,-2,-1,-3,0,8,26,5,-2
1511885881605148,3,2,2,1,-23,-34,-5,0
1511885881605148,-3,-1,-1,-3,0,-23,3,1
1511885881607150,3,-1,0,-8,-27,-5,-7,-2
1511885881607150,-4,-2,2,-1,-17,-11,4,-1
1511885881628331,-4,-1,1,5,30,0,3,-3
1511885881628331,2,-1,-2,3,14,10,-4,-2
1511885881630211,-2,-2,-1,-10,-19,-9,-1,-4
1511885881630211,0,0,-3,-4,-6,-2,3,0
1511885881642414,0,-1,0,1,5,44,10,1
1511885881642414,0,1,1,1,-7,0,-18,3
1511885881649283,-1,0,-4,-3,0,10,25,0
1511885881649283,-1,-1,-1,-2,11,19,8,-3
1511885881665308,-2,-3,-1,0,-2,-6,-21,1
1511885881665308,4,0,1,2,-3,-4,46,4
1511885881667310,0,0,-1,-3,10,-5,-25,0
1511885881667310,-1,1,0,-1,-20,-12,-4,-1
1511885881688406,-2,-2,-2,-2,4,-21,8,-2
1511885881688406,-4,-1,-2,-5,-10,-4,-28,1
1511885881689375,-3,-1,0,0,-9,0,2,-1
1511885881689375,1,-1,1,-1,-5,-8,12,0
1511885881702446,0,-1,-3,-3,27,11,-16,-2
1511885881702446,0,-1,-1,-4,-2,-6,-1,-3
1511885881709429,0,0,0,1,-7,-10,-1,-2
1511885881709429,1,-1,-1,1,-10,5,-8,-2
1511885881725465,-1,-1,0,-3,-4,-24,4,-2
1511885881725465,-3,-1,-3,-1,17,11,1,0
1511885881726633,0,-1,0,5,-13,3,-10,-1
1511885881726633,0,-1,1,0,7,-2,-3,-1
1511885881747524,-1,0,-2,0,2,12,4,-2
1511885881747524,-2,-1,0,0,11,13,-24,-3
1511885881749529,2,-2,-1,-2,1,17,2,3
1511885881749529,2,0,1,3,23,8,-36,-3
1511885881762711,0,0,-2,-3,-35,10,29,1
1511885881762711,1,1,1,0,3,15,1,-1
1511885881768582,-1,1,-1,3,18,5,6,-1
1511885881768582,-1,-2,1,-2,-15,-2,-18,-1
1511885881785724,4,1,-1,0,4,8,2,1
1511885881785724,-5,-2,-1,0,-5,-4,-14,1
1511885881786627,1,-2,-5,-6,-31,3,42,11
1511885881786627,9,1,1,2,10,-15,-34,-19
1511885881807790,-5,-4,-2,-2,-10,0,-13,9
1511885881807790,-9,-3,-1,0,29,-16,-25,-16
1511885881809713,-3,-1,-2,-3,-22,2,46,12
1511885881809713,-9,-2,-1,-2,-3,-9,-10,3
1511885881821828,9,1,0,1,2,8,-6,-3
1511885881821828,1,-1,1,0,-12,-15,-12,0
1511885881828840,-2,1,0,1,17,-2,-13,1
1511885881828840,4,0,-5,-3,-25,-1,28,1
1511885881845856,-6,-2,1,-6,-3,-6,-1,-4
1511885881845856,3,12,5,10,3,4,17,7
1511885881846789,2,-2,1,-3,10,-4,-14,-8
1511885881846789,-5,-14,-9,-2,-6,4,23,2
1511885881867957,8,-6,-5,-5,5,-3,-14,-5
1511885881867957,-19,-4,-7,-6,-7,-17,30,0
1511885881869849,4,7,5,7,25,18,-5,0
1511885881869849,-8,7,4,-2,-9,-9,1,-2
1511885881880987,-1,-7,-1,2,24,20,-1,5
1511885881880987,8,0,-1,-7,-21,-21,14,-7
1511885881890053,1,1,1,13,13,-5,-21,-3
1511885881890053,5,-1,0,-5,-1,-12,-23,5
1511885881905054,-12,3,-1,6,54,-10,26,-6
1511885881905054,21,-2,-2,-1,-6,7,-2,6
1511885881907056,-24,-5,3,-2,-4,-3,-7,-2
1511885881907056,9,-2,-3,2,-4,21,0,-1
1511885881928244,-3,4,3,0,-17,-8,-8,0
1511885881928244,3,-3,-7,-5,45,18,-8,-1
1511885881929119,2,-1,8,5,4,-3,-7,-3
1511885881929119,4,2,0,3,14,24,27,6
1511885881941271,-4,-1,-1,-4,-10,2,-1,-2
1511885881941271,-5,-4,8,-2,-22,10,-4,-1
1511885881950177,5,1,-9,0,-1,-5,-3,-4
1511885881950177,-6,-3,-13,3,13,11,21,1
1511885881965241,1,2,0,-1,-52,-15,-4,-2
1511885881965241,-4,-1,3,-6,47,-4,9,0
1511885881967222,1,0,7,4,-10,-1,-14,-2
1511885881967222,-5,0,5,-11,7,-16,2,-1
1511885881988313,-4,1,2,0,-29,-13,-6,1
1511885881988313,1,-1,-5,3,-47,-1,12,3
1511885881989280,0,-4,15,-4,7,14,-2,-3
1511885881989280,-3,2,4,8,-1,-4,3,-1
1511885882001449,2,-3,-30,-10,6,-18,-8,-1
1511885882001449,-2,-1,-10,-8,8,4,-7,-1
1511885882010421,4,-2,-16,-3,-7,-9,0,2
1511885882010421,-4,0,8,-8,-17,-16,-1,-2
1511885882025498,1,3,30,13,33,18,1,0
1511885882025498,-4,-2,-2,4,-42,-3,-13,-3
1511885882026496,-1,-3,-13,-10,29,4,-4,-4
1511885882026496,2,4,7,-1,-35,-17,7,0
1511885882047519,-1,0,-2,3,25,42,1,0
1511885882047519,0,4,8,9,-15,-21,1,1
1511885882049529,0,-1,3,-8,28,35,6,0
1511885882049529,-2,-1,-21,5,3,-2,-3,1
1511885882061673,0,-2,1,-7,-33,-10,-3,-2
1511885882061673,-1,2,2,5,18,9,-3,1
1511885882070578,1,0,-1,-1,0,-12,-5,-2
1511885882070578,-2,-2,1,-4,-6,11,7,0
1511885882085734,0,-1,-8,4,21,15,-2,-1
1511885882085734,-2,-1,5,3,24,2,2,-1
1511885882086621,7,0,0,-2,-85,-15,3,-2
1511885882086621,-1,-2,0,1,57,0,1,-1
1511885882107774,-2,-1,6,-6,-35,-12,1,-1
1511885882107774,-1,-1,1,-4,-20,-3,-2,-1
1511885882109685,-4,-1,-4,-1,-15,-5,-7,-1
1511885882109685,2,-3,-3,-3,5,8,15,0
1511885882121839,-3,1,4,4,16,-7,-4,-1
1511885882121839,1,0,-2,-2,14,7,-9,2
1511885882130930,-5,-1,-8,-1,6,-14,-1,-5
1511885882130930,3,2,6,5,14,-4,-19,0
1511885882144965,0,0,-5,-2,1,-11,-4,-2
1511885882144965,0,-3,-7,-3,-18,2,5,1
1511885882146970,-2,-1,1,-2,-6,-2,-6,-2
1511885882146970,-1,0,-3,-3,1,29,7,0
1511885882168026,-1,-1,-2,4,-7,-14,-1,1
1511885882168026,-1,-1,2,-2,14,-3,-6,-1
1511885882169029,-1,-3,-5,-7,-68,-39,0,-2
1511885882169029,0,-2,1,-7,15,-26,-5,-2
1511885882182095,-1,-3,-7,-2,13,12,13,0
1511885882182095,1,1,3,1,-6,6,-21,0
1511885882190127,-1,2,-4,-2,8,-1,4,0
1511885882190127,-4,-3,-1,3,-26,0,4,0
1511885882205156,1,1,2,-6,24,-11,-8,-1
1511885882205156,5,0,2,1,9,1,7,1
1511885882207161,1,2,1,0,-6,10,3,0
1511885882207161,-4,-2,-2,2,7,3,3,1
1511885882228189,1,0,3,1,12,-1,4,0
1511885882228189,-5,-1,-4,-1,-8,4,4,-5
1511885882229193,-4,-1,0,2,33,0,-2,1
1511885882229193,-3,-2,0,1,-9,-2,11,-2
1511885882241413,-2,0,-2,1,-12,-2,-4,-1
1511885882241413,-1,-2,-2,1,32,26,11,-1
1511885882250244,2,1,3,2,-19,20,3,0
1511885882250244,-4,1,1,-7,10,2,2,-2
1511885882265310,0,-2,-4,-1,-26,-3,-21,0
1511885882265310,-2,0,-6,-3,-15,8,0,1
1511885882267295,1,-1,-3,4,51,-7,-4,1
1511885882267295,-2,-1,1,-3,6,12,-4,0
1511885882287348,1,-1,0,-2,-9,2,4,-1
1511885882287348,-1,-2,2,0,-3,-23,-1,-1
1511885882289348,-1,0,2,-4,-14,0,-8,1
1511885882289348,-1,0,-3,-1,-14,-1,-4,-3
1511885882301384,-1,1,5,8,7,-4,3,-1
1511885882301384,-1,-1,-6,-5,-8,-5,-1,-1
1511885882310406,-3,-1,-1,1,2,-7,3,-2
1511885882310406,-1,0,3,0,-6,-7,0,0
1511885882325445,1,0,3,-1,-8,6,-8,-2
1511885882325445,0,2,3,1,-6,-4,2,-3
1511885882326451,0,-4,-10,-8,2,-4,-2,-2
1511885882326451,0,-1,-3,-1,-15,-2,-2,0
1511885882347504,-4,-4,-5,-5,-29,-39,-1,-3
1511885882347504,0,-2,2,0,-3,-9,0,0
1511885882349509,-1,3,5,3,6,9,1,-2
1511885882349509,-2,-1,-4,-3,-21,-10,-7,-3
1511885882361720,-1,1,4,-2,13,5,3,1
1511885882361720,0,-1,-10,0,34,7,-4,-2
1511885882370565,0,-1,0,-5,-21,-7,-2,-1
1511885882370565,0,-4,-7,3,-23,-1,-7,0
1511885882385604,-1,-2,-10,7,16,9,1,-1
1511885882385604,0,1,4,-4,-21,4,-2,1
1511885882386609,-2,-5,2,5,95,26,5,-1
1511885882386609,3,4,15,0,0,0,-6,0
1511885882407781,1,0,-7,4,10,1,1,0
1511885882407781,0,2,6,-8,-19,-9,-3,0
1511885882409692,-1,-3,-5,-3,15,-8,4,0
1511885882409692,2,-1,0,-8,-16,-23,9,-3
1511885882421705,0,2,0,1,-11,12,-11,1
1511885882421705,3,-2,1,2,47,7,2,1
1511885882430725,-5,0,-2,-4,-26,-3,-2,-1
1511885882430725,-3,-4,-14,-1,-25,-11,-1,-1
1511885882444863,0,2,4,-5,12,-1,6,1
1511885882444863,-2,-1,-5,1,-23,-4,3,-1
1511885882451866,5,0,9,2,-19,-25,-7,3
1511885882451866,0,1,-3,-1,17,18,-3,0
1511885882468083,0,-2,-1,0,6,2,0,-3
1511885882468083,-1,0,1,-2,3,3,3,0
1511885882469049,2,5,9,5,-10,12,2,1
1511885882469049,-1,1,-6,0,24,8,0,-2
1511885882490065,-5,-7,-4,-8,-8,-9,-9,-2
1511885882490065,-4,-3,-2,6,9,-1,1,-3
1511885882491969,2,0,-1,-3,1,-7,-3,-1
1511885882491969,-1,2,-10,3,1,0,-3,2
1511885882505077,-2,-2,2,-6,-29,-21,2,-2
1511885882505077,-1,-5,-22,4,-7,-14,-4,-1
1511885882511098,-2,2,3,-8,-4,6,-3,-1
1511885882511098,-1,-5,0,7,3,-3,1,1
1511885882528070,1,3,8,5,-2,13,1,1
1511885882528070,-3,-3,3,-7,-14,-4,-7,-2
1511885882529069,-1,1,-3,4,-22,5,5,-1
1511885882529069,5,-2,-3,-4,75,-7,-21,0
1511885882550168,-10,-5,-7,-6,1,5,11,-1
1511885882550168,3,1,1,-2,-32,-6,-16,-2
1511885882552134,2,16,7,2,13,3,-2,1
1511885882552134,-1,-2,3,5,-25,0,2,-2
1511885882565165,-15,-26,3,4,7,-5,-2,-5
1511885882565165,1,3,12,1,14,9,4,0
1511885882571325,-1,-5,-22,-10,-12,-7,1,-1
1511885882571325,1,-5,1,9,-5,1,-4,1
1511885882595457,2,-2,-5,4,10,-5,3,0
1511885882595457,1,10,35,2,-18,-6,5,-1
1511885882597343,3,14,-9,-4,10,-2,-3,1
1511885882597343,5,8,-6,2,-5,2,5,2
1511885882610423,5,13,7,-8,7,-2,-1,0
1511885882610423,-5,-15,1,8,4,8,2,-1
1511885882612380,-10,-46,-31,-6,-21,-8,-6,-5
1511885882612380,-7,-5,-2,-12,-20,-1,-2,-4
1511885882624530,6,15,24,-3,-2,7,2,-1
1511885882624530,8,27,-25,10,54,1,2,2
1511885882631430,-1,-2,20,9,-22,-19,4,1
1511885882631430,-3,9,-5,-4,6,13,1,-3
1511885882647471,-2,-29,14,1,-43,16,1,-1
1511885882647471,-7,-4,5,0,22,0,-2,-3
1511885882649476,0,-1,-38,-17,0,-2,-4,-3
1511885882649476,-2,-7,-10,-4,10,-7,1,-2
1511885882670534,8,28,-11,-12,-23,1,-1,2
1511885882670534,2,-21,-25,-5,-13,2,-2,0
1511885882671538,-3,2,58,28,6,-6,0,-2
1511885882671538,2,7,-6,-1,9,5,1,1
1511885882684568,0,11,5,2,-39,-3,1,0
1511885882684568,-2,-7,1,-10,15,0,2,2
1511885882691591,-4,-9,-9,-2,3,10,-1,-5
1511885882691591,2,6,17,1,-21,-3,-1,-2
1511885882707745,3,-3,-18,1,29,5,-2,2
1511885882707745,-1,13,-11,-9,-56,-6,1,0
1511885882709667,-7,-34,-3,-5,0,1,-1,-2
1511885882709667,-3,-3,-3,-4,-16,-3,-1,-2
1511885882730702,-1,-2,-10,-4,17,0,-1,-2
1511885882730702,1,16,16,2,-9,-1,1,2
1511885882731695,5,17,16,-14,12,1,2,2
1511885882731695,-2,-12,-7,24,7,-1,2,2
1511885882744906,-1,5,5,-1,11,-2,0,-1
1511885882744906,1,-1,9,-2,2,2,3,0
1511885882751750,-1,0,-9,-4,-16,6,-2,-1
1511885882751750,-2,1,15,-15,-6,-1,-2,-1
1511885882767910,0,5,1,22,24,3,-1,-1
1511885882767910,-4,-15,-9,-1,-26,-1,0,0
1511885882768913,1,7,5,6,4,3,1,2
1511885882768913,-2,7,6,-8,-1,-3,-1,0
1511885882790185,0,-8,-18,-11,19,0,-1,1
1511885882790185,-2,-6,3,-2,-20,-8,-1,0
1511885882792099,1,10,-3,12,0,-2,-1,0
1511885882792099,0,-2,1,-1,3,3,1,1
1511885882804202,-2,-7,-4,-5,-2,-4,6,0
1511885882804202,-3,-3,-2,1,-2,4,-14,-5
1511885882813155,2,9,1,-3,5,5,11,-2
1511885882813155,-2,-7,-2,2,7,-9,-20,-1
1511885882828194,-2,-5,-6,-5,-20,-7,-1,-2
1511885882828194,0,3,2,-17,9,-1,4,-1
1511885882829197,0,1,-2,18,22,2,1,1
1511885882829197,-6,-5,-2,-14,-15,-13,-5,-4
1511885882850295,1,0,-1,7,-13,-1,11,1
1511885882850295,-2,-1,-3,15,19,3,2,-2
1511885882852283,-2,0,0,-8,-14,-14,-10,-2
1511885882852283,-1,-1,1,2,-25,-13,5,-1
1511885882864290,-1,-1,-1,-9,11,-1,-1,-2
1511885882864290,-2,-4,-10,-3,-11,-2,-10,1
1511885882873478,2,2,3,8,11,-4,-8,3
1511885882873478,2,0,3,2,-2,-1,32,1
1511885882888481,-2,-2,-1,-1,-20,1,-9,-2
1511885882888481,1,-3,1,10,48,11,21,-3
1511885882890367,-1,-1,-2,-9,-23,5,2,1
1511885882890367,1,1,2,0,0,8,-4,-1
1511885882910598,-2,-2,-7,-4,6,-7,-9,-1
1511885882910598,0,-2,3,3,15,3,8,0
1511885882911576,-2,0,-9,-5,-7,-2,-7,-1
1511885882911576,2,2,3,3,3,9,2,-1
1511885882923559,-1,-1,2,2,-1,-2,0,-1
1511885882923559,-2,-1,-2,-4,-9,-4,-8,-1
1511885882932615,-1,0,-1,-2,1,-3,3,-1
1511885882932615,-4,-3,0,2,-8,5,-13,-5
1511885882947654,1,1,0,2,8,9,-1,-1
1511885882947654,-1,-2,-3,-8,-31,-18,-15,-1
1511885882949675,-1,-2,-1,-2,8,5,1,-1
1511885882949675,1,-1,-1,0,-24,-3,37,-1
1511885882970717,0,-1,2,-1,12,0,-20,3
1511885882970717,-3,-2,0,-1,-4,2,12,-4
1511885882971744,-2,-1,0,-4,-22,-5,1,-2
1511885882971744,2,1,1,1,10,-3,-13,0
1511885882983751,-2,1,0,-1,1,-5,-16,-2
1511885882983751,0,0,-2,-1,-8,4,10,1
1511885882992773,1,3,1,1,22,-5,-16,1
1511885882992773,0,1,-1,3,4,0,10,0
1511885883007811,1,-3,-4,1,-8,-4,29,1
1511885883007811,-1,-1,2,-2,10,3,-24,-1
1511885883009816,-2,1,1,3,6,0,19,-4
1511885883009816,-1,-1,0,-2,7,9,-23,1
1511885883029869,1,0,0,3,14,5,-20,1
1511885883029869,-3,1,-2,-4,-9,-5,-16,1
1511885883031875,2,0,-1,-1,1,0,41,0
1511885883031875,-1,0,0,1,10,0,-5,0
1511885883044025,1,-1,-1,-1,3,10,3,0
1511885883044025,1,-1,-3,-4,-18,-23,-1,-2
1511885883052931,-1,0,1,-3,-7,-5,-9,1
1511885883052931,1,1,0,2,21,24,-1,3
1511885883068146,-1,2,3,1,6,7,15,-2
1511885883068146,1,-1,2,3,5,10,-5,1
1511885883069141,-1,0,-3,-4,-15,-18,-29,-3
1511885883069141,0,0,-3,-1,0,-10,18,3
1511885883090033,-3,0,1,0,-5,3,4,-1
1511885883090033,-1,-1,0,2,0,-3,-18,-2
1511885883092036,0,-2,-1,2,17,25,14,1
1511885883092036,-4,-1,-1,-2,10,28,31,-1
1511885883113100,4,-1,0,0,-30,-25,-3,-3
1511885883113100,-3,1,-3,-2,2,2,2,0
1511885883114097,-5,1,4,3,-30,-22,-17,-4
1511885883114097,0,-2,-3,0,0,-13,-14,-1
1511885883128254,-1,-2,0,-3,0,2,-1,-1
1511885883128254,1,-1,-2,-1,7,8,26,-1
1511885883129136,-6,-3,-3,-3,-1,5,21,0
1511885883129136,5,1,1,-1,-14,0,-34,4
1511885883150193,-4,-1,0,-1,-2,-20,-1,-10
1511885883150193,-2,-1,0,0,8,27,-47,-3
1511885883152199,5,-1,-3,-4,6,16,12,16
1511885883152199,-4,-1,1,1,-4,-14,-23,-9
1511885883164230,1,-1,-4,-3,12,-7,44,2
1511885883164230,1,-1,-1,3,18,10,-16,-21
1511885883173299,0,2,-1,-1,5,-1,-19,10
1511885883173299,-2,0,-2,-1,2,-13,-4,0
1511885883195349,0,-1,0,-3,-13,-3,-25,5
1511885883195349,0,-2,3,2,5,-1,21,-4
1511885883197321,-2,0,0,0,-14,11,1,-7
1511885883197321,0,0,-3,-6,-3,-17,8,1
1511885883210374,-5,-1,-1,2,-6,-5,-9,-7
1511885883210374,-1,-2,-3,2,-8,-11,32,7
1511885883212363,1,-2,2,3,18,18,-7,-6
1511885883212363,-3,-3,-1,-3,-15,-13,-5,-1
1511885883224413,2,-1,1,-6,4,12,-6,3
1511885883224413,2,-1,1,-4,-5,-10,1,3
1511885883233419,-8,-2,0,-2,-5,1,4,-3
1511885883233419,10,-2,-1,0,5,-2,1,-1
1511885883247457,-2,0,-1,0,-7,-8,9,-1
1511885883247457,-4,-2,-2,-2,-2,-8,9,5
1511885883254496,2,1,0,-1,-3,-6,-7,-2
1511885883254496,-1,2,1,3,17,17,0,0
1511885883270513,-3,-3,-1,2,-14,-29,-9,-2
1511885883270513,11,2,-1,-1,-1,9,9,5
1511885883271517,-7,-3,-3,-3,0,1,-14,0
1511885883271517,-5,-3,-2,-3,-15,18,33,-4
1511885883283692,0,0,0,2,-9,-2,-36,2
1511885883283692,-5,-2,-2,-5,-43,-1,-5,-1
1511885883292691,4,-1,1,1,-7,-18,3,-4
1511885883292691,-1,-2,0,2,7,0,-13,1
1511885883307919,-2,-3,-2,-2,2,-1,3,-1
1511885883307919,2,1,1,0,4,4,3,2
1511885883309738,3,1,-1,0,7,4,-7,-1
1511885883309738,-5,-4,-3,-3,-15,-10,-5,-3
1511885883329901,0,0,0,-2,11,11,3,0
1511885883329901,-1,1,1,0,4,-5,-2,1
1511885883331796,3,1,-1,-3,3,-4,3,-2
1511885883331796,-2,2,1,0,2,-5,-7,-2
1511885883344014,-1,-2,-2,0,2,6,5,-1
1511885883344014,-3,-3,-1,1,7,-1,-2,0
1511885883352852,-3,0,-1,-1,-2,-12,-3,-3
1511885883352852,1,-1,-1,-1,-5,2,-1,0
1511885883367990,-1,1,0,-1,6,11,1,1
1511885883367990,-2,0,-1,0,-5,-7,-1,1
1511885883369898,3,-2,-2,-1,1,-4,-1,-2
1511885883369898,-3,0,0,-2,-4,-2,-5,-1
1511885883389953,0,0,2,1,-1,9,2,-2
1511885883389953,-5,-4,-3,-6,-28,-18,-7,-4
1511885883391956,-2,-1,0,1,3,-1,-2,-2
1511885883391956,-1,-1,0,-1,6,-3,-1,0
1511885883404171,-2,1,-2,1,-4,-2,1,-3
1511885883404171,0,0,0,0,10,-4,2,-1
1511885883413012,3,1,20,0,17,11,-3,0
1511885883413012,-2,-13,-46,2,-21,14,3,0
1511885883427169,0,1,16,-4,7,-6,-3,0
1511885883427169,-1,-2,-13,0,1,16,0,1
1511885883434073,1,4,11,-11,-33,-23,2,3
1511885883434073,0,2,10,5,5,-7,-4,-1
1511885883450113,0,-4,-7,0,-5,6,-1,-3
1511885883450113,1,6,22,-1,6,7,1,1
1511885883452115,-1,-6,-45,2,10,14,-2,0
1511885883452115,-3,-5,-9,-13,5,-21,-6,-4
1511885883473298,-3,-7,-12,4,-17,-7,-3,-1
1511885883473298,10,28,38,7,17,1,0,1
1511885883474299,-3,-13,0,-10,4,22,2,0
1511885883474299,-11,-9,13,20,19,-3,1,-4
1511885883487448,0,0,-12,-11,-3,-16,-3,0
1511885883487448,-2,-3,0,2,7,3,2,0
1511885883494350,6,16,7,3,2,-2,-3,1
1511885883494350,4,2,9,-5,14,16,-2,-1
1511885883510395,-1,0,2,-3,-24,17,-2,0
1511885883510395,-3,-13,-46,3,-31,-14,-2,-1
1511885883511397,-1,2,6,-11,-40,-23,-2,-2
1511885883511397,-1,0,-16,1,33,3,3,2
1511885883532488,1,4,37,14,11,2,2,0
1511885883532488,-1,-5,-8,-2,-17,0,-1,-1
1511885883534491,-4,-6,-3,-4,-5,10,-1,-2
1511885883534491,-1,6,17,3,-3,-2,0,-1
1511885883547501,-1,4,0,4,8,6,4,-2
1511885883547501,2,16,-13,-12,11,0,2,2
1511885883553510,-3,-17,-4,13,44,14,0,0
1511885883553510,-4,-14,4,-3,-22,-3,-2,0
1511885883570554,-2,1,-22,-7,10,-3,-1,0
1511885883570554,-5,-5,14,-3,12,-4,-4,-3
1511885883571554,0,6,-6,5,8,-11,-3,-3
1511885883571554,23,9,28,4,-5,15,-1,3
1511885883592639,-42,-12,-38,-5,-7,-1,1,-1
1511885883592639,-3,-4,12,3,18,7,-1,0
1511885883594616,-2,4,-1,-7,-10,2,0,1
1511885883594616,-4,-3,-11,-6,-24,-3,-3,-3
1511885883607652,9,3,20,10,44,-22,-1,-1
1511885883607652,5,3,-2,-3,-2,11,0,0
1511885883613669,-8,-12,-11,1,2,-10,0,0
1511885883613669,-5,3,3,-4,-9,-3,-3,-4
1511885883630713,10,0,8,7,-25,5,1,3
1511885883630713,-4,-8,-8,0,38,-30,-4,0
1511885883631718,4,0,6,-1,-2,0,-4,-4
1511885883631718,-1,6,-3,-2,6,-7,0,1
1511885883652812,4,6,2,-6,8,35,2,2
1511885883652812,1,-5,0,5,-6,0,2,-1
1511885883654776,-3,0,-4,-2,-13,-8,-1,-1
1511885883654776,0,1,-5,-5,6,-9,0,1
1511885883666807,2,-5,-3,-2,-4,-15,-2,-1
1511885883666807,4,-6,0,0,-8,7,1,-2
1511885883673868,15,3,4,3,9,-6,0,0
1511885883673868,-13,1,-3,-2,-16,-4,-1,-1
1511885883689985,7,-4,-2,-2,8,5,1,0
1511885883689985,-6,-1,-1,1,-5,3,0,-3
1511885883691873,4,3,-2,1,-4,-10,-3,-1
1511885883691873,3,-2,3,-3,-8,5,0,0
1511885883713110,-6,-4,-10,-1,-2,2,1,-3
1511885883713110,8,1,1,-3,3,-8,-2,2
1511885883713933,-5,-1,0,4,-5,0,0,-1
1511885883713933,-2,0,0,-3,1,5,0,-2
1511885883725969,-3,0,-2,-7,-1,-12,1,0
1511885883725969,-8,-3,0,2,8,18,4,-2
1511885883734991,-6,-2,1,1,-7,-5,-4,1
1511885883734991,-1,-1,-5,-1,22,3,2,0
1511885883750053,8,1,1,-1,-12,-7,-14,-1
1511885883750053,-3,-5,0,-1,-3,-2,6,-1
1511885883752034,-6,0,-6,1,0,5,0,-2
1511885883752034,3,1,4,-2,12,-4,-3,0
1511885883773216,0,-2,-5,0,-8,-3,4,-1
1511885883773216,-1,-3,0,-1,-9,-13,-5,-1
1511885883775218,-2,-1,-4,-1,0,-4,1,-2
1511885883775218,0,0,-2,0,-10,5,2,-1
1511885883786250,0,1,2,-3,5,8,3,1
1511885883786250,-3,-1,1,-1,-10,-7,-6,1
1511885883795279,0,0,1,0,2,-3,2,-1
1511885883795279,0,-1,-6,1,-2,5,1,-1
1511885883810491,1,0,2,0,1,1,-1,-2
1511885883810491,2,0,-4,0,-2,-1,-2,3
1511885883811413,-2,0,3,-2,-3,-3,1,0
1511885883811413,0,0,-7,-1,-4,-6,-3,-1
1511885883832374,0,1,4,2,2,-1,0,-1
1511885883832374,0,-2,-4,-1,-4,6,1,-1
1511885883834375,-3,-1,-2,-1,3,2,-1,-1
1511885883834375,-2,2,2,-2,-3,-1,-1,-1
1511885883846588,1,0,-8,-3,-4,-6,0,1
1511885883846588,-1,-1,6,2,1,-4,-1,-1
1511885883855432,-2,1,5,0,-1,2,1,1
1511885883855432,-1,1,21,5,-1,1,-1,1
1511885883870658,-3,-11,-51,-17,3,-1,2,0
1511885883870658,-2,1,7,5,-4,-6,-2,-3
1511885883871572,-5,-2,-6,-4,-7,-2,-1,-3
1511885883871572,3,1,7,3,-6,-8,0,-1
1511885883892766,0,0,16,3,0,-3,-2,0
1511885883892766,-2,0,-7,-4,-6,-3,-1,0
1511885883894686,0,-2,2,0,4,9,0,0
1511885883894686,-1,0,-5,-1,-7,-4,0,0
1511885883906780,-2,3,8,1,0,-3,-2,-1
1511885883906780,-1,-2,-14,-5,-1,-1,1,0
1511885883915716,1,2,12,5,0,-5,-3,0
1511885883915716,-2,-6,-17,-6,-6,-6,-2,-2
1511885883929757,0,-2,5,2,3,-1,0,-2
1511885883929757,0,1,5,-2,-3,11,2,0
1511885883931758,0,3,20,-1,-6,6,-2,2
1511885883931758,-1,-3,-32,-5,-1,-7,1,-1
1511885883952818,-1,0,10,4,-4,2,-1,1
1511885883952818,-2,1,2,-2,0,-8,-2,-2
1511885883954927,1,-2,1,2,2,-3,1,1
1511885883954927,1,0,3,1,3,3,-1,0
1511885883966077,-2,1,17,6,-4,-5,-4,-1
1511885883966077,0,-4,-14,-7,-2,-3,-1,0
1511885883975147,-1,-1,-12,-1,1,1,0,0
1511885883975147,1,1,5,-1,-2,-12,-1,-1
1511885883990221,0,-2,-3,-3,1,2,1,0
1511885883990221,-2,0,12,4,-2,-1,0,-2
1511885883992166,-2,-2,-3,1,3,-2,0,-2
1511885883992166,-1,-1,-3,-1,-1,0,-1,0
1511885884013336,0,3,6,2,3,7,0,-1
1511885884013336,-1,-1,-2,2,0,-9,-5,-2
1511885884014204,0,-2,-7,-4,1,9,-1,-1
1511885884014204,-1,-2,1,2,-2,-2,4,1
1511885884026237,-1,2,1,-1,-2,-6,-1,-1
1511885884026237,-1,0,-5,-2,1,-4,0,-2
1511885884035258,0,-1,-6,-1,-1,-8,-1,-1
1511885884035258,0,-1,5,1,-2,3,-1,0
1511885884050305,-2,-2,-5,-5,-2,-3,-1,-2
1511885884050305,-2,0,-2,0,2,1,0,-1
1511885884052311,-1,1,3,1,-2,0,1,0
1511885884052311,-3,-3,-5,-4,-3,-6,-3,-2
1511885884072473,0,-2,-3,-2,-2,-2,-2,1
1511885884072473,-1,1,0,0,-2,-8,-1,1
1511885884074362,1,-1,-2,-2,-6,-5,-1,-1
1511885884074362,-1,-4,-2,-2,1,19,3,0
1511885884086504,0,-2,0,2,4,7,-4,0
1511885884086504,0,-2,7,2,-3,10,1,0
1511885884095418,-2,0,-3,-1,0,-8,0,0
1511885884095418,0,4,-9,-1,-1,-8,-5,-2
1511885884110573,-1,-2,7,2,-4,-6,0,-2
1511885884110573,-2,-4,-7,0,0,2,0,-2
1511885884111469,0,-1,5,-5,1,4,-3,-2
1511885884111469,-1,0,2,4,-2,-3,1,-1
1511885884132517,1,1,3,-1,-1,-3,2,2
1511885884132517,2,1,0,-3,0,-2,-1,2
1511885884134522,0,-1,-3,0,2,-1,-1,-2
1511885884134522,-1,0,0,-4,-4,1,-1,0
1511885884146596,-1,0,-4,-2,-3,0,-1,-2
1511885884146596,-1,-2,-1,0,4,-2,0,0
1511885884155602,0,0,-5,-2,-1,-1,-2,-1
1511885884155602,-1,-1,2,0,1,-5,-1,1
1511885884170621,0,-1,-5,-1,0,0,0,-1
1511885884170621,1,-1,-2,-3,0,-1,0,-1
1511885884171621,-1,-1,-1,1,0,-1,11,0
1511885884171621,-3,-2,0,0,0,-1,-26,-5
1511885884192696,1,3,-1,0,2,-3,-7,0
1511885884192696,-1,-3,-2,-2,-2,2,-1,-1
1511885884194682,-1,-2,-4,-3,-3,1,-1,-2
1511885884194682,3,-1,6,7,3,4,22,3
1511885884207718,-1,0,-2,-2,-2,6,-1,-2
1511885884207718,-3,1,0,1,-2,-3,-23,-1
1511885884215739,-4,-3,-3,1,1,-4,-9,-8
1511885884215739,3,-1,2,-5,-5,5,-17,-1
1511885884229806,6,-1,-2,0,0,-15,17,6
1511885884229806,-5,2,0,1,3,-8,20,0
1511885884231781,2,1,-4,-3,-5,-14,11,5
1511885884231781,1,8,-2,-3,-6,-13,-31,9
1511885884253028,-3,-1,9,10,16,-1,36,3
1511885884253028,5,5,0,-2,-4,-19,-20,-3
1511885884254846,0,0,4,0,2,-4,-13,-2
1511885884254846,-2,-2,2,-2,10,2,23,0
1511885884266874,4,1,-8,-12,-10,-6,-5,4
1511885884266874,19,5,2,5,4,-33,-2,0
1511885884275083,-25,-1,1,-2,-2,11,26,21
1511885884275083,9,-3,-3,-2,-7,32,24,-25
1511885884289939,28,-6,-3,1,2,32,-82,-11
1511885884289939,-29,-7,-1,1,-1,50,66,35
1511885884291940,13,0,0,-2,-1,-4,-5,-10
1511885884291940,23,7,3,1,1,-105,-44,18
1511885884312999,-68,6,5,1,4,-120,47,-10
1511885884312999,22,7,1,-5,-5,-45,10,7
1511885884313999,9,1,4,6,7,78,-6,6
1511885884313999,-20,-11,-4,-2,3,58,25,-2
1511885884326031,26,-7,-5,-2,-5,68,-32,0
1511885884326031,-7,-4,16,19,29,72,-33,-10
1511885884336059,-12,-7,-5,-4,-5,32,5,-6
1511885884336059,0,-2,-1,-3,-5,28,-26,-12
1511885884349322,-3,-1,2,5,5,2,1,-4
1511885884349322,4,-3,-7,-6,-3,6,-6,-12
1511885884356341,-6,3,0,0,-7,-30,-9,3
1511885884356341,15,5,3,2,7,-11,19,16
1511885884372500,-2,-5,-7,-12,-34,-28,-12,-3
1511885884372500,-10,-2,-2,-6,-8,-11,6,-11
1511885884374385,28,4,2,0,4,-43,-10,-5
1511885884374385,-10,-2,-1,-6,-1,17,5,-3
1511885884386416,-9,2,3,4,4,3,25,8
1511885884386416,11,-5,-7,-9,-22,5,-17,-8
1511885884395441,-7,1,4,-2,-50,-54,-8,-4
1511885884395441,-12,0,-2,-1,3,-19,13,-1
1511885884409479,3,-2,-3,-3,-3,14,-5,-2
1511885884409479,-3,0,2,2,4,0,-6,-1
1511885884416500,-7,-1,-3,3,20,-2,-3,-3
1511885884416500,-8,-3,-4,-1,-9,-20,8,2
1511885884432543,14,4,2,4,22,11,4,4
1511885884432543,-5,1,0,-3,-6,-28,-4,-1
1511885884434545,-2,-1,-3,-1,22,-2,15,2
1511885884434545,6,1,3,2,6,-13,-1,-5
1511885884455737,-3,2,0,0,8,-22,8,1
1511885884455737,0,0,-2,-3,-5,-26,10,0
1511885884456721,2,1,-1,2,10,10,7,-5
1511885884456721,-1,-3,-1,-1,1,-3,-7,1
1511885884469757,-1,1,-3,-4,-5,2,-3,0
1511885884469757,-6,-1,-2,2,4,9,4,-1
1511885884476773,5,-1,-2,1,3,5,1,1
1511885884476773,-3,0,-1,1,-1,-9,0,0
1511885884492816,-3,-1,-5,-2,-6,0,9,2
1511885884492816,3,-1,-4,-3,4,0,-4,1
1511885884494821,-2,-1,2,1,2,-11,-8,-1
1511885884494821,-4,-1,0,0,-5,-3,3,-4
1511885884514874,0,-3,-2,-3,0,13,-4,-1
1511885884514874,-1,0,0,-1,-5,16,-5,-1
1511885884516880,-2,-4,-4,-4,-3,21,0,-4
1511885884516880,-2,-3,0,-2,-7,22,-17,-3
1511885884529942,1,-2,-2,-2,-1,23,-3,-2
1511885884529942,-3,-2,-3,0,-3,-1,-8,-2
1511885884535930,-4,-1,-1,-4,-5,2,-4,-1
1511885884535930,0,0,0,0,2,0,5,-1
1511885884553088,1,-2,1,-1,5,-4,-4,0
1511885884553088,-5,-1,0,-3,-3,-13,3,-1
1511885884554088,1,2,2,1,3,-11,-3,1
1511885884554088,-4,0,-1,1,0,-10,2,-3
1511885884575194,4,0,1,-1,0,-7,0,2
1511885884575194,0,-1,2,3,1,-6,4,0
1511885884577040,1,0,-1,-3,-2,-5,0,1
1511885884577040,0,0,-5,-1,-1,-3,-3,0
1511885884590192,-4,1,1,1,-1,-1,1,-2
1511885884590192,0,-1,-2,-3,1,1,-4,-1
1511885884596115,1,0,0,1,-1,-3,-3,-2
1511885884596115,-1,0,5,-6,-2,0,1,-1
1511885884613136,0,-1,-13,-1,0,1,-1,0
1511885884613136,13,37,7,2,-1,-3,0,2
1511885884614140,-4,-13,24,15,2,-8,-3,0
1511885884614140,-22,-44,-20,4,0,-3,3,-5
1511885884635197,-2,1,-3,-8,-6,-7,-1,-5
1511885884635197,-3,-6,-21,-8,-3,-10,-1,-2
1511885884637203,7,21,-4,-9,-2,-7,0,-2
1511885884637203,10,22,29,7,3,3,1,3
1511885884649235,-4,-15,-10,-3,-2,4,-3,0
1511885884649235,-1,2,10,8,-3,-4,-2,0
1511885884658256,-1,0,-5,-4,-1,-2,-2,-1
1511885884658256,-2,-2,10,-3,-4,-2,-2,1
1511885884673361,1,4,-11,-1,-2,-2,-2,0
1511885884673361,-1,-3,-13,-6,0,-3,1,-1
1511885884674299,-3,-9,11,4,1,-1,-1,-2
1511885884674299,2,0,-4,-12,1,1,1,1
1511885884695472,8,18,-20,0,-1,0,1,2
1511885884695472,-7,-9,21,4,-3,-2,-4,-1
1511885884696357,-9,-33,-21,-2,2,6,-3,-2
1511885884696357,-3,1,-26,-24,-5,2,-2,-4
1511885884709394,0,-5,7,-4,-7,6,-2,-3
1511885884709394,6,13,32,19,6,4,-1,2
1511885884717417,2,-2,-12,2,-1,5,-2,3
1511885884717417,-2,1,-4,2,4,8,-2,-1
1511885884732456,-7,-8,-11,-4,3,6,0,-3
1511885884732456,-2,-4,-1,-15,-5,3,-4,-3
1511885884734458,2,12,6,6,1,2,-3,0
1511885884734458,7,14,-3,2,-1,-3,0,4
1511885884755518,1,-7,11,2,2,-4,1,1
1511885884755518,-8,-16,-2,6,-3,-3,0,-2
1511885884756522,-2,18,-4,-11,-2,-2,0,-3
1511885884756522,5,-5,5,3,-1,-2,0,0
1511885884768552,-10,-1,15,13,-2,-4,1,1
1511885884768552,-2,5,-2,-6,2,-5,0,-2
1511885884777706,0,-14,-6,7,-2,-7,-1,-2
1511885884777706,0,4,-39,-17,0,-5,1,1
1511885884792746,5,9,30,9,-4,-13,0,0
1511885884792746,5,11,-4,-2,2,0,3,2
1511885884794751,-5,-15,1,-7,-3,4,0,-1
1511885884794751,-8,-8,-29,-2,0,-8,0,-4
1511885884814808,2,14,-6,-11,0,-6,-3,-1
1511885884814808,-3,-24,-13,-3,1,-5,-1,1
1511885884816810,4,18,16,-2,-3,-3,-1,0
1511885884816810,1,-10,18,13,2,1,-2,-1
1511885884828949,-4,-8,-31,-10,-1,-4,5,-2
1511885884828949,5,9,16,1,-3,-6,-3,-2
1511885884837867,-1,15,-11,6,3,-10,2,0
1511885884837867,3,-9,2,-2,-1,-3,0,3
1511885884852910,11,28,28,2,5,4,0,5
1511885884852910,-8,-16,14,1,-1,-1,2,-3
1511885884854031,-12,-11,-49,-14,-2,-5,0,-3
1511885884854031,2,5,33,10,-4,-10,-2,-4
1511885884875165,6,-11,-30,-3,2,-1,-1,-1
1511885884875165,-9,-28,0,-8,0,-5,4,1
1511885884876971,5,19,15,0,-4,-12,-3,-2
1511885884876971,-5,7,6,2,4,-10,3,1
1511885884889200,0,9,24,8,-4,-7,0,0
1511885884889200,6,12,-19,-7,0,-2,0,3
1511885884898027,-10,-32,2,12,0,-4,1,0
1511885884898027,0,-2,-20,-7,-1,4,-1,-1
1511885884913066,-1,-3,20,5,-2,10,-3,0
1511885884913066,1,9,-12,-7,-1,27,-4,-1
1511885884914069,1,-9,-7,-2,0,22,-7,-3
1511885884914069,-1,0,16,2,-2,30,-6,-2
1511885884935128,-6,-9,-20,-6,-1,19,-8,-7
1511885884935128,11,42,7,2,-4,3,-4,1
1511885884937134,1,-44,-3,-2,2,9,2,-2
1511885884937134,-12,-11,-8,-6,-3,-4,-1,-3
1511885884949165,4,9,-19,-11,-2,-15,-2,-1
1511885884949165,-6,-11,5,6,-3,-12,-1,-4
1511885884965205,6,9,-17,-13,-1,-17,1,1
1511885884965205,4,10,8,14,1,16,2,3
1511885884973360,-5,-4,25,6,3,-2,3,1
1511885884973360,3,0,-26,0,3,1,-1,2
1511885884974230,4,25,27,-6,-2,3,2,4
1511885884974230,-1,-4,2,7,3,-3,-2,0
1511885884995303,-8,-11,-16,2,-8,-8,-4,-2
1511885884995303,-7,-20,-11,-5,-1,5,-2,-5
1511885884997292,-5,-1,-6,-28,-4,-6,0,0
1511885884997292,8,25,34,31,0,-10,2,2
1511885885009322,7,25,19,6,4,-3,5,3
1511885885009322,-5,-40,-9,9,1,-13,0,1
1511885885018350,-15,-19,-21,-8,-4,-10,-2,-5
1511885885018350,1,13,-5,-20,-4,-6,0,-6
1511885885032387,0,-2,3,0,-1,-8,1,0
1511885885032387,4,10,-4,-3,0,-2,1,-1
1511885885034389,7,18,20,-6,-1,-16,-3,0
1511885885034389,1,-6,4,27,1,10,-1,2
1511885885055444,-6,-14,-20,-19,0,2,6,-1
1511885885055444,2,7,8,4,-1,0,2,1
1511885885056451,1,2,1,-4,-2,0,0,1
1511885885056451,-1,0,11,16,5,-14,-2,-1
1511885885068480,-2,-6,4,5,1,0,-3,-1
1511885885068480,-2,-2,-7,-7,-2,0,0,0
1511885885077507,1,5,4,5,-2,6,1,-1
1511885885077507,0,-2,-7,-18,-3,-4,0,1
1511885885092545,0,-9,-2,3,-1,5,-2,-1
1511885885092545,-2,-1,-6,2,-3,-7,-3,-3
1511885885094573,1,5,6,12,4,1,2,-1
1511885885094573,0,-4,-9,-14,-2,-1,-8,1
1511885885115608,-2,-7,-3,-4,1,5,0,0
1511885885115608,-6,3,3,-5,-3,-6,3,-2
1511885885116608,4,3,2,8,0,8,-4,-2
1511885885116608,0,-4,-8,-10,-3,0,0,-1
1511885885128645,-3,-4,1,1,3,-10,-15,-2
1511885885128645,1,2,4,5,3,1,12,1
1511885885137664,0,2,1,5,1,2,0,0
1511885885137664,-3,-5,-9,-8,-3,-23,4,-1
1511885885152703,0,-2,3,2,9,20,2,1
1511885885152703,-2,2,-2,-3,0,5,3,0
1511885885154712,-1,-2,0,-5,-2,-4,-18,-4
1511885885154712,0,-1,-2,-2,-7,-3,1,0
1511885885174766,-2,-5,-2,1,1,-10,3,0
1511885885174766,0,-1,-2,-1,-6,-2,-8,-4
1511885885176768,0,3,0,3,16,12,22,8
1511885885176768,0,-2,-3,-6,-4,-5,-1,-2
1511885885188802,-3,-1,-1,3,-17,-6,-3,-2
1511885885188802,0,-3,-2,-6,-3,16,9,1
1511885885197824,-1,3,3,9,5,1,-2,-1
1511885885197824,0,-3,-4,-6,-6,12,-3,-1
1511885885212866,-1,-3,-1,-1,-1,-4,5,0
1511885885212866,1,-2,1,2,3,-2,-7,-1
1511885885213866,-1,0,-2,3,-2,-6,1,-2
1511885885213866,-1,-2,-1,1,12,-1,8,1
1511885885234925,-10,-3,-2,-4,-7,-1,-12,-2
1511885885234925,5,1,0,1,6,1,-5,-1
1511885885236927,-2,0,0,-3,-33,-13,-14,-5
1511885885236927,1,1,-2,-1,5,0,-1,-2
1511885885248959,0,-1,1,5,5,-5,-10,-2
1511885885248959,-4,-2,-3,-6,-10,8,-5,-3
1511885885258121,0,0,-3,2,8,19,5,2
1511885885258121,-2,-3,-1,1,-8,9,22,-2
1511885885272250,2,-1,1,2,23,8,-16,-2
1511885885272250,-2,-1,-1,-2,-1,11,3,2
1511885885279161,4,0,1,1,-19,-5,-31,0
1511885885279161,-3,0,-1,0,4,14,72,3
1511885885295247,2,1,0,1,6,10,10,-2
1511885885295247,-1,0,-2,0,-2,-9,-6,0
1511885885297202,-1,0,-1,0,-13,-39,-9,0
1511885885297202,0,-1,-3,-2,-1,-7,-10,-2
1511885885309273,0,-2,-3,-6,-12,-16,-6,0
1511885885309273,-1,1,-2,0,2,-18,1,1
1511885885318256,0,-1,-1,0,-3,2,1,1
1511885885318256,0,-2,2,2,-3,6,-16,0
1511885885332421,0,-3,-2,-7,-10,-6,13,0
1511885885332421,0,-1,1,-2,6,-7,-16,-2
1511885885339316,-2,-2,-1,2,7,4,4,0
1511885885339316,-1,-1,-2,-4,-21,-20,-22,-2
1511885885355358,-2,-2,-4,-10,-20,-18,12,0
1511885885355358,-1,-1,2,8,5,28,-39,-3
1511885885357360,-1,0,-2,-4,25,2,26,-2
1511885885357360,0,1,1,1,12,8,-22,0
1511885885377417,1,0,-1,4,1,-1,15,0
1511885885377417,-1,0,-1,-1,28,22,-16,-1
1511885885379418,0,-1,-1,-4,0,6,8,0
1511885885379418,-2,-2,0,1,14,-7,-32,-1
1511885885392453,0,0,1,-5,-34,-9,10,-3
1511885885392453,-1,-1,-2,-2,-28,-16,13,0
1511885885398473,0,1,1,5,71,17,5,2
1511885885398473,-1,-1,-3,-6,-29,-2,5,1
1511885885415708,-2,-2,0,3,10,3,-15,-2
1511885885415708,1,0,-1,-4,-18,-16,-15,2
1511885885416625,-1,-1,1,-1,-14,10,18,-1
1511885885416625,2,1,-1,1,8,0,-17,1
1511885885437577,3,-1,-2,-3,6,3,-4,-1
1511885885437577,-1,0,-1,-2,-10,-5,17,-2
1511885885439583,-3,-2,0,1,-7,-8,-10,-1
1511885885439583,-2,-1,0,1,12,6,13,-2
1511885885451803,-2,0,2,2,5,3,-6,1
1511885885451803,9,-1,-2,-3,-4,-38,16,1
1511885885458630,2,-1,-1,0,-16,-4,-42,-1
1511885885458630,-4,-3,-5,-2,-18,-16,26,-6
1511885885475674,-2,1,-1,0,13,-1,-7,0
1511885885475674,-2,0,1,4,-10,-20,17,-1
1511885885476677,-2,3,-1,-1,-27,8,-12,2
1511885885476677,3,1,1,-1,4,-6,-15,3
1511885885497771,-6,0,1,2,7,20,-2,0
1511885885497771,0,-1,-1,-2,20,-1,-4,-2
1511885885499741,-1,-2,-6,-2,-7,-7,21,-3
1511885885499741,-3,-1,-1,-1,1,4,-14,-3
1511885885511773,0,-2,-1,-1,0,6,6,-2
1511885885511773,-2,0,2,-2,-3,4,0,1
1511885885518791,4,0,1,1,-5,-6,6,1
1511885885518791,0,1,-2,0,1,10,-9,-1
1511885885534929,-4,-3,-2,-1,1,10,19,2
1511885885534929,-1,0,-2,-1,-1,0,18,-2
1511885885536931,2,0,-1,-1,0,5,-32,-3
1511885885536931,-8,-6,-1,0,7,-2,4,-3
1511885885557989,4,2,2,1,-4,8,0,0
1511885885557989,-16,0,1,-2,-4,17,-4,-1
1511885885558989,-5,-4,-4,-3,-3,-13,3,-5
1511885885558989,4,-1,-1,-4,-4,-29,-6,0
1511885885572024,-4,-2,-2,1,-3,27,-12,0
1511885885572024,3,2,0,-3,-19,4,7,-3
1511885885579140,1,1,2,1,10,3,2,1
1511885885579140,-4,-2,2,4,5,9,0,2
1511885885595088,7,-1,0,0,8,-6,3,0
1511885885595088,0,0,1,-1,8,-11,-37,-1
1511885885597090,-2,-2,-4,-4,-10,1,28,-2
1511885885597090,3,0,0,-1,5,11,5,3
1511885885618151,-8,-1,-1,-1,-2,-11,16,-2
1511885885618151,6,-2,-2,2,1,11,-60,3
1511885885619150,-3,-1,1,-2,20,-10,4,-4
1511885885619150,2,0,-3,-4,-18,-9,-5,-3
1511885885631188,2,4,3,8,11,34,7,2
1511885885631188,-4,-2,-1,-1,4,5,12,-2
1511885885640240,3,-1,2,1,-2,6,-3,3
1511885885640240,-2,-2,-5,-7,-21,1,-9,-1
1511885885655292,-6,-4,-5,-4,30,4,-4,-4
1511885885655292,7,1,2,-2,-23,7,17,1
1511885885657257,2,2,1,0,0,4,24,2
1511885885657257,-1,-4,0,-1,0,4,1,0
1511885885677307,2,-2,0,-2,-17,-27,-19,1
1511885885677307,-3,-2,-5,-8,-7,-10,22,-2
1511885885679308,-14,0,1,1,1,-9,-6,-2
1511885885679308,3,2,8,6,-43,5,13,-2
1511885885691466,3,1,0,-1,18,-4,-21,3
1511885885691466,-4,-1,-1,0,5,19,54,3
1511885885700366,5,3,6,-8,-15,5,-9,-1
1511885885700366,-1,-1,-5,6,5,12,4,0
1511885885715407,-1,1,12,10,-9,-17,6,-2
1511885885715407,-1,-5,6,-4,-3,6,-10,-3
1511885885716410,0,-4,-28,3,2,-12,-5,-2
1511885885716410,0,2,-2,-14,32,29,5,0
1511885885737505,4,3,3,-3,-26,-10,-7,1
1511885885737505,3,16,10,1,8,-9,-11,-1
1511885885739470,-6,-20,1,2,-1,-5,18,-2
1511885885739470,-7,-13,1,-4,1,-10,-21,-1
1511885885751548,3,11,19,-1,6,-1,3,0
1511885885751548,1,7,-34,7,9,3,4,-2
1511885885760615,2,-1,38,10,-16,8,-2,3
1511885885760615,-2,-10,-52,-14,10,-6,-1,-1
1511885885775719,-1,-7,9,-1,9,-11,-2,-3
1511885885775719,1,5,13,4,-61,13,-1,-1
1511885885776657,8,6,-10,-1,49,1,-8,-3
1511885885776657,2,1,25,11,21,-5,-3,1
1511885885797713,-9,-2,-1,-5,-21,6,7,-1
1511885885797713,-3,-8,-29,-3,-13,-18,-19,-1
1511885885799721,-2,1,4,-3,12,5,-5,-1
1511885885799721,1,4,12,0,2,-3,4,0
1511885885811937,1,0,-20,-7,-17,-12,2,-3
1511885885811937,-2,-7,12,-4,8,-14,2,-2
1511885885820879,-6,-4,-7,-2,-10,15,-4,-1
1511885885820879,3,5,-5,0,1,-6,2,-2
1511885885834814,-2,-5,-3,3,-10,3,-3,-1
1511885885834814,-2,-7,10,1,13,-3,-14,1
1511885885836816,-2,2,-3,0,-17,-11,17,-2
1511885885836816,-1,6,7,7,9,-14,-7,-4
1511885885857877,2,-2,-16,-11,-12,42,2,3
1511885885857877,-9,-8,-1,-3,6,-18,-3,-2
1511885885859038,2,4,-2,-2,-37,-3,-27,-1
1511885885859038,1,1,2,-2,-3,15,14,-2
1511885885870910,3,-2,-2,2,6,-11,6,1
1511885885870910,-11,-2,-2,-4,20,-4,-1,-3
1511885885880080,2,0,-1,-1,-25,3,-5,2
1511885885880080,-2,0,4,0,-13,-4,-3,2
1511885885895118,-2,0,-3,0,5,-5,-2,-2
1511885885895118,0,-1,1,1,-4,9,28,1
1511885885897105,0,-1,-2,-3,5,-7,-3,-1
1511885885897105,-2,-1,-2,-1,0,0,-1,1
1511885885918157,-1,0,-3,-2,20,-4,1,-4
1511885885918157,1,-2,2,0,-8,-13,-5,-3
1511885885919159,-3,-1,-2,-10,-18,18,4,0
1511885885919159,0,0,-8,14,39,8,-1,1
1511885885931257,0,-1,9,4,-14,-3,-5,3
1511885885931257,3,1,9,6,17,-4,5,-1
1511885885940281,-2,-2,-14,-2,20,14,-3,0
1511885885940281,0,2,5,-3,-96,-14,-3,-1
1511885885955441,2,-3,-4,-3,71,-8,-7,-2
1511885885955441,3,1,4,-6,6,-1,-5,0
1511885885957369,0,-1,-16,-3,-33,-1,1,-2
1511885885957369,-2,-5,-1,-3,-4,-12,-10,0
1511885885977418,-1,-4,2,5,-29,-3,6,-1
1511885885977418,-2,1,1,-5,-11,-10,-6,-1
1511885885979416,-2,2,6,7,57,17,7,0
1511885885979416,1,3,6,-1,-24,-6,-12,2
1511885885991457,1,-2,0,-1,-19,-8,1,-2
1511885885991457,-1,-4,-13,4,39,4,4,0
1511885886000441,-2,-1,6,-11,-79,-38,-13,-2
1511885886000441,1,-1,-7,1,40,25,14,1
1511885886015520,-3,0,9,-5,-67,-14,-19,-5
1511885886015520,1,-1,-1,3,15,22,13,1
1511885886016485,-1,0,-1,3,20,-6,-2,-1
1511885886016485,-2,0,4,-4,-4,-9,-5,-4
1511885886037580,-2,-2,-10,-5,-11,-6,0,2
1511885886037580,2,-1,-3,5,8,15,2,2
1511885886039572,3,1,6,1,-22,-24,-8,1
1511885886039572,-5,0,3,-7,-2,10,19,-2
1511885886051576,2,-3,-6,1,15,5,0,1
1511885886051576,-3,-3,-2,-4,13,1,-25,-4
1511885886060599,0,0,3,1,51,3,2,-3
1511885886060599,8,-4,-6,-3,-38,0,7,-3
1511885886074763,-5,-1,-3,4,21,-8,1,1
1511885886074763,4,1,2,-3,3,0,3,1
1511885886081660,-3,0,0,4,27,15,2,-3
1511885886081660,-1,0,2,4,26,-4,-16,6
1511885886097702,0,-1,-1,0,14,4,-1,-2
1511885886097702,-1,-4,-2,-8,-36,-22,-1,-3
1511885886099707,1,0,-4,-9,-59,0,-4,0
1511885886099707,-2,-1,0,4,48,-13,-1,0
1511885886111934,-1,1,4,-3,-4,-5,0,-1
1511885886111934,1,-3,-17,-3,-21,-2,-4,0
1511885886120757,-1,-1,-1,-3,-1,-4,0,1
1511885886120757,-3,2,3,-3,4,7,12,-1
1511885886135017,0,0,15,14,-11,6,-2,0
1511885886135017,-3,-2,-5,0,15,-4,-2,-2
1511885886136965,-1,3,23,0,9,4,0,-1
1511885886136965,0,-5,-26,-8,46,-1,-3,0
1511885886158196,0,4,3,4,-40,-2,0,-1
1511885886158196,1,0,5,0,49,-5,1,0
1511885886159202,1,-1,-3,1,8,-7,4,0
1511885886159202,1,6,14,3,-4,4,-21,-1
1511885886171235,0,1,-6,-2,2,0,3,-2
1511885886171235,-3,-1,-1,-2,-13,10,-5,-2
1511885886180257,-2,-1,2,2,-16,11,3,0
1511885886180257,-1,-2,-6,-6,19,1,2,-1
1511885886195469,0,4,2,-7,7,3,-2,3
1511885886195469,1,-1,-18,10,-3,-9,3,-2
1511885886196318,2,-1,-16,-4,-9,-10,-3,0
1511885886196318,-1,-3,2,3,-25,-3,-1,-2
1511885886217398,-1,-1,-1,-2,6,-5,1,-1
1511885886217398,1,9,37,-2,36,33,7,2
1511885886219364,-4,-11,-44,-3,-66,-12,0,-1
1511885886219364,-1,0,9,6,-1,-21,-8,-1
1511885886231396,0,0,-9,-7,2,-2,-2,-2
1511885886231396,5,-1,5,-2,-14,-11,-3,2
1511885886240562,-1,6,14,6,22,-2,-2,-1
1511885886240562,3,-1,-6,-7,-14,5,4,-1
1511885886254618,-2,-5,-5,2,53,0,-14,-1
1511885886254618,-6,-1,-2,2,-33,-11,-10,-3
1511885886268613,4,0,16,-1,30,0,4,2
1511885886268613,1,1,-11,0,3,14,5,1
1511885886277856,-1,-1,-1,-4,-16,-1,11,0
1511885886277856,-3,-8,-13,-6,-9,2,-25,-4
1511885886279788,-4,4,15,1,-1,-1,0,1
1511885886279788,-6,-5,-1,2,-6,-6,1,-3
1511885886299911,-3,-6,-17,-6,-15,-2,0,-1
1511885886299911,0,3,2,-6,-46,-13,3,-1
1511885886301800,0,-1,2,0,6,15,-2,0
1511885886301800,0,-5,-32,-12,-17,7,-1,1
1511885886315032,-3,-3,14,17,49,14,2,-2
1511885886315032,-1,-2,11,2,-42,-5,7,0
1511885886321857,-3,-1,2,6,48,-7,-7,0
1511885886321857,3,6,4,-1,-20,-6,0,0
1511885886337899,-2,1,-4,2,10,7,0,1
1511885886337899,1,1,-1,-1,20,-12,2,1
1511885886338903,0,0,2,2,16,27,3,0
1511885886338903,1,-4,7,13,12,-2,-1,-2
1511885886360146,-5,-3,-8,-3,-12,-7,-1,-3
1511885886360146,-4,-10,-11,-6,-5,3,2,-1
1511885886361961,-4,1,0,3,1,-4,1,-5
1511885886361961,1,8,6,-3,-88,-4,1,2
1511885886375125,-2,-8,-6,-9,11,0,-4,0
1511885886375125,3,9,2,4,-21,2,4,0
1511885886381014,2,-3,7,0,-13,-11,0,-1
1511885886381014,0,8,-3,-3,-1,15,-1,-2
1511885886398060,-1,-9,2,0,-9,-9,-1,0
1511885886398060,-4,-9,-13,-5,-1,-1,1,-2
1511885886399059,7,27,18,-1,33,-2,-1,3
1511885886399059,-4,-8,-5,-6,15,-5,-5,-1
1511885886420118,-6,-27,-22,8,-18,7,3,0
1511885886420118,-8,-5,-6,-9,38,-5,-2,-4
1511885886422123,1,5,4,-6,-55,-6,-1,-2
1511885886422123,4,2,5,3,39,3,2,2
1511885886434156,2,11,20,8,-12,6,0,1
1511885886434156,-1,-7,-17,-4,-2,5,2,-1
1511885886441353,-4,-17,-44,-7,42,-6,-2,-4
1511885886441353,-3,4,32,7,18,-11,-3,-3
1511885886458323,3,5,-12,-19,12,2,2,-1
1511885886458323,4,5,23,18,-39,0,2,3
1511885886459219,0,16,-19,-7,-14,7,2,2
1511885886459219,-3,-25,-2,-8,-47,-6,-1,0
1511885886480305,0,-5,1,1,17,-9,-3,-1
1511885886480305,4,16,1,-6,5,23,0,1
1511885886482283,-5,-17,5,11,4,-5,2,0
1511885886482283,-8,-5,-5,-8,-3,-5,-3,-3
1511885886494487,5,17,14,5,-20,-6,-4,-1
1511885886494487,-1,-3,5,1,6,-8,-1,1
1511885886501334,-1,-13,-12,1,-12,-1,-3,-2
1511885886501334,2,1,-19,2,24,4,1,0
1511885886517376,-1,0,-12,-17,-11,-8,-3,0
1511885886517376,9,13,17,9,15,-5,0,1
1511885886519378,-2,1,13,-6,2,2,0,0
1511885886519378,-14,-16,-3,11,-1,-2,-1,-3
1511885886540675,0,-1,-12,-1,13,6,-1,-4
1511885886540675,0,1,-2,5,-3,2,1,0
1511885886541545,2,5,8,-1,-2,-3,-1,1
1511885886541545,1,3,8,1,5,4,-1,-1
1511885886553697,-1,0,-3,-3,-18,-5,-2,1
1511885886553697,-3,0,3,-1,10,3,-1,-1
1511885886562788,-2,-5,-5,0,1,-9,-2,-1
1511885886562788,-1,-2,0,-3,13,-3,-3,-1
1511885886577863,-1,-2,-1,-3,-18,-17,-5,-3
1511885886577863,0,-1,-4,6,29,25,5,2
1511885886579835,0,1,3,-1,-36,-7,4,-1
1511885886579835,0,3,-4,-8,81,9,-9,-1
1511885886599882,2,5,14,15,7,11,9,2
1511885886599882,-1,-5,-6,-1,-40,-12,-15,0
1511885886601884,-3,-6,-5,-9,-21,1,-1,-2
1511885886601884,1,6,8,2,-17,-6,6,0
1511885886614043,-2,-1,-2,-6,-4,10,1,1
1511885886614043,-1,-4,-5,5,16,-11,-12,-2
1511885886622942,-3,-5,-2,11,1,0,3,-4
1511885886622942,1,3,-1,-6,-13,-5,-6,-2
1511885886638144,-1,1,3,-4,-20,5,-4,-2
1511885886638144,-4,-5,-2,-10,-15,-1,18,-2
1511885886639092,-1,-5,0,-4,18,0,-4,-1
1511885886639092,-1,3,5,10,-7,-13,-22,1
1511885886660139,-1,0,-2,-4,-19,-4,2,1
1511885886660139,-2,-2,0,-3,9,-3,20,-4
1511885886662046,1,-1,-4,-3,10,8,-27,2
1511885886662046,3,3,2,6,4,8,11,0
1511885886674079,-2,-2,1,-3,-10,-10,-5,0
1511885886674079,-1,-1,-2,-4,-7,-12,1,-1
1511885886683100,0,-1,0,2,3,-2,14,-1
1511885886683100,-2,0,-3,-8,-12,-12,-17,-2
1511885886698142,-1,2,6,8,1,-5,-4,-1
1511885886698142,0,-2,-3,-1,12,2,-23,1
1511885886699149,-3,-2,-4,-8,-21,-18,6,-6
1511885886699149,0,-1,2,-4,12,-17,8,-1
1511885886720202,1,0,-6,-3,-25,19,5,0
1511885886720202,-1,1,1,5,2,-2,-4,-2
1511885886722324,1,-2,0,3,1,10,-5,2
1511885886722324,-1,1,-3,2,-9,-2,-16,1
1511885886733360,0,0,1,-6,24,-7,11,-3
1511885886733360,1,-2,-3,-5,-31,4,4,0
1511885886743386,0,1,0,-1,-8,-3,-5,0
1511885886743386,-3,0,0,-2,12,8,30,0
1511885886757425,0,0,-1,0,-6,-5,-1,-1
1511885886757425,-2,-4,-1,-4,2,-2,-19,-5
1511885886759427,-1,-1,1,4,10,1,11,1
1511885886759427,-1,-2,-1,-2,-11,11,1,-1
1511885886779524,0,0,-1,2,39,-13,-19,0
1511885886779524,0,0,-1,-2,-7,-1,46,1
1511885886780482,-2,-1,-2,-3,-20,-16,-8,-3
1511885886780482,3,1,-2,-5,-10,8,-11,2
1511885886802564,0,-1,2,5,6,-4,-22,-2
1511885886802564,-1,1,1,1,3,8,-15,1
1511885886802564,-1,-2,-1,0,-7,-9,-10,-2
1511885886802564,0,1,-2,-4,8,-12,-5,-2
1511885886816694,-4,-3,-3,-7,-29,-6,20,-1
1511885886816694,-3,-2,0,-1,3,1,-4,1
1511885886824699,-1,1,-1,1,12,3,-6,2
1511885886824699,1,0,3,5,18,26,-4,0
1511885886839684,-1,0,-2,3,6,-3,-11,-1
1511885886839684,-4,0,0,-5,-1,-29,-8,-4
1511885886840648,6,0,0,0,7,8,-8,3
1511885886840648,0,0,-1,3,-18,8,39,-3
1511885886861743,11,0,0,-1,4,4,-5,2
1511885886861743,-7,1,-1,3,28,17,20,5
1511885886862701,-2,0,-2,1,8,-2,-21,-1
1511885886862701,-1,-1,-3,-12,-7,-15,-8,-2
1511885886878745,3,-1,3,7,-16,7,3,2
1511885886878745,-2,-3,-2,0,3,2,-34,-3
1511885886879749,-2,-2,-3,-3,7,12,82,-2
1511885886879749,-1,0,0,0,-8,-11,6,3
1511885886899801,-3,-1,-4,-8,-12,-21,-20,-1
1511885886899801,0,-2,0,-1,17,21,-20,-2
1511885886900810,-2,2,2,-1,-14,-6,-26,-1
1511885886900810,-6,-3,-2,-1,-7,-5,-25,2
1511885886921984,-4,-1,0,-4,6,2,6,3
1511885886921984,4,0,-1,0,-2,20,11,0
1511885886922863,-2,-3,-1,-2,-20,17,-14,-4
1511885886922863,10,1,1,4,15,6,7,9
1511885886937020,-2,0,2,-1,-3,-4,-12,-3
1511885886937020,-3,-2,-1,-4,-17,-41,7,-2
1511885886937904,-2,-3,-1,-2,29,-4,-18,1
1511885886937904,0,0,-3,-4,-30,11,1,-4
1511885886960041,-4,-1,0,1,10,12,22,-1
1511885886960041,4,1,1,1,-6,-2,-1,2
1511885886960974,1,0,-2,-2,11,8,11,-1
1511885886960974,-1,0,-2,2,-2,-6,-13,-1
1511885886982024,-8,-1,-3,-1,5,-5,9,-6
1511885886982024,-3,-2,1,-2,-1,4,28,-1
1511885886983022,-1,-2,-1,-3,-15,-17,-11,-11
1511885886983022,4,-3,-2,-1,37,-4,-36,-1
1511885886997060,-4,-2,0,-6,-52,-22,13,-3
1511885886997060,4,-2,-1,0,12,2,-16,2
1511885886998063,-10,0,1,1,-7,-32,0,-6
1511885886998063,2,0,0,-1,-16,-9,6,11
1511885887019210,2,-2,-1,1,20,13,-1,-7
1511885887019210,-3,0,-1,0,-2,-6,3,-2
1511885887020175,4,-1,-1,1,-3,1,-2,-1
1511885887020175,0,-2,-2,0,5,7,13,4
1511885887042229,5,-1,-1,1,1,-12,6,4
1511885887042229,0,0,-4,-3,-8,10,-31,0
1511885887043237,0,-3,-1,-1,2,10,-4,7
1511885887043237,-5,2,2,-1,2,-21,-2,-10
1511885887057272,2,0,2,5,24,18,-9,0
1511885887057272,1,-2,-4,-5,-29,-13,13,-8
1511885887058299,14,3,1,-1,-15,-24,-5,7
1511885887058299,-21,-4,-2,0,-18,-23,8,-5
1511885887079369,0,0,1,3,18,0,3,-2
1511885887079369,-5,-1,-1,1,22,-5,-22,0
1511885887080347,9,0,-2,0,-30,7,-6,0
1511885887080347,-18,1,1,3,14,12,16,-3
1511885887102460,-2,0,-1,-3,-1,7,-2,0
1511885887102460,-1,0,0,-8,-10,-23,4,-2
1511885887102460,-2,2,2,10,12,35,10,-2
1511885887102460,4,-4,-2,-2,-4,3,-1,-8
1511885887117515,-6,-1,0,-2,-16,-1,-5,-4
1511885887117515,1,-1,-6,1,49,27,11,2
1511885887117515,-5,-1,1,-4,25,-5,-29,2
1511885887117515,9,4,4,1,-28,16,-5,1
1511885887139561,-1,-1,-7,-5,15,1,-5,-1
1511885887139561,-5,-2,-1,4,2,9,6,-4
1511885887140564,-6,-1,1,-3,2,1,13,-1
1511885887140564,2,-2,0,0,8,9,17,2
1511885887162624,20,3,1,1,4,-12,17,1
1511885887162624,-4,2,-3,-5,-1,39,-19,-3
1511885887162624,-4,-2,0,4,7,-35,-5,-2
1511885887162624,-11,-1,4,-5,-82,22,-3,0
1511885887176683,8,-1,-8,2,74,1,2,4
1511885887176683,1,4,23,-6,4,-11,-1,0
1511885887177664,-3,-15,-53,0,3,8,14,-1
1511885887177664,7,3,15,10,-2,-3,-8,-1
1511885887199717,-2,1,-5,2,-15,-1,-7,-1
1511885887199717,-1,-1,13,1,-11,-16,5,0
1511885887200724,-3,6,17,-2,13,15,-4,0
1511885887200724,5,-3,-6,6,34,22,6,-2
1511885887221961,-10,-3,-4,-12,-34,9,-2,-2
1511885887221961,2,0,-4,3,-6,-20,6,2
1511885887222780,5,0,7,-4,-22,2,8,-1
1511885887222780,3,-1,-6,-3,-7,8,-11,-3
1511885887238822,-3,3,13,5,60,3,6,1
1511885887238822,1,-2,-13,-2,-7,-3,0,3
1511885887239881,-2,0,7,3,23,12,-2,0
1511885887239881,-2,0,1,-10,15,-14,-13,-1
1511885887259987,1,-2,5,5,-8,-5,-4,-3
1511885887259987,1,-1,-7,1,-23,-31,-5,-2
1511885887259987,-2,7,20,-1,-29,33,2,1
1511885887259987,-2,-23,-80,-2,56,-8,-4,0
1511885887281937,1,2,6,-13,-36,-8,-2,-1
1511885887281937,1,1,0,-9,16,4,5,4
1511885887282939,2,6,31,16,-10,-21,0,-1
1511885887282939,0,6,18,-3,-6,7,5,0
1511885887297019,14,-5,-14,0,15,8,-12,1
1511885887297019,-3,-6,0,-1,-11,3,-4,-3
1511885887297979,0,2,-8,-5,15,-13,1,0
1511885887297979,-4,4,14,2,-39,1,14,0
1511885887320065,-2,0,-6,4,9,5,-2,1
1511885887320065,2,4,7,1,-11,-5,-23,1
1511885887320065,-3,-8,-11,-4,4,-2,4,-4
1511885887320065,2,1,-6,5,42,-7,9,-4
1511885887342099,-11,1,22,-2,-28,-1,0,2
1511885887342099,2,-4,-3,-4,-10,5,5,0
1511885887343100,-2,5,-5,8,-5,0,-6,0
1511885887343100,-1,-11,-23,-5,41,-2,3,0
1511885887356138,-4,1,13,2,-15,-7,-1,-1
1511885887356138,-2,-2,-24,-8,-4,6,4,0
1511885887364160,-2,2,18,-1,-32,2,-1,-1
1511885887364160,0,6,23,0,55,-15,-7,-2
1511885887379241,-4,-3,-9,-1,-33,-21,-3,1
1511885887379241,2,-2,-1,4,12,7,4,-2
1511885887380202,0,-3,-10,-10,6,4,2,-2
1511885887380202,1,4,8,-4,-45,-5,-7,0
1511885887402382,-6,-2,-2,-2,-21,-6,-2,-3
1511885887402382,-1,1,1,-3,10,-2,4,-2
1511885887403324,-4,-6,-25,-2,2,-5,0,-2
1511885887403324,6,3,17,-2,-16,-8,-2,1
1511885887417299,5,-1,-5,-2,4,-6,0,1
1511885887417299,-4,-2,5,2,-20,7,1,1
1511885887418307,-2,-1,-19,-8,13,6,1,1
1511885887418307,-3,-2,17,4,-19,-1,-2,-4
1511885887439551,9,5,5,11,-7,0,7,0
1511885887439551,0,-3,-3,2,-6,-6,-12,-2
1511885887440359,0,-3,0,-9,-12,-1,6,-2
1511885887440359,-1,0,1,-3,-12,19,7,2
1511885887462602,-7,-2,-8,-7,13,16,2,-3
1511885887462602,-1,-5,0,1,-35,-27,1,-1
1511885887462602,-1,0,6,3,-4,-1,0,-1
1511885887462602,1,2,-4,-5,-12,-5,-1,-5
1511885887477510,-4,0,-1,1,-12,1,-2,0
1511885887477510,0,2,-5,0,9,11,6,1
1511885887477510,-1,-1,2,0,18,-1,-7,-4
1511885887477510,-2,0,-1,-1,-20,-12,-3,-1
1511885887499646,-3,-2,-6,-1,24,13,0,1
1511885887499646,0,2,4,6,16,-3,3,-1
1511885887500520,2,1,2,3,2,14,-10,1
1511885887500520,-1,0,-1,-4,-17,-4,-4,-1
1511885887521576,-2,2,4,4,5,8,1,-1
1511885887521576,-2,-2,-1,-2,-5,-3,-13,1
1511885887522575,-1,-1,-1,4,8,10,3,0
1511885887522575,0,-5,-4,-2,-1,0,4,1
1511885887536616,-3,-3,5,-3,22,-1,-5,-2
1511885887536616,0,0,5,2,0,4,6,-2
1511885887537616,1,2,0,-3,-1,-12,-2,0
1511885887537616,-1,-2,-2,3,-2,-7,-1,0
1511885887559859,-3,-4,-13,-8,-17,4,-2,-2
1511885887559859,-1,3,9,0,11,2,2,-1
1511885887560678,0,-4,5,-1,10,-9,-1,0
1511885887560678,1,4,3,-1,-6,2,-4,1
1511885887581734,-3,-6,-25,2,-6,-9,-3,-2
1511885887581734,0,0,2,-3,5,-2,3,0
1511885887582736,0,0,4,-2,6,4,0,1
1511885887582736,1,2,8,2,-4,-8,0,-2
1511885887596808,-1,2,13,3,-3,-2,0,0
1511885887596808,-1,-2,-12,-3,1,5,-1,-2
1511885887604798,-3,-1,3,0,-4,-9,2,-1
1511885887604798,-1,-4,-2,-2,4,4,-1,-1
1511885887628033,0,0,0,-2,-3,-1,-3,0
1511885887628033,-1,-1,-3,3,3,-1,1,1
1511885887629012,-1,0,-1,-5,-9,-11,-2,-2
1511885887629012,-2,1,-4,2,7,0,6,1
1511885887641949,0,1,1,-1,-6,1,-19,1
1511885887641949,1,0,0,2,4,1,1,0
1511885887642896,-1,-1,-4,-3,-4,3,0,1
1511885887642896,-2,-2,-10,-7,-11,-3,-1,0
1511885887656967,-1,0,14,1,-6,-10,4,-1
1511885887656967,1,-2,-14,3,5,3,-1,-1
1511885887664955,1,-2,3,-5,5,3,-1,0
1511885887664955,0,2,-5,2,7,1,-3,-2
1511885887680081,-1,0,1,-3,-3,1,3,0
1511885887680081,-2,0,5,0,-8,-1,-2,-1
1511885887680081,-1,0,-1,2,-1,-6,0,-1
1511885887680081,-1,1,-1,-2,2,6,0,0
1511885887702256,-1,0,0,-3,-2,-3,2,-2
1511885887702256,-3,0,-1,0,0,-1,0,-1
1511885887703349,-1,-4,-6,0,-3,-5,-2,0
1511885887703349,0,1,4,0,2,-2,-2,0
1511885887716389,-2,-1,-5,0,2,1,0,0
1511885887716389,-1,0,-1,0,1,-1,0,1
1511885887724596,-1,-2,-3,-3,-4,0,2,1
1511885887724596,1,1,2,4,1,-6,-4,-2
1511885887739631,-1,0,-3,0,0,1,2,-2
1511885887739631,-1,-1,0,-2,-3,0,0,-1
1511885887740451,0,1,0,-1,-3,-1,0,0
1511885887740451,-2,-2,0,1,-1,-3,-1,-2
1511885887762536,0,-1,-2,-5,-3,-2,0,0
1511885887762536,-2,-2,4,1,-1,0,1,1
1511885887762536,-2,1,-5,-1,2,1,-2,-2
1511885887762536,-2,-2,-1,-4,0,-2,-1,-1
1511885887777582,0,3,0,-1,1,-1,-1,-2
1511885887777582,1,-1,0,-2,-3,0,2,-2
1511885887784570,1,0,0,1,-1,0,7,-2
1511885887784570,-1,-1,-3,0,1,3,4,1
1511885887799613,0,0,-2,-3,1,2,-6,1
1511885887799613,-1,-1,-1,7,0,0,-2,-1
1511885887800615,-3,-2,1,-5,2,1,-1,-2
1511885887800615,3,1,1,13,-1,-2,5,-1
1511885887821707,-1,-3,-4,-7,3,0,3,-2
1511885887821707,0,-1,-1,-19,-15,-3,10,8
1511885887822669,1,1,1,-6,-1,-5,-30,-5
1511885887822669,-2,-3,-1,2,2,-1,12,-1
1511885887836839,-1,0,1,2,-2,0,4,2
1511885887836839,0,2,0,18,7,0,2,-3
1511885887844847,-2,0,2,6,1,-4,6,1
1511885887844847,0,0,-2,-12,-3,0,0,0
1511885887859894,-2,-1,-2,3,-1,1,0,-2
1511885887859894,-1,-1,-1,-4,2,0,23,1
1511885887860772,-2,-1,0,4,-4,5,-25,1
1511885887860772,0,-3,-3,-14,-5,-6,-7,-3
1511885887881880,-15,-1,-2,-3,-5,-9,-13,-4
1511885887881880,1,-1,3,4,4,2,28,-1
1511885887882828,3,1,-1,4,-1,1,-22,-1
1511885887882828,0,-1,2,18,6,2,-1,-1
1511885887896099,1,-4,-4,-19,-21,5,22,-4
1511885887896099,2,5,6,38,26,-1,-55,0
1511885887905009,0,-3,-1,-8,-8,-9,23,0
1511885887905009,2,1,-1,-4,-11,-6,-3,3
1511885887920032,3,0,0,13,17,2,-6,1
1511885887920032,-3,-2,-2,-22,-9,-2,-28,-5
1511885887920032,2,2,-1,0,4,5,20,-2
1511885887920032,-3,0,-2,-8,-3,-2,5,0
1511885887942092,0,-2,1,4,-4,2,-14,1
1511885887942092,1,0,-2,-8,-8,-4,-3,0
1511885887943094,0,-1,0,4,6,-1,-1,3
1511885887943094,-6,-3,-2,-7,-6,4,1,-3
1511885887956378,4,2,2,12,7,3,2,1
1511885887956378,0,-2,-3,-4,0,0,0,-1
1511885887964278,0,-2,-1,-6,0,1,15,0
1511885887964278,1,0,0,-2,1,4,-7,1
1511885887980395,0,-2,0,0,3,3,7,-1
1511885887980395,-1,-1,0,-6,-7,1,5,-3
1511885887981391,-2,-3,-4,2,-4,5,-12,-2
1511885887981391,-2,-1,0,-14,-3,5,-6,-3
1511885888002429,-1,0,-1,12,27,9,18,0
1511885888002429,0,-2,-7,-36,-24,0,-3,-3
1511885888002429,1,3,7,33,28,7,9,3
1511885888002429,4,3,-1,15,4,0,10,1
1511885888016467,1,0,2,9,-5,-10,-31,-2
1511885888016467,2,0,0,-6,-4,-6,9,0
1511885888024489,1,3,-3,-25,-12,-9,12,-1
1511885888024489,-2,-1,1,4,16,-12,-8,0
1511885888039531,-3,-1,-1,-8,-15,-18,2,-3
1511885888039531,0,1,0,3,3,-13,-9,7
1511885888040545,1,2,3,7,-5,-22,-34,-2
1511885888040545,2,2,1,-12,-4,-21,45,3
1511885888061590,2,2,-2,-14,-6,-20,21,-8
1511885888061590,3,5,4,11,13,-36,29,17
1511885888062589,-3,2,0,-5,-3,-36,-7,0
1511885888062589,0,-4,-1,15,7,45,-55,-1
1511885888076627,-4,-3,-5,-19,-11,21,-4,2
1511885888076627,-5,-6,-1,4,3,46,-12,-10
1511885888084652,-1,-5,-3,-2,-4,27,3,-3
1511885888084652,-3,-2,-1,-1,-4,-25,-3,-2
1511885888099689,1,7,3,-4,-3,-81,5,4
1511885888099689,-1,9,3,2,4,-118,15,2
1511885888100695,0,7,3,8,3,-78,20,10
1511885888100695,1,3,2,-6,0,-51,21,1
1511885888121930,1,6,1,0,-2,-34,3,5
1511885888121930,1,2,0,7,6,-26,2,-1
1511885888122751,-1,-5,-4,-5,-4,46,1,-5
1511885888122751,0,-7,-8,-5,-7,82,-22,-6
1511885888136788,1,-10,-2,4,0,124,-24,-3
1511885888136788,-2,-10,-6,-1,-5,124,-15,-9
1511885888144812,-2,-7,0,-2,0,74,-9,-4
1511885888144812,-3,-4,-1,-5,-5,4,-8,-4
1511885888159849,-5,-3,-3,-1,-6,-19,-8,0
1511885888159849,11,-4,-3,-6,-7,4,-11,-7
1511885888159849,-14,-5,-2,1,2,23,-1,1
1511885888159849,-4,-1,-2,0,-1,-9,-6,-6
1511885888181907,-19,-2,-1,-5,-2,-25,-9,-89
1511885888181907,4,4,2,2,-2,-22,-2,70
1511885888182910,38,2,-1,-5,0,25,15,51
1511885888182910,7,1,1,-3,-6,-5,1,19
1511885888205084,-8,-5,-1,-4,-2,4,-1,-1
1511885888205084,-25,-5,-3,-1,2,23,0,-60
1511885888205971,6,1,1,-1,2,-32,0,-6
1511885888205971,-4,3,0,0,0,-50,4,2
1511885888220012,8,6,7,6,3,-31,14,23
1511885888220012,1,2,-6,-3,-3,-41,0,-11
1511885888220012,-4,1,-2,-7,-7,-31,3,-2
1511885888220012,2,-2,-9,-1,4,4,3,-9
1511885888242084,4,2,14,11,3,7,-7,9
1511885888242084,8,-6,-14,-1,-5,25,1,17
1511885888243077,-5,2,11,-4,-1,9,-7,-19
1511885888243077,-3,0,10,-2,3,14,-5,-11
1511885888265134,1,-1,3,8,-1,-5,-1,11
1511885888265134,2,-1,-15,-4,0,-27,-5,-3
1511885888266137,-12,2,9,3,3,-30,13,-17
1511885888266137,8,5,1,4,3,-31,-1,12
1511885888279207,8,4,3,-4,3,5,10,-1
1511885888279207,-1,0,9,2,2,5,4,18
1511885888280175,-7,-2,-3,4,-5,-24,-8,-9
1511885888280175,-5,2,-5,3,-2,-13,3,1
1511885888302275,-2,-4,-9,-7,1,17,1,6
1511885888302275,-8,0,5,7,0,8,-4,-19
1511885888303236,0,1,2,7,1,4,-1,3
1511885888303236,-5,-1,1,3,0,-4,2,11
1511885888325301,28,16,-7,-6,-5,-1,-7,27
1511885888325301,-8,-24,0,-6,-2,8,-1,-14
1511885888326297,-13,-8,-2,0,-1,5,1,-2
1511885888326297,-10,-8,-5,-2,0,11,-5,-16
1511885888339350,3,0,-7,-3,0,14,-2,9
1511885888339350,6,10,-2,-11,1,15,1,1
1511885888340334,3,-6,-12,2,-3,11,-5,-2
1511885888340334,0,9,6,-3,-1,6,-6,-7
