timestamp,emg1,emg2,emg3,emg4,emg5,emg6,emg7,emg8
1511883671108170,-4,4,-1,-2,-4,-4,-4,-3
1511883671108170,-1,-1,3,-2,2,1,3,-6
1511883671109171,-4,-2,-2,-9,-4,0,-2,3
1511883671109171,1,1,-4,2,4,2,-3,7
1511883671109171,0,-3,-8,-10,-3,1,-4,3
1511883671109171,-3,-2,-5,-4,-3,0,-5,-1
1511883671110173,-2,2,0,-2,7,5,2,-5
1511883671110173,3,-2,4,-5,4,4,7,-7
1511883671121205,8,3,9,5,8,4,5,-1
1511883671121205,5,-1,-2,5,8,-5,3,-2
1511883671129727,5,-4,-2,7,3,-3,-2,-2
1511883671129727,-3,-6,-1,0,-9,-8,-2,0
1511883671143287,2,-4,2,3,-5,3,3,0
1511883671143287,-1,1,6,-3,-3,5,1,2
1511883671151337,-4,4,-2,-4,0,2,2,1
1511883671151337,-2,5,-3,-2,2,-2,-5,0
1511883671162339,-3,-2,-5,0,5,-4,-3,1
1511883671162339,1,-4,-1,-2,7,1,3,-2
1511883671166348,1,-3,2,1,3,-2,3,-5
1511883671166348,-2,-1,1,-1,10,3,-7,-7
1511883671181388,-2,1,5,-5,-5,-2,-5,-1
1511883671181388,0,-1,-2,-3,-6,-5,-5,6
1511883671189409,-4,-5,1,-6,-13,-2,2,3
1511883671189409,-2,-3,-3,2,-16,-3,7,-1
1511883671229519,-7,-1,-6,-4,-4,-5,2,2
1511883671229519,1,4,-3,2,-7,0,3,-1
1511883671230019,3,8,-5,2,-6,-3,5,-3
1511883671230019,-4,10,7,4,7,1,-6,3
1511883671231021,0,5,1,3,3,-1,-3,-3
1511883671231021,1,-3,-5,-5,6,-2,-4,0
1511883671233829,-4,-7,-2,-3,-1,2,-1,0
1511883671233829,-7,-8,-5,1,-3,4,-2,-2
1511883671240847,-1,-6,4,-4,-7,3,-8,0
1511883671240847,1,-8,4,3,2,1,-5,-1
1511883671247866,4,-4,1,-3,-3,0,-2,-3
1511883671247866,6,0,5,-3,-10,-3,5,-5
1511883671256890,1,7,2,-6,-13,-4,-4,-5
1511883671256890,2,8,2,-1,-14,-2,-4,-4
1511883671270927,-11,-8,-3,0,-18,-5,-4,3
1511883671270927,5,11,-6,6,-18,-1,1,6
1511883671279951,-9,-11,-7,9,-1,2,13,6
1511883671279951,2,-1,-5,-4,-3,-10,8,-5
1511883671285967,2,4,-3,4,13,-2,0,-11
1511883671285967,2,4,-4,-9,11,-4,-4,-4
1511883671301008,-2,-1,-2,1,13,-1,-6,-3
1511883671301008,-3,4,-4,-8,5,-2,-4,-3
1511883671308026,8,9,3,-2,-2,4,4,6
1511883671308026,2,-2,-1,7,14,9,-1,-1
1511883671317553,0,-14,-3,-4,5,2,-5,-7
1511883671317553,-1,4,7,8,8,7,2,2
1511883671331089,-11,-11,-8,-4,4,-1,1,0
1511883671331089,-1,-8,3,-8,5,-1,6,2
1511883671340114,-5,-10,2,11,10,-1,-1,3
1511883671340114,-2,23,-2,-8,-16,-4,-5,0
1511883671346130,6,22,12,8,4,0,0,8
1511883671346130,-7,-19,-9,-7,-9,-5,-2,-1
1511883671360167,8,9,-3,1,-9,-6,-2,3
1511883671360167,5,-19,-6,1,-12,-4,-1,-6
1511883671368189,12,-1,3,3,-4,-1,-7,-10
1511883671368189,0,-22,-1,-1,1,1,-10,-8
1511883671377222,18,24,17,8,30,10,-1,0
1511883671377222,-5,-23,-2,1,13,7,-1,6
1511883671390247,-7,15,-2,2,12,6,-7,2
1511883671390247,-7,-6,-7,-1,6,6,-3,3
1511883671399271,-10,-37,-10,-32,-30,-17,-10,-12
1511883671399271,1,23,19,-6,-2,-9,1,9
1511883671405287,12,25,10,2,0,-5,11,5
1511883671405287,-8,-16,7,3,3,-2,6,-3
1511883671422335,-6,4,-11,-2,-2,0,6,-4
1511883671422335,4,16,10,17,15,-1,6,-10
1511883671428351,-14,-21,-11,-12,0,-6,-3,-4
1511883671428351,-5,1,-12,2,-11,2,1,2
1511883671437377,1,15,4,2,-9,-5,-2,3
1511883671437377,-12,-20,-12,-3,-6,-1,-8,-5
1511883671450411,-4,-14,105,-8,-18,-6,-7,-6
1511883671450411,-2,11,48,11,19,9,0,-5
1511883671459435,11,-4,6,-11,-5,3,-4,-1
1511883671459435,11,-5,-20,8,15,7,2,5
1511883671465451,6,2,-57,-2,1,1,-2,5
1511883671465451,4,9,-25,-12,-14,-9,4,10
1511883671480491,-1,2,0,-3,1,7,12,16
1511883671480491,-6,0,-20,-4,8,3,8,6
1511883671488513,-2,-4,-33,-9,-7,-5,10,-8
1511883671488513,4,-6,-12,2,-3,-7,4,-9
1511883671497537,6,33,-8,11,10,6,1,-4
1511883671497537,-14,-17,4,-6,-16,-6,-7,-3
1511883671510571,-9,-5,-1,6,18,5,-2,-4
1511883671510571,2,3,-4,-5,-3,-1,1,-8
1511883671520098,-3,-18,-4,4,11,4,1,0
1511883671520098,6,-9,6,-5,-4,-3,5,0
1511883671533689,3,14,2,7,0,-3,-1,2
1511883671533689,3,4,-5,-3,-1,-2,1,5
1511883671540704,-6,0,-6,4,-1,-4,1,-8
1511883671540704,-4,5,3,5,-10,1,2,-9
1511883671547726,-1,-17,-13,3,-13,-7,9,3
1511883671547726,4,4,3,10,-3,3,7,5
1511883671556723,-12,-5,1,-10,4,1,5,1
1511883671556723,-1,20,6,-6,18,0,-2,0
1511883671570782,-2,-11,-8,-6,7,-1,-6,-1
1511883671570782,0,0,-4,-2,7,-8,-8,-4
1511883671579784,4,7,-2,-1,-4,-1,-1,-3
1511883671579784,2,-2,-7,-10,-15,1,3,0
1511883671593823,-5,1,-5,-4,5,7,-3,-4
1511883671593823,-5,1,-2,0,5,5,-6,3
1511883671600840,-5,-19,-9,3,-8,-4,-4,1
1511883671600840,1,19,0,7,0,-1,-9,0
1511883671607859,-4,0,-11,5,-6,-3,-12,-7
1511883671607859,8,1,-9,2,-8,-10,-8,-1
1511883671617390,5,-7,-10,3,0,-5,-4,2
1511883671617390,13,1,-1,-2,6,0,-4,4
1511883671630924,7,-2,-7,-9,3,6,-7,3
1511883671630924,-5,3,-4,-10,-2,1,-7,-4
1511883671639981,1,3,7,-3,1,1,-8,-5
1511883671639981,7,10,12,2,5,-1,-4,3
1511883671654018,-12,-8,1,-3,-4,1,7,-4
1511883671654018,-4,11,5,-9,-5,3,6,0
1511883671661038,-8,-7,-4,-4,2,2,8,5
1511883671661038,-17,-15,-10,-1,3,-2,1,-6
1511883671668055,5,7,0,6,4,-7,-2,-3
1511883671668055,6,-9,-9,2,-7,-5,-4,4
1511883671677080,-4,14,0,10,-5,-3,-2,7
1511883671677080,-5,-12,-3,1,-4,1,-8,0
1511883671691117,1,4,7,2,-6,2,-5,-4
1511883671691117,-1,10,4,-2,-3,0,6,4
1511883671700141,5,0,11,3,4,1,1,-8
1511883671700141,3,0,13,-4,-3,4,-1,-4
1511883671714178,8,14,14,0,1,7,-8,9
1511883671714178,-12,-3,4,-4,-1,1,-13,-17
1511883671720713,4,2,0,-6,0,3,0,11
1511883671720713,35,2,-3,0,1,-1,3,35
1511883671728240,-2,-9,-5,-2,-3,0,-7,-4
1511883671728240,-9,-1,4,7,-2,7,2,-12
1511883671736757,-5,-2,3,4,-4,1,-4,-13
1511883671736757,10,-8,0,0,3,-5,-4,-13
1511883671750795,-2,-7,0,-6,5,-7,9,13
1511883671750795,0,2,0,2,2,-6,-1,2
1511883671759819,1,-10,0,-1,-7,1,-6,2
1511883671759819,-13,-1,3,-2,0,0,-1,-6
1511883671773856,-3,-2,-11,0,6,0,1,-9
1511883671773856,0,25,-3,-4,8,-4,2,-4
1511883671780875,2,27,9,-3,-3,-6,-5,-5
1511883671780875,-13,2,2,4,-9,-3,-6,-3
1511883671787893,0,-3,1,4,-6,-1,-6,0
1511883671787893,9,-6,3,6,-1,2,4,14
1511883671796917,-11,-4,-3,1,-10,-1,5,9
1511883671796917,-11,-8,-9,-6,-7,-2,8,-1
1511883671810955,4,8,4,-7,1,0,4,-3
1511883671810955,9,-2,1,1,3,7,-3,-4
1511883671819982,2,-9,-5,1,11,1,-10,-9
1511883671819982,-18,-2,-2,3,7,-2,-2,-14
1511883671834020,1,-14,-11,-3,-8,-12,0,-5
1511883671834020,8,-16,-7,-8,7,-8,-6,1
1511883671841039,16,13,7,-3,1,-2,-2,6
1511883671841039,3,1,-1,0,2,8,-7,6
1511883671848057,2,1,5,2,-2,8,0,9
1511883671848057,-7,-4,-4,2,-11,-2,2,6
1511883671857091,-8,-14,-10,1,0,-4,3,1
1511883671857091,-5,11,-3,8,-1,-4,3,-1
1511883671871118,-8,1,-3,6,5,8,5,4
1511883671871118,-1,-4,-4,1,3,-3,-4,0
1511883671880143,5,-6,-6,4,1,3,0,-6
1511883671880143,2,-6,-2,-2,-9,0,-1,-2
1511883671894182,-3,-5,-5,0,-8,0,1,-6
1511883671894182,2,7,-16,-5,-9,-3,7,-4
1511883671901201,-4,4,-6,-1,1,-4,5,-1
1511883671901201,-1,-15,-12,-13,0,-9,-2,-6
1511883671908219,9,3,15,-3,9,-2,-7,-5
1511883671908219,-6,-11,14,-3,3,-1,-6,-6
1511883671923769,-1,3,22,-7,-7,1,-4,-3
1511883671923769,7,-8,21,5,1,1,-2,-5
1511883671931296,-17,-7,7,-2,-3,-7,-8,4
1511883671931296,-5,-1,15,7,6,-1,0,2
1511883671939990,-3,-4,6,2,-4,-1,2,-4
1511883671939990,-1,-1,-7,2,0,7,0,3
1511883671954027,9,36,11,3,1,0,-3,-1
1511883671954027,2,1,-1,-7,-3,5,-10,-1
1511883671961103,-4,-2,-5,-5,-4,4,-4,3
1511883671961103,-8,-9,1,-1,1,-3,1,2
1511883671977096,-1,-5,-4,4,1,-5,-1,8
1511883671977096,-8,2,2,0,-11,-6,4,8
1511883671983202,1,0,1,0,-6,-8,8,0
1511883671983202,-3,3,-8,-7,-7,-4,7,-5
1511883671991262,1,-15,-12,-7,-11,-1,3,-3
1511883671991262,6,-1,0,5,-3,3,-1,-1
1511883672000150,3,-13,-8,-4,0,3,-3,-5
1511883672000150,9,6,1,2,2,3,-4,0
1511883672014234,-9,-35,-16,-5,-5,-2,-10,-16
1511883672014234,14,24,12,2,4,2,-3,2
1511883672020847,4,13,-1,-3,-6,0,-6,2
1511883672020847,19,11,10,8,-2,6,13,25
1511883672028298,-16,-18,-11,1,-3,7,1,-21
1511883672028298,-16,0,-18,-10,-6,2,12,21
1511883672045036,16,0,-3,2,-1,-1,-7,-4
1511883672045036,-21,12,9,3,-6,-5,-6,-4
1511883672051051,3,3,2,-1,-6,-8,1,-1
1511883672051051,-3,-13,-4,-1,-1,-12,-6,-8
1511883672060076,10,-4,-5,-1,13,-4,4,1
1511883672060076,7,6,7,2,9,-3,-2,-2
1511883672074176,22,-2,1,-1,2,-2,4,8
1511883672074176,-3,-3,-2,6,10,5,5,-23
1511883672081171,18,-13,-7,-1,3,1,4,25
1511883672081171,-18,-13,-7,-9,-2,1,-7,-2
1511883672088151,-7,36,12,-4,-1,2,-4,-6
1511883672088151,13,8,6,-4,-3,2,0,-7
1511883672103191,-16,-1,3,0,4,-3,-8,-32
1511883672103191,4,0,-3,2,9,8,2,15
1511883672111317,-6,8,-3,4,12,-1,-4,6
1511883672111317,5,0,0,2,0,-3,-1,7
1511883672119919,-3,-8,0,2,-6,1,0,-6
1511883672119919,-7,20,1,-5,-10,-5,1,-4
1511883672134081,15,6,-11,-8,-5,3,5,5
1511883672134081,20,-3,-6,-6,-3,-3,2,2
1511883672141099,-26,-3,10,6,-1,-2,-1,0
1511883672141099,2,0,-3,0,3,-2,-2,-2
1511883672148118,-6,-21,0,-2,2,-2,2,16
1511883672148118,5,17,7,-3,9,-7,-9,-3
1511883672163181,-3,-2,6,4,12,-1,2,-2
1511883672163181,19,-15,-5,2,5,2,0,0
1511883672170176,-39,2,-4,1,4,-1,-4,-12
1511883672170176,7,-11,-10,4,-1,3,-7,-1
1511883672180203,-31,-6,-11,0,-6,1,-4,-5
1511883672180203,2,17,-6,6,-4,7,-2,5
1511883672194240,-6,2,0,4,-3,5,1,-7
1511883672194240,-13,-10,0,2,-4,1,-3,5
1511883672200256,13,12,-1,-8,-5,1,3,12
1511883672200256,-5,-13,-7,-10,-6,-4,-7,-23
1511883672216300,19,8,1,-8,-1,0,9,19
1511883672216300,-13,-14,2,-2,-1,-10,0,-8
1511883672230842,-6,-19,-8,0,2,-3,3,-8
1511883672230842,-13,-14,-4,-1,7,-1,-2,3
1511883672239430,9,-5,1,4,5,3,-5,-2
1511883672239430,11,7,4,5,6,5,8,16
1511883672241436,-10,-2,-1,-1,4,-1,-2,0
1511883672241436,2,-5,2,0,-3,-3,-4,-7
1511883672253466,-2,6,2,3,-3,-2,-3,1
1511883672253466,-14,-18,4,-2,-3,-1,-3,-10
1511883672260485,-4,3,1,-3,-6,-1,9,-1
1511883672260485,-7,-18,0,-6,-2,-5,6,-10
1511883672276528,18,-1,2,-4,-6,1,0,3
1511883672276528,-3,-15,-5,-2,-3,5,-1,3
1511883672283547,20,18,5,3,-6,4,-3,-6
1511883672283547,-14,-5,3,2,0,-1,3,18
1511883672306608,-6,-11,-1,3,3,-8,-6,-9
1511883672306608,-6,20,13,3,5,-3,-5,-7
1511883672308613,-3,2,12,-2,-1,-3,-2,4
1511883672308613,7,3,7,0,-7,-1,3,-4
1511883672313626,6,12,6,2,-3,2,8,2
1511883672313626,-6,6,1,1,1,3,3,3
1511883672322651,4,-4,-12,4,7,3,0,5
1511883672322651,-5,1,-6,-7,-3,-2,-3,-7
1511883672336189,-4,-6,-10,-4,3,-7,-4,-3
1511883672336189,-8,-4,-6,3,4,0,-4,-9
1511883672343207,0,-15,-6,2,5,0,-1,3
1511883672343207,6,7,-11,3,1,0,-1,1
1511883672359250,-3,-4,-5,5,-4,-3,3,3
1511883672359250,2,3,0,-1,-10,-1,0,0
1511883672361256,5,-4,-1,-4,-3,-3,-4,4
1511883672361256,8,-2,-2,-1,-4,-6,-11,0
1511883672373287,2,2,7,0,-6,0,-7,-5
1511883672373287,-1,-7,-3,-7,-1,-5,2,6
1511883672382312,-2,4,2,-7,2,-7,-1,3
1511883672382312,-3,2,2,-3,13,5,7,3
1511883672396349,-5,7,8,-5,6,4,-1,-1
1511883672396349,-1,-9,0,-2,-7,3,1,-3
1511883672403368,0,5,6,5,-7,7,-1,-2
1511883672403368,-1,-13,1,5,-6,2,-5,-1
1511883672419968,1,-3,-2,-8,-10,-6,-5,-6
1511883672419968,-4,15,0,-5,-2,4,-1,-6
1511883672421473,-2,5,-1,0,1,-1,2,-4
1511883672421473,-14,-4,-2,-3,-7,-6,-1,-2
1511883672433477,-3,-14,-7,7,13,-3,7,7
1511883672433477,1,8,-10,-6,-1,-7,0,6
1511883672442503,-13,8,-2,-1,-2,2,-3,2
1511883672442503,-3,4,4,-1,-11,0,-1,-6
1511883672456540,-2,-4,-3,1,-11,2,-1,-8
1511883672456540,10,0,3,-3,-6,-11,1,-7
1511883672463559,8,-15,-9,5,3,0,2,-2
1511883672463559,9,12,5,-2,5,6,-3,0
1511883672479601,3,17,8,4,9,5,-2,6
1511883672479601,-1,-14,-9,-1,-1,2,0,4
1511883672481606,6,12,10,3,-5,-4,-2,2
1511883672481606,-1,-5,4,4,-1,-4,-5,-2
1511883672493638,7,-1,-7,-5,-12,-10,-1,3
1511883672493638,6,25,18,9,-3,2,3,-2
1511883672501660,-1,-6,-3,-7,-7,-3,8,2
1511883672501660,4,-2,2,-1,-7,-6,3,-2
1511883672516700,1,-3,-4,3,11,-1,-4,4
1511883672516700,-8,-20,-5,-11,-7,-1,-5,4
1511883672530739,-11,-3,-4,9,2,0,0,5
1511883672530739,-9,15,-10,-2,3,1,0,-1
1511883672539770,-3,-7,-10,-13,-5,0,2,-7
1511883672539770,-8,-40,5,-9,-9,-2,2,-5
1511883672540772,-1,-26,-13,-2,8,5,6,-11
1511883672540772,9,20,18,1,10,6,3,-7
1511883672552804,1,-21,-14,-5,2,3,-7,-9
1511883672552804,1,-3,-7,-1,-2,6,-8,-4
1511883672561828,-1,-1,-3,2,-4,3,-6,4
1511883672561828,0,-13,-8,-4,-8,-2,-2,10
1511883672575866,-1,-1,5,11,-2,3,1,11
1511883672575866,0,19,-1,3,4,-3,-5,9
1511883672582884,2,-7,-5,-3,3,-7,-4,1
1511883672582884,2,1,-2,15,13,-5,1,-5
1511883672599930,-3,6,0,3,-6,-10,11,-1
1511883672599930,-4,5,-6,6,0,-2,3,-1
1511883672600932,4,8,-7,-6,-9,-3,-5,-1
1511883672600932,0,15,-7,-14,-3,5,2,1
1511883672612965,-7,-24,-8,-1,1,3,2,-3
1511883672612965,-4,7,-4,6,6,0,4,-2
1511883672622492,2,7,1,-15,1,-4,-1,0
1511883672622492,1,-1,6,-6,-3,3,-3,0
1511883672636030,0,-14,6,0,1,3,-6,-6
1511883672636030,3,79,11,0,1,2,-6,-5
1511883672643048,-2,5,2,-8,-5,3,-6,-7
1511883672643048,3,10,15,10,7,-4,0,-2
1511883672674131,3,13,9,7,5,-2,5,2
1511883672674131,10,-20,-8,-5,3,2,7,1
1511883672682153,9,3,-5,-3,-3,-4,-2,-3
1511883672682153,-5,-3,-15,2,-3,-4,4,4
1511883672704211,2,-5,4,0,-4,-8,-1,1
1511883672704211,1,2,7,6,1,-3,-3,1
1511883672706216,3,-8,8,1,-8,-4,1,3
1511883672706216,-1,-29,-8,3,-3,1,-3,-1
1511883672734292,-3,-4,-7,-8,-6,2,-4,-4
1511883672734292,-4,-12,-1,1,5,1,-3,-6
1511883672740310,20,25,8,0,4,-2,-2,0
1511883672740310,-25,6,-1,4,6,-1,-7,-3
1511883672756353,-6,-2,-1,-2,-6,-2,-4,5
1511883672756353,-14,1,-2,0,2,-1,-2,-10
1511883672757356,-7,-8,4,6,1,0,3,3
1511883672757356,3,-12,-14,-5,-9,1,0,-5
1511883672772396,0,2,2,1,0,2,7,1
1511883672772396,-2,-26,-19,-7,2,0,0,10
1511883672775404,1,10,2,-9,5,-5,-3,-1
1511883672775404,3,-16,-3,-7,6,-5,2,-1
1511883672787436,-3,10,1,-3,-1,-1,1,1
1511883672787436,11,-6,-1,0,-7,-3,-3,-3
1511883672788438,-3,-4,-3,11,2,1,-5,-2
1511883672788438,11,20,1,-5,-15,-1,0,6
1511883672800470,7,3,6,8,-7,3,0,-2
1511883672800470,-10,-16,2,7,-7,1,3,1
1511883672809495,-14,14,-8,2,-6,5,-1,-1
1511883672809495,-2,4,-4,-5,-6,-1,-2,0
1511883672824536,10,4,-5,-6,-11,-5,-2,2
1511883672824536,-1,-11,-4,-1,-7,-3,1,-6
1511883672826541,-4,-25,-9,-5,-6,-5,2,0
1511883672826541,3,11,0,-3,1,-2,-3,0
1511883672839577,3,2,-7,-5,3,-1,-1,-1
1511883672839577,12,10,6,-2,10,3,-3,6
1511883672841583,2,-2,6,5,1,4,-5,-5
1511883672841583,0,-17,5,3,3,3,-2,5
1511883672853614,-7,7,-1,-2,5,1,-9,5
1511883672853614,-9,-7,-6,-3,1,3,-5,1
1511883672862638,-6,3,-1,-5,1,-1,-2,-1
1511883672862638,-5,-8,3,-1,-1,-1,4,-7
1511883672876677,-18,10,12,2,1,-2,5,-25
1511883672876677,20,4,-4,0,0,-4,10,23
1511883672876677,16,1,-7,-4,-2,-3,1,-6
1511883672876677,-2,-1,-2,0,0,-2,-3,4
1511883672891716,-15,-4,-6,-8,3,-7,-4,-8
1511883672891716,4,-11,2,-1,1,-8,1,-6
1511883672893721,-13,-5,2,1,-5,2,1,-9
1511883672893721,5,-7,-11,1,-8,7,-3,-1
1511883672906758,8,6,1,2,-1,11,-4,10
1511883672906758,0,-9,-4,-2,-7,4,-9,-1
1511883672908762,3,1,-1,-1,-6,-1,-6,11
1511883672908762,-5,-14,-5,-2,3,-7,-6,-12
1511883672929860,-4,-5,-2,3,3,-2,0,-7
1511883672929860,-8,-1,4,6,-2,-5,3,-11
1511883672931337,1,-6,8,6,3,0,9,-5
1511883672931337,5,3,6,5,0,-2,0,1
1511883672943465,9,-5,-3,-2,4,-2,-4,4
1511883672943465,-10,-1,5,-9,1,-4,-2,-2
1511883672952448,-11,6,3,-5,5,-4,0,1
1511883672952448,-6,12,0,-6,-5,-6,3,1
1511883672967560,0,-3,-3,4,5,5,1,5
1511883672967560,-7,-4,-5,-5,-7,-1,-1,-5
1511883672968489,-1,22,5,3,9,1,-3,-1
1511883672968489,1,30,4,-5,-1,2,-2,3
1511883672982525,-8,11,0,-6,-6,2,-9,1
1511883672982525,-5,20,-5,-2,-5,3,-6,-3
1511883672983533,-4,-18,-14,4,-6,1,2,0
1511883672983533,7,7,-4,-1,3,1,3,-7
1511883672996688,-3,-3,3,3,5,7,7,-5
1511883672996688,-7,-2,2,2,6,2,3,-5
1511883673003618,-3,19,-2,-4,-4,-7,3,6
1511883673003618,-9,-11,0,2,-7,-8,6,1
1511883673018624,-1,-8,0,-5,-8,0,1,0
1511883673018624,-1,-27,-2,-1,3,4,-10,0
1511883673026142,8,-4,1,-1,2,7,-7,-5
1511883673026142,0,-7,6,-2,-4,8,-6,-4
1511883673042722,11,-6,3,-1,-4,-2,-2,7
1511883673042722,-2,-8,-1,-3,-11,0,0,5
1511883673043724,0,6,-1,5,2,1,-2,0
1511883673043724,1,0,-5,1,9,-3,0,-6
1511883673056759,4,-4,-6,7,4,-4,3,1
1511883673056759,3,-2,-1,2,1,-5,-1,-1
1511883673063778,-2,-11,0,-4,-3,-1,2,-2
1511883673063778,0,-12,-2,-1,-1,3,-1,-3
1511883673078844,-2,-7,-5,-5,-3,-1,-2,-12
1511883673078844,5,15,6,-6,2,-5,-4,-6
1511883673085907,-1,-5,0,-1,-2,-5,-6,-1
1511883673085907,-3,-3,1,-5,5,-2,-1,6
1511883673101902,-6,-7,-5,0,0,-5,2,6
1511883673101902,-1,9,7,7,5,1,10,5
1511883673103884,-6,-10,4,1,-5,2,4,-4
1511883673103884,2,15,1,-1,-9,-7,-7,0
1511883673116919,0,7,6,12,10,4,-3,-2
1511883673116919,-14,-24,-9,-3,-8,-9,-3,-5
1511883673123464,4,14,-1,-1,0,-5,2,-2
1511883673123464,-9,-27,-4,5,3,5,1,0
1511883673139092,0,-3,1,2,-9,3,4,6
1511883673139092,-1,-15,-13,0,1,5,1,2
1511883673153108,-2,-11,-1,9,15,5,4,-1
1511883673153108,0,-10,1,0,9,5,2,-9
1511883673162130,5,15,16,-9,-3,-6,-5,-2
1511883673162130,5,14,7,-6,4,4,-5,-5
1511883673163133,2,-6,1,-9,-5,-2,-8,10
1511883673163133,0,7,0,9,4,2,-2,5
1511883673175165,6,-13,-19,-3,-6,-6,-4,4
1511883673175165,2,-3,-4,-2,-1,-2,0,-7
1511883673184189,-7,14,5,-7,-6,-7,-7,-5
1511883673184189,-1,16,-1,-9,-7,-9,-4,-5
1511883673199237,-3,4,-8,-12,-8,-5,-1,-4
1511883673199237,-8,-13,-7,-1,9,6,6,-4
1511883673205245,11,-3,-8,2,5,3,2,-5
1511883673205245,7,-26,-8,-12,-33,-11,4,4
1511883673222291,0,7,5,12,9,0,3,2
1511883673222291,-1,12,0,7,-1,-5,-2,5
1511883673223796,-20,-30,-3,-2,-1,5,2,1
1511883673223796,-3,17,-3,-5,-1,1,-8,-1
1511883673235827,-7,-7,2,-4,3,5,-3,1
1511883673235827,14,58,18,4,-10,-4,-3,9
1511883673244915,-3,11,-18,4,7,3,-2,2
1511883673244915,-2,24,0,-4,5,-6,-4,-2
1511883673258980,-5,-8,-1,-4,-8,-7,5,-7
1511883673258980,-6,-22,-7,0,2,-3,-2,-8
1511883673266001,3,-18,3,-9,-8,-4,4,0
1511883673266001,-6,-18,-8,7,10,7,2,-1
1511883673282049,-3,0,1,-9,2,10,2,-1
1511883673282049,0,-9,-2,-7,-2,-2,-1,-1
1511883673284020,4,-15,-10,-5,2,-5,-4,-4
1511883673284020,-4,-43,9,10,13,1,-2,-1
1511883673296051,-5,-35,-8,7,5,-7,-10,-3
1511883673296051,0,-49,7,-1,-7,-1,1,2
1511883673305076,0,-9,-1,-8,-13,-2,2,-5
1511883673305076,4,-24,1,-2,-3,0,3,-7
1511883673319148,11,23,3,5,-3,1,5,6
1511883673319148,-2,-1,-14,-2,-1,0,-8,0
1511883673325667,0,15,5,3,-4,4,-13,-14
1511883673325667,4,7,-6,3,-4,5,2,27
1511883673342212,0,14,-2,-1,-2,1,-2,-4
1511883673342212,17,22,4,1,2,-2,7,8
1511883673343215,-58,-1,2,-5,-6,-6,4,-5
1511883673343215,-4,41,17,-4,-6,-1,2,-24
1511883673355247,13,1,12,-10,-3,-5,1,4
1511883673355247,-20,9,-5,0,-6,5,-3,-3
1511883673364271,14,11,-4,4,0,2,3,4
1511883673364271,6,-7,-12,1,8,6,-1,3
1511883673379311,-3,13,-3,2,11,-1,-3,-3
1511883673379311,0,-7,0,-2,9,-5,3,-7
1511883673385327,24,56,11,-3,5,-11,1,6
1511883673385327,-16,11,0,2,-5,-10,-2,-8
1511883673402372,5,2,-4,0,-8,-4,-3,-9
1511883673402372,5,14,5,6,0,-4,0,1
1511883673403375,-9,-5,-6,2,-6,-3,-5,5
1511883673403375,6,7,4,-6,-5,3,-6,10
1511883673415407,-3,5,-6,-5,-5,-1,-4,6
1511883673415407,3,-10,-2,1,1,4,-2,-3
1511883673432454,4,-18,8,-2,-1,1,2,-2
1511883673432454,-3,-11,-17,-7,1,-4,-6,2
1511883673439017,7,-2,-1,-6,-10,-4,-4,5
1511883673439017,-4,0,-5,2,-10,2,0,2
1511883673446037,8,-3,-2,6,-3,6,-1,2
1511883673446037,0,-10,2,3,1,0,-2,-1
1511883673484169,6,12,0,-1,3,-1,4,-9
1511883673484169,10,3,-3,-4,2,-1,-2,-7
1511883673492159,4,9,14,3,-3,1,-2,-1
1511883673492159,-1,-5,3,4,2,4,6,-1
1511883673507199,-16,-10,10,-4,2,-1,3,-2
1511883673507199,-3,12,4,-5,0,3,4,0
1511883673508201,-2,-4,-6,-4,1,6,-1,-2
1511883673508201,-1,2,-4,-2,4,-3,-1,5
1511883673521738,0,3,-5,-3,-4,-2,-7,5
1511883673521738,-12,-2,-1,-4,-9,-1,-7,0
1511883673528256,-5,-17,-11,-4,0,-8,2,-3
1511883673528256,-4,4,5,-1,-3,-7,4,-3
1511883673535777,-7,-4,-2,-3,5,-1,5,2
1511883673535777,14,9,3,-2,-3,-7,-4,6
1511883673544856,11,2,9,0,0,-4,0,9
1511883673544856,12,13,6,-1,1,0,-5,-4
1511883673550900,-5,1,-1,-8,-8,0,-3,-7
1511883673550900,-6,1,-8,-7,-8,1,-4,-7
1511883673551874,1,-6,-11,-1,-5,3,-2,-7
1511883673551874,6,-1,-7,-1,-4,-1,2,-6
1511883673558921,4,-1,-1,8,-3,-3,-2,-2
1511883673558921,-5,-7,-4,0,3,-8,4,-3
1511883673565940,2,-7,5,0,2,-10,4,1
1511883673565940,-4,3,-12,-4,-1,0,8,2
1511883673581981,-1,-12,-8,2,3,2,6,4
1511883673581981,1,10,-1,4,5,3,8,1
1511883673583961,-8,-11,-1,2,5,3,-1,-3
1511883673583961,-3,2,11,3,3,2,-3,-3
1511883673595992,-5,1,4,1,-7,4,0,1
1511883673595992,-1,-5,2,1,5,4,-5,1
1511883673605046,-2,5,5,1,-3,1,-5,-7
1511883673605046,-1,2,-2,-10,-4,-1,-5,-3
1511883673619053,-6,-2,-2,-5,7,-3,0,1
1511883673619053,-1,-2,-4,-7,3,-2,-2,8
1511883673626073,0,6,-1,0,2,1,-5,7
1511883673626073,-5,-13,-2,3,-4,-6,-5,-1
1511883673641616,3,-2,2,2,-3,-4,-5,-6
1511883673641616,0,-7,3,1,-6,-3,-1,-4
1511883673643622,6,-11,4,3,-6,0,6,0
1511883673643622,4,2,1,3,-10,2,3,-3
1511883673655653,-4,-19,-5,2,-2,0,4,-4
1511883673655653,1,-1,3,0,4,0,0,-2
1511883673664677,-2,-2,-7,-7,1,2,-2,1
1511883673664677,4,9,-2,-7,3,-1,-3,-2
1511883673678715,-1,10,2,0,-1,-2,-8,-2
1511883673678715,-4,-6,3,1,-1,-6,-9,-2
1511883673685733,2,3,-4,-3,1,-6,-6,3
1511883673685733,1,-12,0,1,-1,-1,-2,5
1511883673701776,-3,-5,-1,6,-3,3,1,6
1511883673701776,-6,-20,-1,7,-8,1,4,2
1511883673703781,2,8,7,3,-5,1,5,0
1511883673703781,1,-2,7,3,-6,0,0,-3
1511883673715814,0,-5,-2,-1,-3,3,-2,3
1511883673715814,5,5,-9,-4,0,2,1,-2
1511883673724839,4,-2,-16,-7,-1,1,2,-1
1511883673724839,2,3,-4,-4,0,-1,6,4
1511883673738877,-3,-4,-1,-4,-4,-2,3,-6
1511883673738877,-1,2,8,3,-1,-3,-3,-7
1511883673745896,-6,-16,4,-4,3,-10,-4,-12
1511883673745896,2,7,6,-3,4,-6,-3,-3
1511883673761938,1,0,3,2,7,-5,-3,5
1511883673761938,-1,1,-4,-7,0,-3,-3,4
1511883673763943,0,2,8,5,1,1,3,4
1511883673763943,-8,-13,-16,-4,2,1,-2,4
1511883673775975,3,1,1,-4,-3,-2,-2,-2
1511883673775975,3,12,-4,9,0,-2,-4,-4
1511883673785006,3,6,2,5,1,-7,-2,-5
1511883673785006,7,-6,-2,3,2,2,2,-8
1511883673799037,8,6,-1,1,-1,-1,3,-6
1511883673799037,-2,-5,2,2,-2,5,-2,2
1511883673806055,-1,2,0,0,-6,2,-3,1
1511883673806055,-7,-1,-7,2,-7,-1,0,2
1511883673821598,-5,1,-2,3,3,1,-3,0
1511883673821598,-6,-2,-1,-1,-2,0,5,6
1511883673828617,-9,1,-3,-1,-2,2,0,3
1511883673828617,-9,-9,4,-4,-3,-4,-2,-1
1511883673836137,5,12,-1,-5,1,-1,3,-1
1511883673836137,2,-11,-2,-8,-2,1,2,0
1511883673845162,7,3,-5,-2,3,4,2,5
1511883673845162,1,-2,2,3,10,5,3,4
1511883673859199,2,4,0,-1,0,-3,-3,0
1511883673859199,-5,-2,1,1,8,-1,-7,0
1511883673865215,-2,6,-1,-3,-5,2,-10,1
1511883673865215,-5,-1,-6,-3,-6,-2,-4,1
1511883673881257,3,-3,5,4,-1,-1,3,6
1511883673881257,-1,-26,-19,-2,1,-6,1,2
1511883673888276,7,6,7,0,-6,-6,5,-2
1511883673888276,4,-1,-4,6,1,2,0,-2
1511883673895295,-6,0,6,-4,-3,-3,-1,-4
1511883673895295,8,-2,5,-2,-5,4,-4,-3
1511883673904319,-4,-7,-2,5,0,2,-10,-3
1511883673904319,-1,-5,1,-7,-4,-2,-7,-2
1511883673919359,0,-4,-4,-17,-19,-8,-3,-3
1511883673919359,4,8,11,3,8,2,3,-5
1511883673925885,4,-7,-9,-6,3,3,3,-8
1511883673925885,4,0,3,6,1,1,1,-1
1511883673941151,3,13,-5,5,2,-3,1,-2
1511883673941151,-5,11,1,-1,1,4,-1,2
1511883673948107,-10,-5,0,-3,-14,-1,-2,6
1511883673948107,-6,2,-4,-5,13,7,1,6
1511883673964158,0,-8,-3,-4,0,3,-2,1
1511883673964158,-6,4,2,2,9,5,3,-9
1511883673966153,-4,-4,0,0,3,-1,1,-11
1511883673966153,-3,1,-1,0,-11,-7,-2,-10
1511883673987260,-5,-6,-10,-6,-20,-14,-5,0
1511883673987260,2,8,7,4,-3,-9,-6,3
1511883673988211,-12,-15,0,-7,8,0,1,1
1511883673988211,4,13,9,2,8,-4,0,0
1511883674001247,-1,-5,-11,4,9,7,2,-5
1511883674001247,9,-12,-12,-3,-15,-3,5,-1
1511883674008401,1,1,-3,-4,-3,4,6,-1
1511883674008401,4,3,-3,-4,-6,2,6,-1
1511883674025049,-2,1,2,9,9,5,2,-5
1511883674025049,-13,-8,-6,-3,-13,-7,-9,-6
1511883674026442,-1,17,-3,1,8,0,-7,-1
1511883674026442,-6,-7,1,-14,-24,-14,-10,-4
1511883674039208,3,9,7,10,13,1,-12,-6
1511883674039208,-6,-1,3,-3,-1,0,-2,-2
1511883674046094,5,11,-2,2,-2,-1,4,4
1511883674046094,-2,-16,-14,-2,15,3,5,-4
1511883674061251,6,5,8,-5,2,1,8,2
1511883674061251,-3,-6,6,-3,-7,-8,4,-6
1511883674068153,3,-3,4,2,-2,-2,5,-7
1511883674068153,1,-35,-3,2,-1,2,1,4
1511883674084195,1,37,-2,2,8,2,-5,3
1511883674084195,3,11,-7,-13,0,-2,-2,1
1511883674086201,0,-12,-5,6,5,-6,0,1
1511883674086201,-3,3,-4,0,-27,-17,-3,-3
1511883674098232,3,-22,-4,5,11,16,1,2
1511883674098232,1,-3,-10,0,0,9,-8,0
1511883674107256,-3,-7,4,-4,-11,2,1,3
1511883674107256,0,20,6,-6,0,6,1,-2
1511883674121800,-6,-3,-1,-3,4,-1,6,-2
1511883674121800,5,16,4,-1,14,4,4,1
1511883674128318,-6,-7,0,1,12,-6,-6,-3
1511883674128318,-3,8,9,2,10,5,1,5
1511883674144937,-1,-16,-9,-5,-5,-3,-5,-2
1511883674144937,5,-6,-4,4,0,9,3,0
1511883674145932,9,14,-10,1,-2,-8,-5,-6
1511883674145932,3,7,-15,7,-5,1,-1,-3
1511883674158992,0,12,-9,0,1,-4,-4,0
1511883674158992,-6,11,8,5,18,-2,4,2
1511883674165984,-12,-5,-1,-7,-3,-5,-5,3
1511883674165984,-4,6,13,7,-1,-2,1,8
1511883674196064,-3,-12,4,-2,-10,-2,-2,-1
1511883674196064,-2,0,-1,0,-5,-7,-2,2
1511883674205089,7,-9,3,-1,-4,-1,-2,3
1511883674205089,4,-11,1,-1,1,1,-2,-1
1511883674227180,1,-17,-1,-2,-3,0,2,-7
1511883674227180,19,4,7,5,-5,8,8,8
1511883674228684,-8,4,-7,-1,-1,5,-1,-12
1511883674228684,-16,1,-8,3,7,0,2,5
1511883674249241,-3,3,-2,-1,-2,-5,-1,6
1511883674249241,-4,0,-7,-1,1,-8,-5,-8
1511883674251246,-3,2,2,-2,-11,-5,-1,-3
1511883674251246,0,0,5,2,0,0,-3,-1
1511883674270323,1,-20,4,4,4,-3,-7,-9
1511883674270323,-2,9,8,-1,0,-1,-6,-1
1511883674280325,8,-3,1,-4,5,-2,-4,3
1511883674280325,-2,3,-4,-9,4,-3,0,-11
1511883674302381,-14,-7,-7,1,-4,2,11,3
1511883674302381,3,10,-3,3,-10,6,8,0
1511883674304398,-4,-7,-5,-1,-3,12,1,-2
1511883674304398,3,0,-2,-2,2,6,-3,7
1511883674308397,21,-1,2,-2,-3,0,-6,-2
1511883674308397,8,-9,2,-2,1,-7,-6,1
1511883674309400,-12,1,-1,5,6,-7,-2,-2
1511883674309400,6,0,6,3,7,-2,-2,-12
1511883674317422,1,1,6,-4,-4,-6,-2,7
1511883674317422,-16,-14,-4,-5,2,0,-3,-8
1511883674317422,-7,4,-1,-2,0,2,1,3
1511883674317422,15,-6,-6,0,-2,4,0,-9
1511883674323983,6,14,13,3,4,4,4,3
1511883674323983,-10,-6,2,0,2,-2,-6,-4
1511883674324988,-7,-1,-1,0,4,-1,-7,1
1511883674324988,-11,0,-4,0,-2,-9,-8,-2
1511883674338045,-8,2,0,0,-3,-4,0,-1
1511883674338045,11,-2,-4,-7,-7,-10,0,3
1511883674347046,22,2,5,-2,-5,-6,2,12
1511883674347046,-20,0,5,-3,-5,-4,-1,-10
1511883674361083,-4,1,5,-4,-2,5,4,1
1511883674361083,0,-5,6,4,-5,5,6,2
1511883674368103,13,1,4,4,-4,6,2,0
1511883674368103,-15,7,3,6,-2,4,-1,1
1511883674384172,-2,-6,-3,-1,-2,3,-6,-5
1511883674384172,-5,-12,-6,0,-3,5,-3,-3
1511883674386162,6,2,2,-1,2,2,-2,2
1511883674386162,13,-6,8,-3,-1,-2,-6,3
1511883674398181,-2,-2,-8,-6,-1,-10,-3,14
1511883674398181,-1,2,0,2,4,-6,0,0
1511883674407206,-11,1,-11,1,-3,-8,3,-8
1511883674407206,-4,-2,-13,-2,-4,1,6,1
1511883674421749,-10,-2,0,0,3,3,0,-3
1511883674421749,-10,10,1,-9,5,5,4,2
1511883674428265,1,-8,-7,0,8,3,5,0
1511883674428265,7,-3,-1,1,5,-4,4,-1
1511883674444810,10,1,3,9,3,-9,-2,-1
1511883674444810,3,-7,-4,3,1,-4,-9,0
1511883674445813,-5,1,5,-3,2,1,-10,-5
1511883674445813,2,-9,-6,-12,-4,3,-4,4
1511883674457845,-10,-3,-2,-7,-5,2,-3,-2
1511883674457845,3,-7,-7,-3,-4,0,6,-3
1511883674466869,4,-5,-1,-4,-12,1,4,3
1511883674466869,19,9,2,1,-2,-2,0,4
1511883674480906,-26,3,1,3,-3,2,1,-3
1511883674480906,7,4,8,10,3,6,0,1
1511883674487952,2,-11,9,-5,3,1,1,-3
1511883674487952,-2,18,1,-5,2,-3,-1,-3
1511883674504970,0,3,2,-3,7,0,3,-8
1511883674504970,-7,-6,-14,-5,-4,-1,1,0
1511883674505973,-13,0,-8,5,-1,1,-2,5
1511883674505973,6,6,-8,2,-6,1,-1,8
1511883674518005,-12,-1,-6,-2,-1,0,-5,-24
1511883674518005,11,12,-9,-4,1,-3,-2,4
1511883674527532,5,-1,-1,1,7,-5,-1,-10
1511883674527532,-6,-4,6,-4,4,-1,0,-8
1511883674541614,11,1,0,-1,-7,-3,1,11
1511883674541614,-2,2,8,0,-5,-6,-7,0
1511883674548633,10,7,-16,-5,-12,-8,-6,-6
1511883674548633,-3,-14,-4,1,-2,-3,1,8
1511883674564675,6,7,3,1,-1,5,5,2
1511883674564675,4,5,13,1,-4,4,2,-8
1511883674565678,-12,-3,1,3,0,4,-2,3
1511883674565678,-5,-7,-7,9,4,-2,-5,-5
1511883674577710,15,-1,-12,-4,3,-2,0,-4
1511883674577710,-38,-33,-4,-12,2,-6,-5,-8
1511883674586734,5,6,17,-5,5,-2,-1,-2
1511883674586734,3,-5,5,-6,4,0,2,2
1511883674601774,2,10,5,-2,-1,-4,-2,5
1511883674601774,11,6,-13,-4,-6,2,-6,1
1511883674607790,-17,2,5,5,-7,3,-3,5
1511883674607790,3,6,7,4,1,0,-3,-5
1511883674624837,19,-3,-18,2,-2,-6,4,23
1511883674624837,0,0,7,9,7,-3,11,-11
1511883674626341,-4,1,-3,-3,3,-1,8,8
1511883674626341,-7,3,0,-3,-1,3,6,-4
1511883674638373,-15,-6,-1,-3,0,2,1,-9
1511883674638373,36,13,-2,-3,-2,3,-3,0
1511883674647398,-25,-4,-2,0,-7,-1,-7,-1
1511883674647398,-9,-3,5,-3,-8,0,-14,-7
1511883674661436,4,-4,1,-7,-4,-7,-17,-13
1511883674661436,-1,23,1,-2,1,-6,1,17
1511883674668454,36,1,-4,-2,-3,-3,6,-3
1511883674668454,-11,-20,-8,-1,-5,0,0,10
1511883674684498,-1,11,1,-1,-8,4,-2,-13
1511883674684498,3,12,-3,1,1,2,6,11
1511883674686503,-7,-11,-18,0,4,1,3,-21
1511883674686503,9,-4,-6,3,3,-3,3,2
1511883674698534,7,-15,3,-1,2,-1,-1,3
1511883674698534,-4,-16,-3,-4,1,-8,-6,-11
1511883674707558,37,-23,9,-3,5,-1,3,-7
1511883674707558,29,16,15,5,4,0,1,-9
1511883674721595,-5,-18,-2,0,-5,2,5,0
1511883674721595,-24,-8,0,3,-7,1,5,-5
1511883674728615,-37,-12,-2,2,-1,1,4,3
1511883674728615,4,11,6,-2,-3,-4,-6,-5
1511883674743657,-9,0,6,6,-1,-2,-7,4
1511883674743657,-8,4,-4,2,2,-2,-8,-10
1511883674750675,-8,7,1,3,2,-1,-9,-3
1511883674750675,-8,-10,-11,-3,7,-1,2,8
1511883674757694,4,7,-6,-4,4,-1,-7,-8
1511883674757694,44,12,1,-1,-3,0,3,10
1511883674766728,-40,-3,2,0,-9,-2,4,-4
1511883674766728,-19,-9,2,-2,-5,1,10,-5
1511883674781758,-23,-12,4,-6,-5,-6,0,-20
1511883674781758,2,-10,4,-7,-5,-1,6,3
1511883674787774,1,-4,-1,-4,-3,5,2,1
1511883674787774,11,4,-1,6,-3,5,0,-1
1511883674803817,8,11,3,-3,1,10,-2,15
1511883674803817,-8,-3,-1,0,2,4,-9,-7
1511883674810835,7,13,0,-2,2,-3,-5,10
1511883674810835,-16,-14,-11,-8,-4,-5,-1,4
1511883674817867,-1,-16,-1,-2,4,-1,2,8
1511883674817867,4,20,2,0,3,-3,6,14
1511883674827381,5,2,-2,1,-3,-3,1,3
1511883674827381,2,2,-5,6,2,4,3,3
1511883674841624,-3,19,0,6,-7,-3,-6,0
1511883674841624,-7,-4,-5,0,-7,0,-13,-12
1511883674847640,3,1,-3,-1,1,0,-5,3
1511883674847640,-6,4,0,-4,3,-5,3,8
1511883674863683,-4,-14,3,3,8,-2,14,10
1511883674863683,-18,-15,4,1,7,-7,4,2
1511883674870701,22,25,8,-2,-4,0,5,4
1511883674870701,0,-6,-2,0,0,1,0,2
1511883674877720,-5,-2,-1,-2,8,1,-5,-3
1511883674877720,-11,-6,-6,-3,1,2,-3,3
1511883674886744,-6,-19,-2,-3,-3,0,-8,0
1511883674886744,2,0,-8,-3,-4,7,-6,0
1511883674901784,3,21,-5,2,-12,4,0,3
1511883674901784,2,-7,-2,6,-1,-2,-3,1
1511883674907802,11,-9,4,5,1,-5,-4,8
1511883674907802,0,-1,9,2,3,-2,-5,-5
1511883674924349,2,1,2,-2,-9,-10,5,-3
1511883674924349,-1,-9,-4,-4,-5,1,2,-8
1511883674930868,0,-7,-6,-6,-8,-9,6,-3
1511883674930868,13,12,0,-4,-2,-3,5,3
1511883674946551,2,-16,-2,1,6,5,0,-2
1511883674946551,-2,-2,2,3,6,3,0,1
1511883674947554,1,29,1,3,3,2,-9,-2
1511883674947554,0,21,4,-1,-5,-9,-9,1
1511883674962601,0,0,-1,-5,-5,-5,-6,-1
1511883674962601,-7,-9,-7,-4,-4,0,-2,-4
1511883674968607,-5,-5,-1,6,8,7,2,-7
1511883674968607,5,-17,-4,-7,-5,1,2,-1
1511883674984650,7,6,9,3,2,0,1,0
1511883674984650,-6,-15,-8,-5,3,3,-5,2
1511883674990789,2,8,3,-6,-8,-6,0,9
1511883674990789,-12,-12,-5,5,8,-2,6,2
1511883675006710,-1,-20,-2,-9,-10,-7,7,8
1511883675006710,-1,8,3,6,-9,-3,1,-5
1511883675006710,4,15,1,6,0,-2,-1,-11
1511883675006710,-5,12,-3,-2,-5,0,-6,-11
1511883675022749,6,5,-5,-1,7,-1,-9,-3
1511883675022749,-5,1,5,-5,-5,-1,-1,-5
1511883675028297,-3,-2,2,2,-3,6,-1,0
1511883675028297,-3,-5,-20,1,1,1,0,2
1511883675044810,-5,-2,-8,6,-2,3,2,-4
1511883675044810,8,3,2,-1,-5,-1,-2,2
1511883675050827,4,-7,2,-1,2,6,3,2
1511883675050827,6,-9,7,-3,2,3,-5,4
1511883675066068,-4,-12,-3,-1,3,-1,-6,5
1511883675066068,7,10,-1,0,-1,-5,0,5
1511883675066870,4,2,-2,3,-4,-10,8,1
1511883675066870,-2,-4,2,-4,-10,-2,12,-4
1511883675095947,-11,-24,-4,-5,-16,-6,4,-7
1511883675095947,-7,0,7,-10,-5,-3,-4,-7
1511883675096949,-3,-10,2,-4,8,-3,-10,-5
1511883675096949,4,-2,1,2,4,2,-10,-4
1511883675104970,2,-1,9,10,11,6,-6,-4
1511883675104970,4,-15,3,-1,-13,-1,0,5
1511883675111187,-5,-7,-28,-11,1,-4,0,11
1511883675111187,1,18,12,1,-4,0,7,-2
1511883675126537,-7,15,0,-4,13,3,12,-5
1511883675126537,2,-1,1,5,13,0,-4,-5
1511883675127537,1,-4,1,1,1,3,-3,-2
1511883675127537,-7,-5,11,3,-1,-1,-9,-4
1511883675142077,-2,10,4,2,-5,-1,-5,-3
1511883675142077,-5,4,1,-1,-9,-10,-2,0
1511883675148092,-8,-2,8,-4,-4,-2,1,4
1511883675148092,-4,3,-8,-4,1,4,0,1
1511883675165138,-1,-1,-4,2,8,8,-3,0
1511883675165138,-7,-1,5,-3,2,8,2,0
1511883675171154,11,4,2,-4,-8,-1,5,-4
1511883675171154,2,-3,0,1,-6,-3,3,1
1511883675186194,7,2,4,5,-5,-9,3,2
1511883675186194,9,24,-9,6,3,-2,0,1
1511883675187197,4,0,-4,6,2,6,-5,-8
1511883675187197,-2,3,3,-8,0,-5,-8,-9
1511883675209255,0,4,-5,5,11,1,-4,-3
1511883675209255,-4,-6,-7,-7,1,0,-4,0
1511883675209255,-3,6,13,3,-3,0,-7,5
1511883675209255,0,-7,-5,5,6,6,-3,5
1511883675224798,0,2,1,-11,-9,-5,-3,-3
1511883675224798,4,-7,9,1,6,-2,7,-1
1511883675230815,-2,-15,-18,-7,0,-6,-1,-5
1511883675230815,1,7,7,2,2,-10,2,-8
1511883675245913,4,0,-15,-7,-2,-5,1,-4
1511883675245913,-4,-6,3,-5,2,1,2,-1
1511883675246916,-2,-2,10,-1,-5,-1,2,2
1511883675246916,-5,-11,0,1,-10,-1,1,4
1511883675268974,-10,8,2,6,-6,5,4,1
1511883675268974,-1,-17,-14,3,-12,-2,1,-3
1511883675269977,0,7,-7,8,10,9,-2,-3
1511883675269977,3,-15,-7,2,6,5,-12,1
1511883675285017,-1,30,16,-2,1,3,-7,-7
1511883675285017,-2,2,-3,-6,3,-3,2,-3
1511883675291033,-4,-9,-2,-4,1,-2,5,1
1511883675291033,2,7,5,6,2,1,7,2
1511883675308078,9,-7,2,-9,-9,-3,-1,2
1511883675308078,6,0,2,0,2,-5,-4,3
1511883675309081,-2,-4,9,-2,-3,-8,-1,-2
1511883675309081,2,13,-4,-1,-2,-2,1,0
1511883675329136,1,-13,-4,4,-2,3,2,1
1511883675329136,7,7,-1,0,1,2,-3,-3
1511883675329637,13,-21,0,3,11,2,-7,3
1511883675329637,-4,-4,5,2,4,0,-3,-5
1511883675344177,3,-13,0,1,-1,7,-2,7
1511883675344177,-9,14,2,-3,-13,2,2,3
1511883675350208,-5,4,-6,-4,-12,-4,11,1
1511883675350208,-7,-4,-12,-11,-13,-7,0,1
1511883675366236,-5,-2,-9,2,1,1,1,-2
1511883675366236,-5,-9,-8,3,-1,8,-6,-4
1511883675367254,-2,16,6,1,1,5,-9,-5
1511883675367254,-4,0,5,-3,1,2,1,-3
1511883675388295,0,9,-4,-2,8,-6,-4,2
1511883675388295,0,-8,-6,-1,5,-1,-2,7
1511883675389297,1,-4,-6,0,-3,0,-2,-1
1511883675389297,-4,-7,-5,-1,1,-4,4,4
1511883675404337,-3,2,4,3,-8,-6,1,-6
1511883675404337,-7,1,5,7,-5,-5,1,-9
1511883675410353,-10,5,13,5,-6,-8,0,0
1511883675410353,1,1,-1,3,1,-5,1,-6
1511883675426397,3,-3,-2,-2,1,-8,1,3
1511883675426397,-1,-6,0,-8,5,8,0,3
1511883675427400,18,0,-4,-10,-2,11,-3,-5
1511883675427400,8,3,3,-5,-7,6,-2,-2
1511883675448457,0,-8,-4,2,-2,-4,-5,-4
1511883675448457,2,-1,0,3,-8,-3,-3,-2
1511883675449459,-4,-32,-16,2,6,-1,3,3
1511883675449459,-5,-1,1,0,5,-2,-1,3
1511883675464499,-12,-2,-5,-6,-2,-1,2,0
1511883675464499,-7,1,4,12,13,3,1,4
1511883675470515,-4,-1,4,-1,-1,-5,4,4
1511883675470515,9,1,4,-1,-7,-6,6,11
1511883675486558,9,-1,-16,-2,-2,2,-2,5
1511883675486558,2,4,-5,-1,3,1,-4,-3
1511883675487560,-2,2,-5,0,1,-1,-3,-11
1511883675487560,10,25,4,-1,0,-2,-2,-14
1511883675508616,1,2,13,-4,-3,-3,-3,-11
1511883675508616,-1,-1,6,-4,-5,0,0,-4
1511883675509619,-7,18,-5,-8,-7,5,-7,-2
1511883675509619,-13,-19,-7,-2,-4,4,-8,7
1511883675525162,0,5,1,1,7,7,1,6
1511883675525162,-3,-5,-10,-2,8,4,3,5
1511883675530704,4,6,9,2,7,1,-1,1
1511883675530704,2,-7,-1,3,2,1,1,-3
1511883675546721,5,-14,-8,2,-3,-2,-2,3
1511883675546721,1,-7,-7,1,-3,-3,-2,-1
1511883675546721,-5,-12,-6,-4,-6,0,-1,-4
1511883675546721,-1,-3,11,3,-2,1,-3,-3
1511883675568779,2,2,2,-1,0,-1,0,-4
1511883675568779,-4,6,-2,-4,-4,-3,2,-13
1511883675569782,-6,7,-6,-2,-1,-6,0,0
1511883675569782,-2,-1,-5,1,4,3,-2,-3
1511883675584822,-1,-12,1,-3,-3,-2,1,1
1511883675584822,-2,15,4,4,0,-1,-6,9
1511883675590838,-2,-2,-10,-5,-2,-3,-2,2
1511883675590838,-5,-12,-12,-4,0,-5,4,5
1511883675605878,1,7,-4,-1,1,-4,5,4
1511883675605878,5,9,-5,-3,-8,-6,2,-1
1511883675606880,-6,-14,2,3,-7,-6,-1,-5
1511883675606880,1,8,1,-3,-9,-6,-2,-6
1511883675628942,-7,7,1,-4,2,3,-4,-12
1511883675628942,0,11,11,-1,-4,-1,-9,-5
1511883675629944,0,-3,2,-1,-6,-2,-4,2
1511883675629944,-2,19,-1,-1,8,0,0,4
1511883675645014,-6,1,4,-3,6,-1,4,6
1511883675645014,4,-14,-3,-1,9,-1,10,-1
1511883675651056,14,6,2,6,0,-1,7,-1
1511883675651056,9,-13,-8,-3,-7,-5,1,-1
1511883675666069,-1,27,5,6,2,-2,1,-1
1511883675666069,0,-4,-5,-1,4,-11,-5,-2
1511883675673115,6,9,2,-1,3,-8,-1,-5
1511883675673115,1,-6,3,-7,-9,1,-1,-6
1511883675689130,-3,-10,-5,-2,-13,6,-4,-5
1511883675689130,-10,-12,-2,-2,-14,5,-4,4
1511883675689130,-16,-13,1,-2,5,5,-5,6
1511883675689130,1,29,8,2,6,1,-3,5
1511883675704170,0,-6,5,3,4,-2,1,-2
1511883675704170,4,-1,-16,-4,4,4,4,-8
1511883675710213,-2,-7,-4,4,3,9,10,-3
1511883675710213,1,2,-2,9,4,5,9,1
1511883675725729,-4,-25,3,7,-6,-3,0,3
1511883675725729,0,18,20,6,-7,1,-4,2
1511883675733249,-3,1,1,-7,-8,-1,-9,1
1511883675733249,0,-17,7,-1,-2,-2,-6,-4
1511883675748290,10,15,2,-6,-3,-4,2,-2
1511883675748290,2,-10,-2,-9,-2,-8,-3,-2
1511883675749294,-2,6,-6,1,6,-7,1,-3
1511883675749294,-3,-2,6,-1,6,4,1,-2
1511883675764333,-8,-15,-9,-2,4,-2,3,-5
1511883675764333,5,-1,-7,-3,9,1,2,0
1511883675770349,9,0,-2,1,15,0,0,2
1511883675770349,4,10,-10,-11,-1,-2,1,9
1511883675785389,3,-3,-1,8,7,7,1,2
1511883675785389,-1,-4,-5,4,-3,5,-3,-2
1511883675793410,0,8,-4,-4,-11,1,-2,-4
1511883675793410,-5,-5,-3,5,-3,-4,-5,-2
1511883675808450,-12,18,10,-8,-16,-5,-3,8
1511883675808450,-1,-1,2,1,-4,1,3,7
1511883675809453,-7,-12,-1,-4,4,6,4,-7
1511883675809453,2,-3,4,1,5,-3,4,-9
1511883675824996,9,-7,-4,-3,3,0,1,-5
1511883675824996,-2,-12,0,4,8,-4,-1,-1
1511883675831012,-2,-9,-3,-14,-12,-3,-2,2
1511883675831012,-4,3,9,-6,-11,-4,-7,-3
1511883675845552,11,13,-6,5,-2,-2,-5,2
1511883675845552,0,-5,-8,0,0,-2,-3,0
1511883675861595,-8,1,13,4,7,7,1,-2
1511883675861595,-4,1,-3,-3,-1,-3,3,-4
1511883675868613,-7,-7,9,-1,7,-1,0,1
1511883675868613,0,-1,2,4,6,-1,-1,-1
1511883675869616,11,4,-19,2,1,-8,-1,-4
1511883675869616,0,-10,-3,0,-10,-1,0,-3
1511883675884656,3,-1,-4,0,-1,-1,2,-3
1511883675884656,-4,0,-4,-4,-8,1,-2,0
1511883675890672,-1,14,23,-11,-14,-1,-3,0
1511883675890672,-2,-6,-6,-4,2,9,-2,4
1511883675905713,-4,-18,-32,-11,-3,-2,-7,-2
1511883675905713,4,25,54,9,0,5,1,3
1511883675912733,3,-13,-23,3,-2,-1,-2,3
1511883675912733,3,-4,-12,1,-8,-2,-2,2
1511883675929281,-2,-5,-2,0,0,3,1,2
1511883675929281,-3,-2,0,0,-2,-7,-2,2
1511883675929783,-1,9,4,7,2,-5,-2,4
1511883675929783,0,18,11,8,8,-1,-2,3
1511883675944525,2,-1,-23,-8,2,-4,4,-3
1511883675944525,1,-5,-12,-6,-4,0,10,-6
1511883675950597,12,5,17,0,-5,-1,5,-7
1511883675950597,-11,-13,-28,-25,-7,-6,-5,-11
1511883675965638,-4,16,23,6,4,-6,-8,0
1511883675965638,-5,-7,-13,-6,-1,-11,-11,1
1511883675973600,-4,6,3,3,0,0,-3,3
1511883675973600,-4,-13,-8,1,0,-4,0,4
1511883675988642,-4,-5,5,-4,-6,3,4,0
1511883675988642,-4,-11,-2,4,1,1,7,1
1511883675989645,2,-10,0,11,5,6,-1,-3
1511883675989645,8,12,15,4,-6,0,-5,-4
1511883676004683,9,2,3,-2,-8,-2,-9,-4
1511883676004683,-3,-9,0,1,3,-3,-2,3
1511883676010830,-4,13,-7,-6,4,-7,-6,5
1511883676010830,-4,-5,-2,0,9,-12,-4,6
1511883676026244,-3,1,-7,5,4,-13,3,0
1511883676026244,-4,-1,-3,-4,0,-9,3,-6
1511883676033394,8,9,9,0,1,-11,10,-8
1511883676033394,-12,-6,-2,-8,-2,-2,8,-6
1511883676048497,6,7,10,-5,5,-5,1,-1
1511883676048497,7,5,-3,2,-6,-2,2,-6
1511883676049434,-9,-10,-3,-6,6,1,3,5
1511883676049434,-4,-9,-6,14,5,1,0,1
1511883676064474,-9,-25,2,0,-10,4,-3,2
1511883676064474,4,11,-4,-2,-5,1,-4,-1
1511883676070508,-1,-2,-10,1,1,-1,-6,-5
1511883676070508,13,-5,-2,5,-4,-5,-1,-1
1511883676108704,-1,-9,27,7,4,7,-1,5
1511883676108704,0,6,50,1,-4,1,-5,1
1511883676117616,-10,-6,11,1,-12,3,-8,3
1511883676117616,-1,8,4,-4,1,5,-2,2
1511883676132360,13,13,-22,4,5,6,1,-2
1511883676132360,0,-12,-36,-6,-2,11,4,0
1511883676133766,-4,1,-11,-11,-13,12,5,-1
1511883676133766,-1,-2,-20,12,5,23,5,-5
1511883676147431,3,6,6,0,-4,25,0,-3
1511883676147431,2,0,-19,-2,5,20,-4,-2
1511883676148435,1,7,-12,-2,-6,6,-4,0
1511883676148435,-7,-6,6,-1,2,0,-7,3
1511883676160489,-9,-5,0,-1,5,3,-2,1
1511883676160489,5,4,-3,-11,4,-10,-4,1
1511883676169489,4,-17,0,4,6,-4,2,-6
1511883676169489,24,11,6,5,3,-5,4,-2
1511883676184556,4,-5,0,-1,1,0,2,-3
1511883676184556,-11,0,-1,-4,-7,-5,2,1
1511883676186534,-6,-5,1,-6,-4,-11,-8,1
1511883676186534,-9,-1,-3,-2,-6,-10,-10,3
1511883676198566,-6,-3,-3,-1,-4,-13,-7,-2
1511883676198566,5,-8,1,8,2,-11,-1,3
1511883676205585,10,10,-2,5,-1,-6,2,2
1511883676205585,2,4,6,4,-11,5,7,-4
1511883676213607,-3,4,4,-5,-24,-5,8,-3
1511883676213607,-13,-18,-10,-10,-20,-7,1,-8
1511883676221629,1,-2,0,0,-6,-9,-1,1
1511883676221629,3,8,-1,-6,-3,-10,-2,2
1511883676236697,-3,-4,-5,2,6,-3,-5,-4
1511883676236697,17,6,1,-1,0,-3,0,-4
1511883676237172,-25,4,1,0,9,-3,-5,0
1511883676237172,-5,-3,4,0,9,-2,-15,-11
1511883676259232,5,1,-11,-2,5,-5,-5,5
1511883676259232,-5,-1,2,0,6,1,-4,-4
1511883676260235,3,0,-9,0,-3,6,8,-5
1511883676260235,-11,-8,-3,-1,-4,1,8,4
1511883676274299,-10,-2,9,5,-1,-1,3,9
1511883676274299,-6,-3,-2,6,3,-1,1,22
1511883676274299,-5,-6,-5,-1,3,-2,-9,-10
1511883676274299,1,-5,5,5,9,9,12,31
1511883676296330,12,-2,-3,0,7,1,2,-6
1511883676296330,-6,7,4,-5,6,5,10,6
1511883676297333,4,-5,8,-6,-1,1,-2,0
1511883676297333,5,1,-1,-4,-6,-3,-7,-14
1511883676304352,-8,3,-2,6,2,-2,-9,-8
1511883676304352,21,5,1,5,-2,-2,-9,-14
1511883676310397,-19,-9,-10,5,2,-7,-5,-2
1511883676310397,-6,-3,-2,-9,0,-2,-4,4
1511883676325913,-16,7,-3,-8,0,4,-4,8
1511883676325913,-15,-5,2,-5,-3,-2,1,-1
1511883676333433,12,1,2,-9,-10,3,-1,16
1511883676333433,7,-4,0,-1,-3,5,-8,-14
1511883676349179,-4,-4,9,-2,1,-1,-2,-23
1511883676349179,-6,-6,-14,0,6,3,-5,-13
1511883676349179,3,4,16,8,2,-1,10,1
1511883676349179,-6,-5,-4,-3,-1,-8,6,9
1511883676364193,2,0,0,-4,-1,-4,3,15
1511883676364193,-2,-1,-7,-1,-3,0,2,10
1511883676370208,1,0,0,6,1,-2,-2,4
1511883676370208,7,0,-1,4,0,-3,1,5
1511883676385248,3,-3,-7,2,-6,-1,-3,4
1511883676385248,3,2,2,-6,-2,5,-5,3
1511883676393269,-4,-3,2,-7,-2,6,-2,-6
1511883676393269,-6,4,12,-2,5,4,1,-8
1511883676408309,6,-4,1,4,7,1,3,1
1511883676408309,-1,2,9,5,4,0,-5,-3
1511883676409312,10,4,-6,4,-1,-8,-5,7
1511883676409312,-3,-3,-8,-3,-4,-10,-4,-3
1511883676424352,-7,-9,-12,-6,-2,-8,-1,-1
1511883676424352,-5,7,-6,-3,4,-6,3,0
1511883676430871,0,-4,-11,-4,0,3,7,-11
1511883676430871,6,3,-7,0,1,3,5,-7
1511883676446026,4,4,1,-5,-2,3,3,-5
1511883676446026,10,16,17,2,2,-2,-4,7
1511883676453045,1,-1,9,-5,-7,-7,-7,11
1511883676453045,6,4,-2,1,-7,-5,-5,2
1511883676469088,0,-3,-1,-8,-9,0,2,3
1511883676469088,-5,-6,-8,0,-2,4,9,-12
1511883676469088,-3,-3,1,5,5,2,1,-6
1511883676469088,-15,-7,0,2,-2,3,-1,1
1511883676485131,-8,4,-3,1,6,1,0,1
1511883676485131,-12,1,-2,-1,-1,0,1,-4
1511883676490144,4,-2,-11,0,6,6,7,-11
1511883676490144,-1,-3,0,-6,-2,0,-1,-16
1511883676505184,5,2,2,4,1,2,1,-16
1511883676505184,7,-5,-3,-1,-8,0,-1,-9
1511883676513232,1,4,11,3,-8,0,0,-4
1511883676513232,4,-8,-2,-5,-12,1,-2,1
1511883676529252,8,-12,-1,5,-13,-6,-5,-4
1511883676529252,-5,-2,0,5,-12,-3,-5,-11
1511883676529754,-7,-4,2,-5,-9,-5,-7,-6
1511883676529754,-9,-13,-11,1,4,1,-5,-5
1511883676544292,0,12,12,3,4,-3,-3,-4
1511883676544292,-5,-12,-9,-3,9,2,-6,-4
1511883676550316,-9,-9,-4,-6,0,2,4,-6
1511883676550316,-5,-9,-6,0,3,4,12,-8
1511883676565348,-8,3,-2,1,1,0,5,-18
1511883676565348,-7,-1,0,3,3,1,0,-17
1511883676573370,3,12,3,-3,-7,3,-2,-6
1511883676573370,5,9,9,1,4,-4,-3,-7
1511883676588436,2,4,1,-2,-3,-11,-3,1
1511883676588436,3,2,-6,1,-7,-10,0,9
1511883676589424,-7,-5,-11,3,3,0,-7,10
1511883676589424,6,16,5,2,-1,4,-6,11
1511883676604452,11,-6,-2,-3,-1,7,-3,8
1511883676604452,12,-1,-2,1,1,1,-2,6
1511883676610468,8,2,5,-2,2,-2,0,-3
1511883676610468,-2,7,1,-1,2,-6,5,-1
1511883676626013,-12,2,0,-3,10,-3,-1,0
1511883676626013,-7,-10,-2,-2,5,-4,0,3
1511883676633545,2,-6,4,-1,-4,4,4,7
1511883676633545,1,11,-1,-2,0,8,-6,5
1511883676648122,-5,0,-4,-2,-8,-1,-2,0
1511883676648122,3,13,-3,1,11,1,5,7
1511883676655142,-1,1,-1,1,2,-3,3,3
1511883676655142,-7,-9,3,6,9,-7,0,-2
1511883676664165,-8,-8,-3,-2,0,-9,-3,3
1511883676664165,-5,-1,9,2,-6,-5,-5,4
1511883676670181,-9,-12,-6,5,12,4,-2,0
1511883676670181,4,4,-4,-3,4,7,5,0
1511883676685248,3,1,-6,3,4,0,0,-1
1511883676685248,8,11,0,-6,-14,-5,1,0
1511883676693244,11,6,11,6,-3,-1,3,-8
1511883676693244,-3,-3,5,-9,-1,-3,-4,2
1511883676716304,8,-6,7,-3,3,1,3,10
1511883676716304,-6,-2,-6,-2,11,6,-4,7
1511883676717306,-2,5,-3,-2,-7,1,-2,3
1511883676717306,0,1,-3,5,-11,0,-3,6
1511883676724326,-8,-6,-9,-4,-2,3,-7,2
1511883676724326,-3,3,0,-1,-7,0,-11,5
1511883676730871,-9,-12,-2,-1,7,-5,-13,9
1511883676730871,-2,-16,15,7,2,-2,-7,7
1511883676745412,-7,11,5,4,-2,6,0,8
1511883676745412,-10,-9,6,0,-9,4,-1,2
1511883676761482,1,0,-5,-2,-5,-7,-2,-4
1511883676761482,1,2,-17,-11,-8,-13,-4,-7
1511883676768487,5,19,4,7,-4,-12,-7,-9
1511883676768487,1,1,-3,-7,6,-5,7,-10
1511883676775519,6,8,-4,-3,5,-2,9,-4
1511883676775519,3,-3,-4,-8,0,-1,5,0
1511883676791562,3,-8,0,-4,-2,-2,2,-5
1511883676791562,-2,-7,1,-1,2,-5,-1,-3
1511883676792557,-1,10,7,-8,-1,-11,4,7
1511883676792557,-7,-8,1,-1,7,2,6,-4
1511883676805572,0,2,-2,-2,1,8,8,0
1511883676805572,2,-15,2,4,-8,10,7,-4
1511883676813594,6,-1,-8,0,-7,12,5,-2
1511883676813594,-6,8,9,4,-2,6,0,0
1511883676828637,-3,2,5,-1,-5,-6,-4,9
1511883676828637,16,8,7,0,6,-2,-6,7
1511883676835682,-3,-1,-3,-5,-5,-11,-7,-3
1511883676835682,8,-1,-5,4,3,-5,-4,4
1511883676851261,-16,-4,-3,-2,-3,-4,3,-9
1511883676851261,13,5,-15,-3,-5,-3,4,2
1511883676852263,-1,1,0,-3,4,5,-5,-13
1511883676852263,14,-5,-4,-4,-3,4,-5,19
1511883676865298,3,-3,-2,-6,-4,2,-17,-17
1511883676865298,-8,-3,3,2,-1,6,6,28
1511883676873319,11,3,1,2,3,3,1,4
1511883676873319,-8,-2,-1,-4,3,-3,-3,-15
1511883676888359,23,-4,-2,-3,8,1,11,13
1511883676888359,22,0,7,2,-7,-7,-1,8
1511883676895378,-13,-7,0,7,-3,-1,0,7
1511883676895378,-11,5,2,8,-9,-2,-2,-9
1511883676911475,1,-5,-10,3,-4,-5,3,2
1511883676911475,-8,1,-3,-1,1,-2,2,-13
1511883676912427,1,-7,2,3,6,11,10,-4
1511883676912427,17,4,-1,-8,-9,7,4,5
1511883676926119,-5,-2,-3,-10,-2,11,5,0
1511883676926119,-6,2,-2,-3,-1,6,-1,-6
1511883676933560,7,-15,16,4,-1,-7,-8,5
1511883676933560,-2,1,-10,-1,-3,-7,0,-1
1511883676948132,-5,-6,3,0,2,-5,5,10
1511883676948132,-12,-9,-16,-3,-3,-6,-8,-8
1511883676956150,-8,4,-2,-3,3,-1,-15,-21
1511883676956150,7,-10,-3,0,6,9,-1,16
1511883676971386,-26,-8,-4,5,-1,2,-12,-11
1511883676971386,0,-2,-1,-3,4,1,-4,6
1511883676972194,5,7,-2,-3,3,0,6,4
1511883676972194,3,-1,5,0,3,-2,10,5
1511883676986231,7,-5,-4,4,-1,-6,10,5
1511883676986231,-4,5,-2,1,-4,-6,5,-6
1511883676993443,-6,-10,-11,-1,-6,-4,-2,2
1511883676993443,1,18,2,-5,-7,-3,-7,3
1511883677008386,9,8,5,-1,0,7,-6,21
1511883677008386,1,-4,0,-5,-9,4,-11,9
1511883677015416,8,8,0,12,10,3,-1,22
1511883677015416,-6,-23,-2,-4,2,0,-2,8
1511883677031857,-8,4,6,2,12,-1,-4,5
1511883677031857,-2,-15,-1,-15,-5,-7,1,7
1511883677032359,1,11,-10,-10,-1,0,-1,16
1511883677032359,-10,-12,3,3,1,-6,3,7
1511883677045294,-3,-12,3,5,-2,-3,7,3
1511883677045294,-1,8,3,9,4,0,4,-6
1511883677053317,4,3,-6,11,5,3,6,-14
1511883677053317,7,7,-5,-1,2,7,1,-27
1511883677068390,13,8,-9,-11,-7,-11,-5,-15
1511883677068390,-4,1,6,-5,-2,-8,0,-18
1511883677075497,-14,-3,1,-2,1,-9,-3,-19
1511883677075497,-12,-10,-4,4,1,-7,-6,-20
1511883677091541,4,11,2,7,-2,3,0,-10
1511883677091541,10,-9,-7,6,4,2,-2,-9
1511883677092455,-2,2,0,0,-2,2,-4,-11
1511883677092455,7,41,6,10,11,4,0,-3
1511883677105452,8,-6,-12,-12,-5,-15,-3,-7
1511883677105452,2,7,10,-9,-9,-8,2,-8
1511883677113510,0,-6,-6,-11,-12,-10,3,2
1511883677113510,2,-8,-2,-11,-8,1,-2,-3
1511883677128648,-34,-15,-3,-5,7,11,-1,-4
1511883677128648,-2,1,12,11,9,8,-4,14
1511883677136205,3,6,6,8,11,8,0,24
1511883677136205,-14,1,-4,0,-1,-2,2,19
1511883677152716,14,4,1,-2,2,4,7,53
1511883677152716,-3,0,-2,-3,5,-2,4,46
1511883677153721,0,-5,5,-6,-6,2,-1,31
1511883677153721,-1,-4,4,3,3,-1,-7,11
1511883677165782,12,-13,-4,-6,-15,1,-6,-12
1511883677165782,-15,6,-5,-3,-12,-3,-1,-24
1511883677172769,8,-1,-4,5,-10,-5,-4,-25
1511883677172769,-5,-12,-3,5,-7,-10,-2,-27
1511883677187834,-2,16,2,8,1,1,-8,-23
1511883677187834,0,0,-8,2,-4,0,-15,-33
1511883677195830,0,-3,0,6,-6,1,11,9
1511883677195830,-4,-10,1,-6,-7,0,5,-27
1511883677210897,5,0,4,-5,-8,-5,6,14
1511883677210897,18,1,0,-5,1,-6,6,-1
1511883677211879,-2,12,6,2,6,0,0,-25
1511883677211879,21,8,-3,4,-9,8,0,-7
1511883677225936,-16,-9,-8,0,-15,9,1,-17
1511883677225936,2,-9,-6,3,-7,8,3,-1
1511883677233488,-4,12,4,-7,-14,1,-6,-2
1511883677233488,8,6,5,1,-7,-4,-2,5
1511883677248046,4,-11,-3,-1,-10,-9,-7,-1
1511883677248046,-12,-6,7,-1,-2,-5,-4,0
1511883677256067,-14,-14,-12,-9,3,-1,-3,-8
1511883677256067,-4,4,-7,-6,8,2,3,7
1511883677271115,15,6,0,1,10,3,5,-2
1511883677271115,-13,5,-13,-4,1,-2,1,-4
1511883677272096,12,16,6,3,7,-6,-2,4
1511883677272096,19,12,-3,0,3,-3,-4,3
1511883677287148,-10,-26,0,2,11,0,-6,-6
1511883677287148,11,1,4,-1,10,3,1,-3
1511883677293169,-12,-9,-8,-10,0,2,-5,-4
1511883677293169,-18,-9,10,-2,5,1,2,14
1511883677308205,-11,-5,9,3,5,2,0,-6
1511883677308205,-16,-4,7,6,-5,0,-5,4
1511883677315227,20,-23,-1,-3,-12,-9,-4,17
1511883677315227,-36,-4,-8,-4,-7,-7,-6,-15
1511883677331773,12,16,-2,-3,3,-2,5,5
1511883677331773,20,8,-2,1,8,-5,5,-3
1511883677332305,-29,-1,-2,4,2,-6,6,-10
1511883677332305,-6,-2,9,2,-5,-5,2,-1
1511883677346862,-8,14,-3,-4,-8,2,-7,-2
1511883677346862,-7,-6,-4,-2,0,7,1,7
1511883677352854,8,7,1,-2,5,8,1,-5
1511883677352854,-17,-5,-1,-4,3,2,-4,-20
1511883677367922,14,10,5,1,6,2,6,50
1511883677367922,-5,-4,-5,2,3,2,-3,-11
1511883677375943,-1,-8,-5,-1,-5,3,-2,-11
1511883677375943,11,-5,2,-3,-2,-2,1,-14
1511883677390983,-18,-7,-5,-6,-10,-10,-4,-20
1511883677390983,13,6,1,0,-6,0,-6,-5
1511883677391960,-20,-9,-6,1,-1,1,-2,-16
1511883677391960,2,1,3,4,5,1,-5,-3
1511883677406999,2,3,3,-1,8,-4,0,-16
1511883677406999,-5,-4,2,-11,4,-5,3,5
1511883677413015,4,18,4,-6,-3,-3,3,-4
1511883677413015,11,-14,-12,-2,2,-2,0,0
1511883677428585,-3,-4,-7,-6,8,3,5,-18
1511883677428585,-9,-5,-1,3,9,7,4,-5
1511883677435604,6,-1,5,-2,2,-1,-4,10
1511883677435604,6,-7,1,1,-2,2,-1,12
1511883677451170,-2,8,0,4,-4,-1,-9,0
1511883677451170,12,-3,-4,1,-6,1,0,5
1511883677452173,1,-6,4,2,-4,2,2,8
1511883677452173,42,25,-3,-3,-9,-2,1,16
1511883677467202,-10,-29,-9,-4,-5,3,4,-7
1511883677467202,6,26,-2,-4,-11,-2,-2,-7
1511883677473229,13,15,-1,7,10,8,0,11
1511883677473229,-13,-5,4,2,5,4,-7,-1
1511883677488246,25,2,-7,6,3,1,2,-5
1511883677488246,-15,-10,4,-7,-4,-5,-3,3
1511883677495265,-5,-11,3,-9,-5,-2,-3,-3
1511883677495265,-1,-3,1,-13,-3,-6,0,6
1511883677511308,5,9,13,2,5,-6,-3,9
1511883677511308,-2,-6,-4,1,5,-1,-2,4
1511883677512309,0,-11,-10,-3,-2,1,5,-5
1511883677512309,-4,-15,-5,4,2,6,2,3
1511883677527378,-13,-4,4,6,-1,-3,2,-1
1511883677527378,-4,16,3,6,4,-8,5,-12
1511883677533421,-4,1,-3,4,-2,-7,-3,-4
1511883677533421,0,-8,-9,-4,-4,-3,-6,-3
1511883677548463,1,-11,-3,-8,-3,-2,-7,1
1511883677548463,0,6,-3,-1,1,0,-6,8
1511883677555454,-10,-14,-2,-1,0,4,4,-1
1511883677555454,-4,16,9,-2,-2,1,6,-1
1511883677570494,15,1,3,-6,-6,-2,-3,-9
1511883677570494,2,-8,-4,2,-2,-3,-1,-6
1511883677578515,0,5,-1,2,-3,-5,-4,-9
1511883677578515,-7,2,-1,1,0,1,-3,-2
1511883677587539,3,2,3,-6,-7,5,0,1
1511883677587539,-6,-6,3,1,-1,3,3,4
1511883677593555,1,-2,-4,0,-3,-7,-3,4
1511883677593555,2,-1,-8,5,0,-8,0,5
1511883677608601,-5,0,-1,4,-2,1,3,1
1511883677608601,3,-8,4,0,-4,9,5,-6
1511883677615641,0,2,3,0,0,4,4,-6
1511883677615641,1,-5,5,-2,-1,-2,-4,1
1511883677630710,3,-1,0,-6,-4,-7,-6,3
1511883677630710,-3,-10,0,0,-2,-3,-3,2
1511883677638227,0,9,5,-2,4,3,-4,2
1511883677638227,-6,-1,3,2,-5,-1,0,-4
1511883677653792,7,8,0,0,-1,-3,0,-10
1511883677653792,8,1,-1,0,-3,-5,-1,-10
1511883677654795,1,4,5,8,7,-6,0,-1
1511883677654795,-2,-2,0,-2,-7,-3,6,2
1511883677667837,-4,11,5,2,10,4,1,4
1511883677667837,-4,5,3,-6,-2,-2,2,5
1511883677675827,1,-18,-9,1,1,-1,3,9
1511883677675827,-8,-6,-16,0,0,2,0,2
1511883677690894,-9,-9,-5,3,7,8,0,-2
1511883677690894,4,7,-8,-9,-5,-4,-5,1
1511883677697916,-1,-1,-1,-3,3,1,-3,-7
1511883677697916,-4,-16,-4,-2,-2,2,-6,-9
1511883677706911,1,12,-2,-1,-5,2,-5,-5
1511883677706911,-7,-3,-3,7,9,3,-6,-2
1511883677712953,-2,3,-2,1,-13,-8,-8,0
1511883677712953,-2,-7,-2,3,-1,0,0,7
1511883677728496,-1,9,12,4,-12,-3,4,5
1511883677728496,-11,-3,11,5,8,5,3,-4
1511883677736043,9,-5,-6,-2,-8,0,4,2
1511883677736043,-2,-3,-5,-6,9,6,2,-7
1511883677750149,11,23,4,4,-1,-15,0,9
1511883677750149,-2,-2,-3,-5,-11,-8,4,10
1511883677758196,-2,6,-5,-4,2,-5,2,4
1511883677758196,4,3,-6,0,6,-2,2,0
1511883677774213,-1,-11,-9,1,4,4,-1,-6
1511883677774213,-5,-15,-5,1,-1,4,1,0
1511883677774213,-1,15,11,0,1,6,-4,-4
1511883677774213,-2,2,-9,0,-3,3,-1,-1
1511883677788276,-5,-5,-7,1,-3,0,0,-2
1511883677788276,-7,14,-3,4,-7,-7,-3,-5
1511883677795267,-8,-12,1,-5,-6,1,1,-6
1511883677795267,-12,2,12,3,13,0,-1,-5
1511883677810335,-3,2,4,-13,-1,-2,-3,-1
1511883677810335,14,-3,7,-7,-12,-4,0,4
1511883677818356,4,8,11,-1,-5,-3,6,5
1511883677818356,9,15,6,-1,-9,-5,-1,2
1511883677834386,-13,-27,-10,7,4,-1,-5,-5
1511883677834386,-2,-4,-6,12,10,8,0,4
1511883677834877,1,-2,-21,-18,-13,-5,-2,5
1511883677834877,1,-7,-10,-4,-8,4,0,6
1511883677848470,-11,-18,-4,-1,2,4,-9,-4
1511883677848470,2,19,-1,6,22,9,0,-6
1511883677855489,-4,-15,-7,3,9,2,-1,-11
1511883677855489,-2,8,-6,-3,-7,-10,1,-3
1511883677872534,7,14,9,-2,-5,-6,2,4
1511883677872534,2,1,13,-10,-5,-8,-4,-1
1511883677878523,-7,-20,6,-6,-7,-4,0,6
1511883677878523,5,27,19,-5,0,0,-3,3
1511883677893564,-15,-24,9,1,-5,2,0,0
1511883677893564,3,14,2,-3,-6,-6,-1,-1
1511883677894567,8,25,0,6,9,5,1,-6
1511883677894567,7,-5,5,-2,1,-1,3,-6
1511883677908689,4,-1,0,1,1,5,3,-7
1511883677908689,10,-7,-8,-10,-4,2,2,-2
1511883677915750,-1,-32,-6,0,1,-3,-2,5
1511883677915750,1,30,8,2,-2,-8,-1,8
1511883677930820,-3,4,-4,2,0,-8,-3,9
1511883677930820,-8,-9,-7,3,-5,0,-2,5
1511883677938316,-6,9,2,3,-8,-1,-6,3
1511883677938316,-8,-15,9,9,3,5,-2,-2
1511883677977161,-7,-2,-6,-2,-5,-3,4,-5
1511883677977161,-3,-6,-13,-3,-1,-3,3,-6
1511883677979063,-2,-4,-6,4,10,4,1,-6
1511883677979063,8,-7,-9,-2,0,1,-2,-3
1511883677991098,-1,-9,4,-3,1,2,2,-2
1511883677991098,5,-10,-5,-4,0,-4,-4,-8
1511883678000148,-11,-2,-3,-3,3,-5,-7,-7
1511883678000148,-2,-19,3,-3,0,1,-6,-6
1511883678015180,11,-2,0,-7,-9,-1,-4,-3
1511883678015180,7,-12,1,-4,-7,-6,0,-8
1511883678016163,2,2,-5,-7,2,-3,9,11
1511883678016163,-5,-7,-6,-2,4,0,4,8
1511883678029834,-10,-4,-6,3,9,5,-2,3
1511883678029834,-9,5,-13,-1,0,2,1,-3
1511883678031208,9,-1,3,2,-3,-5,-2,-7
1511883678031208,5,9,-4,3,4,-2,0,-4
1511883678044005,8,8,-1,2,-5,-6,-2,-2
1511883678044005,1,-6,6,1,-4,-4,-6,6
1511883678051023,-9,-2,11,3,-2,2,-9,4
1511883678051023,-6,-1,6,2,-1,3,-2,5
1511883678067067,-3,2,3,-2,-2,1,3,-4
1511883678067067,-6,-9,-5,-4,-2,1,4,-2
1511883678069077,2,15,3,0,-3,2,9,-5
1511883678069077,11,-8,-16,-2,4,-8,0,4
1511883678082303,-27,-1,-1,-3,9,-9,-4,-10
1511883678082303,0,0,1,-4,5,-3,-5,-2
1511883678084149,18,9,9,4,6,4,-5,-7
1511883678084149,1,-27,-12,-2,-10,3,-5,-3
1511883678104168,13,21,-5,2,-4,3,-4,-10
1511883678104168,0,-5,1,3,-4,4,0,9
1511883678105168,1,16,-10,-9,-10,-3,-2,2
1511883678105168,-7,4,3,0,-1,-3,-2,-8
1511883678119300,-19,3,-7,-2,5,-2,-2,3
1511883678119300,-5,-5,-2,2,4,-2,-5,-6
1511883678119300,-5,-5,-6,3,2,0,-1,3
1511883678119300,-10,-5,-2,2,3,4,1,-2
1511883678141310,11,-3,-4,-6,-7,-4,-3,-7
1511883678141310,6,3,5,3,-7,1,2,4
1511883678148871,9,-7,-1,1,-7,-2,0,-7
1511883678148871,10,11,2,0,-3,-2,0,-5
1511883678178950,-9,-3,6,2,6,5,1,-4
1511883678178950,-6,10,5,-3,5,2,-2,1
1511883678180965,-7,-12,-4,-6,-1,3,5,0
1511883678180965,-2,4,5,-2,-7,1,2,-6
1511883678194992,10,9,-11,0,-1,0,1,6
1511883678194992,-2,4,-7,2,1,1,-2,-3
1511883678195996,-1,-4,0,3,0,-1,-1,-1
1511883678195996,-10,3,-6,-2,-8,3,-2,-4
1511883678208027,1,-5,4,2,-9,-1,-1,6
1511883678208027,-5,-1,4,-1,-8,-7,-5,-2
1511883678217052,0,0,3,-1,2,-8,-7,2
1511883678217052,-4,-3,-9,-6,0,-3,-6,-2
1511883678232120,8,-4,-11,0,1,7,4,5
1511883678232120,-2,2,-11,-1,4,1,2,6
1511883678233625,5,0,-7,-3,-2,0,-1,4
1511883678233625,-9,0,2,1,-2,-4,0,6
1511883678247162,-1,-5,-1,-2,-2,-6,-2,-1
1511883678247162,0,0,9,-3,5,-6,-4,-6
1511883678248165,-2,-8,9,-3,1,-3,-2,-7
1511883678248165,0,5,7,1,3,0,-2,-5
1511883678262202,-4,-8,-6,2,-3,4,3,2
1511883678262202,-3,3,-13,-6,-12,10,4,1
1511883678269252,-10,-7,8,6,-11,5,0,-3
1511883678269252,-1,-21,-7,6,4,8,3,1
1511883678276246,15,5,10,0,-4,-3,1,1
1511883678276246,5,-9,-2,0,2,-1,-1,2
1511883678277269,0,0,-2,-3,5,2,-2,-1
1511883678277269,-3,8,6,-4,4,4,7,5
1511883678290304,2,12,5,0,3,-8,4,3
1511883678290304,-5,-9,0,-2,5,-3,-2,-4
1511883678298299,-3,13,-3,-11,-2,-2,-10,-5
1511883678298299,6,6,-6,-1,-3,-7,-9,5
1511883678313367,2,3,-4,-3,-1,-2,-7,-1
1511883678313367,-8,-4,1,0,-7,-4,1,-5
1511883678314341,-9,4,-7,8,-1,-2,4,-1
1511883678314341,0,-1,8,6,4,-3,1,-5
1511883678328408,2,-9,-1,-4,-4,0,3,-1
1511883678328408,-5,-10,11,2,5,-5,4,-1
1511883678335931,5,-2,-5,0,-2,-6,11,5
1511883678335931,-3,-6,-1,1,-8,-4,-1,4
1511883678350516,0,-12,-31,-3,-7,0,-8,7
1511883678350516,-5,2,-4,5,0,7,-12,4
1511883678358540,-1,-17,-8,-6,0,5,-4,3
1511883678358540,5,-3,5,-7,-8,3,-1,-7
1511883678373554,5,1,12,-5,4,-2,0,-8
1511883678373554,2,-1,4,2,-1,-5,0,-1
1511883678374568,4,-2,3,8,7,-7,1,4
1511883678374568,-10,6,-2,8,12,-1,0,44
1511883678388594,-8,7,10,1,-2,1,-1,50
1511883678388594,-2,1,0,-4,-7,1,2,50
1511883678395613,1,6,4,-5,-2,1,0,24
1511883678395613,0,-12,-3,-8,2,-1,1,-4
1511883678410653,-7,-12,4,7,19,8,4,-18
1511883678410653,10,1,-7,-10,-4,3,2,-17
1511883678417680,3,-7,1,5,3,4,-5,-23
1511883678417680,3,4,-8,3,4,-1,-3,-19
1511883678434254,-5,-3,5,1,-8,-4,-5,-30
1511883678434254,-2,11,-2,6,4,4,-1,-23
1511883678434755,-14,-14,-13,-1,-4,8,0,-19
1511883678434755,-1,-4,-1,-7,-6,4,-2,-20
1511883678447835,-1,-13,-13,-8,4,3,-2,-11
1511883678447835,-9,5,10,0,0,5,-2,-10
1511883678455856,11,43,10,-9,1,-3,1,4
1511883678455856,3,0,-1,6,8,-2,3,4
1511883678470895,-1,3,18,6,6,-2,-2,-7
1511883678470895,5,-1,1,-9,4,-12,-7,-12
1511883678477914,-3,6,13,7,-7,3,1,-4
1511883678477914,1,-1,0,-4,-8,-4,2,-6
1511883678492953,1,4,-1,3,-4,5,2,-8
1511883678492953,-1,-14,0,20,12,8,-4,-5
1511883678500948,-3,3,-27,1,6,0,-3,-3
1511883678500948,-2,5,-34,-7,-6,-5,2,-3
1511883678507994,4,-1,-31,-7,-3,-3,0,5
1511883678507994,23,7,-14,0,-8,-3,2,2
1511883678516015,-15,-12,-8,2,-2,-2,2,-1
1511883678516015,-1,2,10,-5,-8,-3,-1,-4
1511883678531032,0,7,9,-5,-5,-4,6,10
1511883678531032,-2,0,2,-1,-6,1,1,0
1511883678538552,-2,-12,-4,-13,-6,-5,-6,-1
1511883678538552,-2,11,23,27,17,0,-9,-3
1511883678553092,2,-5,9,-5,-6,-8,-7,-12
1511883678553092,6,10,10,4,4,-2,-2,-3
1511883678561140,4,-12,6,1,1,-1,1,0
1511883678561140,-1,-13,-3,-13,-5,3,6,1
1511883678568132,-4,-20,-3,-4,1,5,6,10
1511883678568132,-4,-5,5,-4,4,3,-3,4
1511883678575179,6,27,18,4,-1,0,-8,10
1511883678575179,7,2,5,-2,-19,1,-5,8
1511883678590217,2,1,9,9,-5,7,4,11
1511883678590217,-11,-18,8,-1,-5,-1,10,5
1511883678598238,0,24,5,3,13,-5,4,-2
1511883678598238,-5,-3,8,-5,7,-6,0,-4
1511883678613252,-3,7,2,-4,4,-6,-4,-8
1511883678613252,0,-1,0,-8,-1,-1,-3,-3
1511883678621273,0,-7,-4,0,-2,3,-3,-10
1511883678621273,-6,1,-1,-2,5,6,0,-13
1511883678636343,-8,17,0,5,-4,0,-6,-6
1511883678636343,-7,-8,-11,-3,-8,-2,-3,-13
1511883678637346,2,1,-7,-2,7,-1,0,-6
1511883678637346,0,3,-1,-3,1,-6,-1,-7
1511883678650383,1,-11,-3,-7,3,-6,7,-4
1511883678650383,5,-2,-43,-4,-5,-9,2,4
1511883678658404,-3,-21,-82,-3,-7,-6,-2,6
1511883678658404,-5,3,-81,2,-7,-1,2,11
1511883678673470,-7,-4,-49,4,-4,2,1,5
1511883678673470,-1,-3,0,7,-6,-2,1,-1
1511883678681465,1,-13,11,3,-4,1,-4,-6
1511883678681465,7,-2,17,2,-2,-6,0,0
1511883678704526,3,-5,16,-5,-3,-3,0,4
1511883678704526,-1,13,28,3,9,4,6,9
1511883678705553,1,14,34,0,2,3,-1,2
1511883678705553,6,3,32,4,2,4,-4,4
1511883678710542,8,8,18,-2,-5,0,-4,0
1511883678710542,-5,1,10,-7,-1,-1,-5,2
1511883678718563,-1,-12,4,-9,-5,-3,-2,0
1511883678718563,6,1,6,-5,2,-6,-5,-1
1511883678733628,-33,-5,10,1,5,-7,-6,0
1511883678733628,-5,0,-4,0,2,-6,2,1
1511883678741650,6,-12,21,2,-3,3,6,2
1511883678741650,3,7,2,-2,-6,5,4,4
1511883678756256,12,12,7,7,1,3,7,4
1511883678756256,-2,4,0,-2,-7,-5,1,4
1511883678757258,-7,-2,-1,0,-4,-7,2,7
1511883678757258,2,-8,0,-4,-3,-3,-7,-1
1511883678770314,7,-3,-8,0,-1,1,-9,4
1511883678770314,-12,-2,-10,1,4,2,-9,-31
1511883678778314,9,5,-3,-1,2,9,4,26
1511883678778314,-11,-1,-5,-2,-1,3,-2,1
1511883678793383,4,-2,-11,-2,3,0,-4,-6
1511883678793383,-12,1,2,-2,-5,-3,-5,-3
1511883678801376,-6,-1,1,-4,2,-5,-2,3
1511883678801376,-4,-4,12,0,6,-4,-2,-3
1511883678816463,-5,0,3,-2,0,-6,-7,10
1511883678816463,0,-30,-4,-1,-7,-3,-8,-2
1511883678817440,-3,7,0,4,-9,-4,-4,-18
1511883678817440,12,7,3,1,-6,-1,3,-4
1511883678831003,10,-5,3,-4,-4,-3,2,-10
1511883678831003,-8,1,1,-5,3,-4,5,5
1511883678838522,-9,-15,-8,-5,1,-6,3,1
1511883678838522,-6,-4,0,-1,6,-7,-2,0
1511883678852579,4,2,-3,-3,2,-2,-3,-1
1511883678852579,12,6,11,-2,-1,1,-2,7
1511883678861625,18,3,9,-1,-3,2,1,15
1511883678861625,-12,-6,-2,-1,-10,2,5,-6
1511883678876657,-13,14,-1,-1,-2,3,10,0
1511883678876657,2,12,-2,-2,3,6,7,4
1511883678876657,3,-1,-5,2,3,5,-3,-9
1511883678876657,-18,-7,-5,0,1,6,-5,4
1511883678890695,1,-7,-1,8,7,8,-1,6
1511883678890695,0,-1,5,2,5,0,-2,0
1511883678897715,9,12,13,3,-4,-5,-3,-3
1511883678897715,5,-27,2,3,-4,-8,-6,1
1511883678912721,5,5,-2,2,-4,1,-4,-1
1511883678912721,6,0,1,-4,-4,0,-2,3
1511883678921745,-6,-5,6,-6,0,-1,1,-5
1511883678921745,3,1,-8,-1,4,0,3,3
1511883678936290,3,-6,-4,-2,7,-2,0,-10
1511883678936290,1,-8,-8,4,5,0,1,1
1511883678937292,-6,-5,-1,7,-5,-2,-4,-1
1511883678937292,1,-5,-8,-11,-12,-3,-2,-1
1511883678950442,2,-3,0,0,1,-3,0,4
1511883678950442,-3,7,7,0,3,-1,-2,6
1511883678958464,-2,2,6,-10,4,0,-3,-1
1511883678958464,2,0,11,0,3,3,5,5
1511883678973629,-1,-1,17,3,3,9,3,0
1511883678973629,-3,-4,-7,-1,-8,4,2,-4
1511883678981645,-5,-3,6,13,-1,4,-2,-3
1511883678981645,4,3,6,-1,-10,0,-4,-7
1511883678996563,3,6,0,-12,-15,-4,3,-9
1511883678996563,-2,-3,1,0,-4,-2,5,-7
1511883678997566,-7,-3,-12,-3,-1,-7,4,-10
1511883678997566,-12,-6,-16,4,14,-1,3,8
1511883679010603,4,0,-9,3,9,-3,-7,0
1511883679010603,-1,0,-5,-4,4,0,-6,5
1511883679018624,-1,7,2,1,8,0,-9,4
1511883679018624,6,5,3,4,7,-6,-7,1
1511883679033311,-7,-5,-5,-1,-5,-10,0,5
1511883679033311,0,-13,-11,1,-1,-9,5,2
1511883679041845,8,-6,2,-13,-20,2,9,8
1511883679041845,4,4,-4,5,1,7,4,9
1511883679056605,2,8,10,0,-5,6,-1,5
1511883679056605,3,10,-5,-2,-3,-2,-6,1
1511883679057548,-5,3,3,4,-3,0,2,-2
1511883679057548,-1,1,2,-4,-8,-7,-5,-6
1511883679070464,0,-17,0,-2,2,1,5,-3
1511883679070464,-1,22,9,2,9,9,6,-2
1511883679078519,-2,-4,3,1,10,4,0,-4
1511883679078519,4,0,-13,-7,1,-3,2,-5
1511883679093632,1,-12,1,1,-5,-3,-5,-2
1511883679093632,-12,2,10,2,-6,1,-4,0
1511883679101547,-3,0,1,5,2,-4,-2,0
1511883679101547,-5,-2,15,-3,-12,-5,3,-5
1511883679116769,17,31,5,-2,-2,-2,3,12
1511883679116769,3,3,3,-3,-11,-5,0,1
1511883679117723,1,15,-2,8,-2,0,2,-1
1511883679117723,-7,-3,-1,1,8,0,-6,-6
1511883679130833,-8,5,5,4,8,-5,-4,-5
1511883679130833,7,-10,-1,1,1,1,1,-5
1511883679138254,-3,-1,8,7,12,1,2,1
1511883679138254,-9,-2,-2,-9,-14,-4,2,2
1511883679153435,-5,-3,-7,-1,0,2,-4,-5
1511883679153435,-4,-5,-7,-5,-11,-6,-3,-4
1511883679161457,2,-14,-19,-4,1,-4,7,-1
1511883679161457,1,0,-5,5,2,12,4,-1
1511883679176527,-7,-8,-10,2,-6,-8,1,2
1511883679176527,12,-3,6,3,14,-1,-3,4
1511883679177527,4,-1,-7,-11,-4,-9,-8,-17
1511883679177527,12,7,0,0,-16,1,5,12
1511883679190561,-2,-2,0,2,-1,7,2,-3
1511883679190561,2,-3,-11,6,17,27,2,-1
1511883679198563,-14,-8,-10,-8,-9,0,-14,-14
1511883679198563,-2,-1,-4,-15,-57,-34,2,5
1511883679213599,23,0,8,16,12,13,19,28
1511883679213599,-29,-4,2,3,29,-2,-5,-7
1511883679221644,0,-15,-11,-5,15,16,-3,9
1511883679221644,-26,9,-5,-6,21,19,-10,-21
1511883679236713,-18,-14,-6,-13,-14,-8,-14,-28
1511883679236713,24,5,1,-11,-7,1,9,23
1511883679237188,6,3,1,3,-14,-11,0,7
1511883679237188,20,14,3,3,19,4,4,0
1511883679250993,-2,11,-5,-18,-11,-10,-6,-8
1511883679250993,-4,2,-1,2,14,1,-4,-4
1511883679258030,7,-21,-3,-14,-21,-6,2,3
1511883679258030,14,7,9,8,-17,-13,3,-2
1511883679273071,-18,-6,-6,5,-2,-1,6,-1
1511883679273071,-2,-12,-14,-2,-9,0,-2,-4
1511883679281092,0,5,11,9,-10,7,4,-1
1511883679281092,-5,-3,13,25,24,-2,-8,0
1511883679296106,-9,-2,-10,-13,-1,-2,-4,-13
1511883679296106,-2,-1,-7,-6,-19,-14,-1,1
1511883679297108,3,3,2,-4,-1,-17,-9,-11
1511883679297108,-17,-13,3,-10,2,2,-3,6
1511883679310142,1,3,12,7,-2,1,-7,-4
1511883679310142,11,6,7,0,-14,-1,2,-1
1511883679326185,6,-1,-9,1,12,12,3,7
1511883679326185,4,-9,-7,2,21,10,-5,-12
1511883679333205,6,-9,-4,-2,4,0,-7,4
1511883679333205,-6,-4,-2,-6,-4,0,-6,1
1511883679341756,-11,-10,2,2,9,8,3,1
1511883679341756,10,16,-4,-16,-16,-6,3,5
1511883679356324,4,-15,-13,-2,0,-4,3,-5
1511883679356324,13,2,-4,3,-4,-6,-2,-1
1511883679357328,-10,0,-4,0,-3,-3,3,-1
1511883679357328,-6,2,-7,-2,-1,7,-2,5
1511883679370363,-9,-5,-10,0,6,3,-6,0
1511883679370363,4,2,-3,-3,2,-1,-4,-6
1511883679378356,4,-4,-2,-3,0,-5,5,7
1511883679378356,3,-7,-3,-3,2,-2,2,-6
1511883679393424,-1,-2,2,8,-4,-5,2,3
1511883679393424,-11,-4,1,5,-9,-9,-7,1
1511883679401445,-6,3,4,1,3,2,-3,2
1511883679401445,6,-8,-1,1,6,1,-1,-6
1511883679416471,-11,13,5,-2,1,1,-1,-19
1511883679416471,-8,-2,5,-1,-3,-2,8,9
1511883679417461,3,5,9,-5,-6,-2,-1,-2
1511883679417461,13,-2,-4,-1,5,11,6,3
1511883679431025,6,7,2,-4,-2,2,2,7
1511883679431025,13,5,4,-1,-9,-6,0,-4
1511883679438532,-12,-2,0,0,-2,-6,-3,-1
1511883679438532,0,-6,-5,0,4,-4,-3,1
1511883679453070,12,1,-11,-7,3,-6,-2,1
1511883679453070,-4,8,4,3,0,3,3,-14
1511883679461092,3,5,-2,-2,-3,2,-3,-12
1511883679461092,-2,8,14,9,-3,0,-6,7
1511883679475129,-8,-14,-11,-7,-1,0,-4,5
1511883679475129,-5,-10,-12,-6,3,3,1,7
1511883679484180,7,7,0,2,4,-1,-1,1
1511883679484180,3,-5,-4,1,1,-4,2,5
1511883679490170,-4,9,19,3,-12,-7,4,6
1511883679490170,-4,-12,-3,0,-11,-4,6,1
1511883679498191,1,6,1,7,12,9,8,4
1511883679498191,3,-4,-16,1,9,1,0,-4
1511883679513231,3,8,-5,0,-11,-5,0,4
1511883679513231,4,-3,-14,-8,-7,-2,-4,-3
1511883679521283,11,29,11,-7,-14,-3,-10,6
1511883679521283,-2,8,31,5,5,2,-9,-9
1511883679535823,-2,-16,-20,-4,12,6,-3,-7
1511883679535823,7,10,12,5,4,4,-1,2
1511883679543876,4,-10,-15,2,1,-5,-2,-6
1511883679543876,-4,-18,-21,-8,-5,-3,6,8
1511883679550342,5,16,20,5,-4,2,7,-3
1511883679550342,-8,-5,-14,-10,-4,-6,6,-7
1511883679558363,-4,-3,17,2,8,3,7,-3
1511883679558363,-7,1,9,4,-5,1,-2,-4
1511883679573403,-18,-7,-2,-1,-7,4,-4,-14
1511883679573403,-3,4,7,11,4,6,-4,4
1511883679581425,-12,-34,-27,-7,3,-2,-7,-9
1511883679581425,3,2,-4,-6,1,-13,-8,-10
1511883679595460,-33,-4,-8,-2,9,-5,-7,-20
1511883679595460,-6,6,14,1,1,-4,-2,3
1511883679603481,-1,-2,1,0,-4,-8,2,3
1511883679603481,-8,-14,-14,-6,-8,-1,3,3
1511883679610500,9,5,4,5,0,4,5,4
1511883679610500,-1,-1,-5,4,-2,-2,1,-8
1511883679618522,10,-1,1,3,-2,3,8,-1
1511883679618522,-11,-4,-29,-5,-1,6,2,2
1511883679633563,13,3,2,-6,-2,4,3,13
1511883679633563,-12,-8,-3,-13,-5,-5,-4,0
1511883679641612,1,8,13,-6,-4,7,-4,-6
1511883679641612,23,10,18,1,-2,2,-1,1
1511883679655196,-15,-13,1,-5,2,-5,-6,-4
1511883679655196,-11,-3,-14,-2,8,2,-5,-3
1511883679664215,-4,-6,-16,-5,1,-4,-3,1
1511883679664215,-1,3,10,-4,-1,-2,-2,-1
1511883679679229,-3,-6,10,7,4,-4,3,9
1511883679679229,4,15,12,1,1,-5,-1,-4
1511883679679229,22,17,5,4,-1,-2,1,-12
1511883679679229,-26,-11,-5,0,-2,5,-2,6
1511883679693289,4,2,-9,-6,0,2,-2,3
1511883679693289,3,3,-1,-1,5,1,-2,-4
1511883679701293,1,-6,-12,-1,-1,-2,5,6
1511883679701293,-13,5,3,5,-4,-1,3,-7
1511883679715347,-7,0,-2,2,-4,-1,-2,-9
1511883679715347,8,-3,11,2,2,-5,-4,5
1511883679724366,-1,-3,-9,-5,-1,-5,-2,6
1511883679724366,-10,-3,3,-4,-5,-3,4,-3
1511883679738941,3,-6,-11,-1,-1,5,3,-20
1511883679738941,4,4,1,3,6,3,5,12
1511883679739943,-16,5,-2,-2,0,1,-2,7
1511883679739943,15,1,-1,-2,5,4,-5,5
1511883679753013,12,0,0,-5,-4,1,-5,-15
1511883679753013,-19,-11,-5,-4,-6,1,-2,-6
1511883679761009,32,10,20,5,1,7,3,14
1511883679761009,-9,-6,2,-1,-1,-2,4,-2
1511883679776068,-16,0,-7,6,3,-3,4,3
1511883679776068,4,5,8,7,1,-2,-3,5
1511883679784071,-7,-9,-3,-2,-3,-4,-8,-9
1511883679784071,-26,11,7,-1,-8,-2,-8,-7
1511883679799138,11,8,11,-1,3,3,-4,13
1511883679799138,9,-6,-6,-4,-4,-5,-6,-3
1511883679799138,-13,-4,11,4,-1,-6,-4,-8
1511883679799138,55,-3,-4,2,1,-3,0,14
1511883679814183,-1,-3,-3,-1,-2,-4,0,-9
1511883679814183,2,-3,1,5,0,-2,5,-1
1511883679820167,-20,1,-4,-2,-2,4,4,-26
1511883679820167,0,4,-4,-7,-4,-1,3,-6
1511883679835709,5,0,-4,-1,-8,0,2,18
1511883679835709,20,3,0,1,-5,6,-2,-15
1511883679844232,-33,-6,-7,1,-2,-12,-5,-1
1511883679844232,-10,-4,-4,4,8,-3,0,-5
1511883679858774,24,-1,-4,-4,0,-9,-6,-2
1511883679858774,-20,-7,16,-8,-6,2,-4,0
1511883679859775,6,-4,-9,-1,-4,6,3,22
1511883679859775,5,11,-8,-1,-3,3,-7,-14
1511883679872838,-6,-2,6,7,7,-4,1,5
1511883679872838,2,20,2,5,5,-1,7,-1
1511883679880859,-14,-3,1,1,3,-2,5,3
1511883679880859,-13,-3,-9,1,-2,1,-2,-1
1511883679895872,-7,-2,-5,1,-2,5,0,-2
1511883679895872,11,0,-8,-2,-9,7,-3,7
1511883679903896,39,19,6,-6,-7,-1,-1,5
1511883679903896,-24,-1,3,1,-6,-6,2,-7
1511883679919068,-3,-3,5,3,2,-10,3,7
1511883679919068,-13,-18,-16,-3,4,-2,-3,-6
1511883679919937,6,8,4,-4,-1,5,-7,4
1511883679919937,18,10,-18,-5,-5,-8,-11,2
1511883679933496,6,13,-50,-2,-3,-1,-4,0
1511883679933496,-5,-5,-62,0,6,-9,-1,-3
1511883679940995,-5,-7,-42,3,7,-1,-3,-2
1511883679940995,-30,-21,-5,-1,-3,-11,-2,-15
1511883679955545,-12,6,43,4,-3,6,6,-8
1511883679955545,7,1,28,-2,1,9,14,11
1511883679963567,-10,-14,23,-7,-4,6,5,-13
1511883679963567,-10,12,28,-1,-4,7,4,-1
1511883679978606,7,-11,-3,-2,6,6,1,2
1511883679978606,18,-9,-5,-6,-1,-2,-6,-32
1511883679979610,-15,-10,8,7,16,5,19,25
1511883679979610,18,-4,7,-2,6,0,6,9
1511883679992644,19,5,22,1,4,-10,0,2
1511883679992644,-8,-17,41,12,6,-1,6,-6
1511883680000672,-2,13,9,7,-1,-7,-5,-8
1511883680000672,-6,-3,21,4,-4,4,1,0
1511883680015705,-10,0,34,0,-7,1,-4,0
1511883680015705,-12,-6,15,-6,-1,2,-1,3
1511883680023730,-3,-18,9,-5,-8,-1,-5,-8
1511883680023730,20,10,11,13,10,5,-3,4
1511883680039273,8,-13,-25,-16,-3,0,-9,-12
1511883680039273,-12,7,16,-2,3,-1,-4,-1
1511883680039771,18,-3,-28,-7,-11,-6,3,0
1511883680039771,-40,-8,-8,-3,-4,-2,12,-1
1511883680052873,28,15,11,5,1,-1,7,23
1511883680052873,-5,3,-24,-5,-5,-4,-3,-3
1511883680060898,12,10,-20,-1,9,-2,-7,-19
1511883680060898,0,-6,-12,2,2,-1,-2,7
1511883680075980,-16,-10,-36,-7,-1,1,-4,0
1511883680075980,2,0,-19,0,3,2,-3,11
1511883680084015,-3,8,20,4,-9,0,-6,5
1511883680084015,14,8,4,-9,-13,-10,-5,-1
1511883680099001,-6,-10,-11,3,-6,-3,-2,0
1511883680099001,10,18,12,2,3,6,-3,5
1511883680100113,3,5,8,-13,-6,0,-10,1
1511883680100113,-7,-10,-8,-12,10,6,1,3
1511883680113168,-7,16,16,0,1,-1,4,0
1511883680113168,5,13,11,6,-11,-9,2,0
1511883680121059,-18,-19,-16,1,-11,-3,0,-8
1511883680121059,9,-6,-9,2,4,11,2,-3
1511883680136101,8,5,0,-2,-5,-7,-3,-6
1511883680136101,-6,-9,-1,-5,-8,1,-4,1
1511883680144125,3,-6,1,2,5,0,3,7
1511883680144125,11,5,-7,0,-1,2,2,18
1511883680158703,-16,-1,1,-2,1,1,6,-3
1511883680158703,-4,-5,-11,5,6,1,9,-4
1511883680159705,-2,-4,-5,-3,5,-1,4,5
1511883680159705,-16,-9,-14,-8,-2,-7,-5,-6
1511883680172740,3,-1,5,-5,2,-1,-3,-4
1511883680172740,14,1,-2,-6,-3,11,0,9
1511883680180788,-11,-1,6,-5,-7,1,-7,-3
1511883680180788,17,-11,-12,5,-3,1,-1,1
1511883680195811,-1,20,22,5,-8,-1,-8,2
1511883680195811,-3,11,14,12,-1,-8,-4,5
1511883680203847,12,1,-16,7,11,-3,2,6
1511883680203847,-9,21,17,3,-3,-11,-3,-12
1511883680218862,-2,-9,-20,-5,6,4,3,-3
1511883680218862,-7,-10,-7,-2,-9,-1,-5,-4
1511883680219865,-12,3,-2,6,8,3,-5,-1
1511883680219865,6,0,8,-6,3,1,-2,-1
1511883680233406,-11,-9,-2,8,-1,-3,-2,2
1511883680233406,-28,-10,-13,-11,-11,-4,-5,-10
1511883680240926,2,4,-12,-3,-4,-2,-1,6
1511883680240926,3,-10,-1,6,1,-1,-3,-3
1511883680256019,-1,-1,4,2,-1,3,-2,-6
1511883680256019,5,-4,-4,3,2,1,1,5
1511883680264040,-4,0,8,3,-9,-3,-2,-5
1511883680264040,16,2,-14,-10,0,0,5,-1
1511883680279075,-51,-13,-3,-12,5,-4,6,-3
1511883680279075,-7,6,6,-3,12,-5,2,2
1511883680279075,5,-7,-1,-2,2,-5,1,-4
1511883680279075,6,8,4,5,4,-2,-4,7
1511883680293119,21,-3,-3,-4,-7,3,0,5
1511883680293119,-13,-3,2,2,-7,-3,-3,5
1511883680309161,-8,-12,-9,-12,-14,-2,0,-9
1511883680309161,-5,1,9,0,-20,-5,-8,-9
1511883680315174,25,-6,4,16,-8,4,-5,-2
1511883680315174,8,-6,-17,-22,-2,8,-3,-1
1511883680324201,-22,-3,15,12,1,5,-8,-18
1511883680324201,-7,2,-12,-23,-5,6,4,14
1511883680360790,29,-9,-19,14,9,-3,5,11
1511883680360790,-7,31,19,23,8,2,6,-7
1511883680369812,13,-15,-10,-16,-4,-1,-2,-15
1511883680369812,-25,-5,20,5,7,-6,5,34
1511883680384863,7,-16,-24,-17,4,-4,-4,-7
1511883680384863,22,0,-7,-13,-2,-9,4,18
1511883680384863,8,21,12,7,5,-8,0,1
1511883680384863,7,-2,-5,9,4,-2,-7,-17
1511883680398918,-19,-7,3,4,-14,1,-3,-14
1511883680398918,-1,-12,-10,-5,-17,-1,-3,3
1511883680399891,-10,15,-2,0,-1,8,1,8
1511883680399891,0,-4,1,2,1,11,-2,-11
1511883680413929,30,11,1,-2,2,-3,1,19
1511883680413929,4,-4,2,0,6,0,-7,-16
1511883680420947,7,-13,-12,-10,-3,-10,-7,-1
1511883680420947,-47,-4,-9,3,-5,-7,-5,-6
1511883680437040,-1,7,1,2,2,-2,5,0
1511883680437040,-2,-1,8,4,-2,-6,6,0
1511883680438518,-10,-1,-2,-3,3,-2,6,5
1511883680438518,8,17,15,6,7,-4,-2,-6
1511883680451598,-21,8,8,-3,6,0,-2,-2
1511883680451598,-19,-7,0,4,6,4,-7,-5
1511883680453600,22,0,2,2,-6,13,-3,19
1511883680453600,-8,-12,-11,4,-7,3,-1,-11
1511883680466665,-32,8,0,-4,-1,1,2,-4
1511883680466665,6,-9,-5,1,3,2,5,-4
1511883680472674,8,14,10,6,4,1,6,-9
1511883680472674,-1,-17,-10,-13,-3,0,1,3
1511883680489696,-16,-6,9,0,1,-3,0,9
1511883680489696,-2,-7,-16,-17,-1,-9,-6,-1
1511883680490699,-15,-7,16,11,4,0,0,7
1511883680490699,10,4,-6,-2,-5,2,-3,1
1511883680502757,31,8,-5,0,-4,3,-6,-7
1511883680502757,7,-4,-7,-2,-6,4,1,11
1511883680511754,-6,7,-9,-4,1,-5,-4,-2
1511883680511754,13,7,-1,2,4,-3,2,-2
1511883680526795,-15,-3,0,4,-2,-6,1,-2
1511883680526795,-1,6,-11,0,-1,-5,-3,-7
1511883680528801,-3,-9,3,-3,6,2,-3,-2
1511883680528801,22,-7,-11,0,9,1,4,0
1511883680549387,-19,3,4,0,-3,5,-2,-13
1511883680549387,3,1,1,0,-5,-1,-4,-20
1511883680551370,12,4,6,5,-5,5,0,25
1511883680551370,6,1,-1,-5,-5,6,-3,15
1511883680563399,-9,0,7,-4,-6,1,-1,1
1511883680563399,0,1,-3,-2,-2,1,4,-2
1511883680579441,27,-3,-3,-8,0,-3,7,-13
1511883680579441,-64,-8,8,-2,-7,-4,2,-15
1511883680594480,10,-15,-21,-8,-1,3,-1,8
1511883680594480,0,-8,0,1,2,-1,-2,8
1511883680596486,-5,6,-1,6,10,-4,-2,-1
1511883680596486,12,-4,3,-3,3,-4,-6,1
1511883680615536,-1,-5,2,4,-2,-4,-8,-9
1511883680615536,-19,-3,6,5,-3,-2,-2,-1
1511883680624560,-18,1,-3,1,-9,4,-2,-5
1511883680624560,26,2,-6,-6,-5,-3,3,-6
1511883680647653,10,6,5,3,7,6,3,2
1511883680647653,9,2,5,1,2,3,-2,-6
1511883680649659,3,-3,-6,-2,-1,4,3,4
1511883680649659,13,7,7,8,4,2,-4,-2
1511883680653666,4,1,-4,-6,2,0,-10,-17
1511883680653666,-7,-1,-13,-1,-3,1,-1,-1
1511883680654671,-13,-7,-3,1,-7,6,1,-7
1511883680654671,0,-1,6,1,-2,11,0,-4
1511883680661681,20,3,7,-3,0,-6,3,7
1511883680661681,-38,5,20,-2,0,-3,1,-7
1511883680661681,7,-4,-12,-7,-2,-10,1,0
1511883680661681,11,-4,-11,-1,9,0,1,-2
1511883680675728,-1,2,-2,-3,5,2,-4,7
1511883680675728,15,-2,1,-3,8,-3,-2,4
1511883680683749,-14,-2,-11,-8,-6,-7,-3,-4
1511883680683749,-3,7,-4,10,-2,-5,4,-8
1511883680697786,6,-8,-18,-1,-5,-4,0,-8
1511883680697786,8,5,-11,11,18,4,1,8
1511883680705807,-10,-2,3,-6,5,6,-3,1
1511883680705807,8,-5,-10,-2,9,8,1,8
1511883680744913,-2,6,3,-7,-5,-3,-3,4
1511883680744913,6,8,-8,-8,-13,-7,-4,0
1511883680745415,13,0,15,4,-3,-5,2,21
1511883680745415,-19,-8,-10,-5,-11,-11,0,3
1511883680758927,-8,-2,3,9,1,5,5,-8
1511883680758927,1,0,3,4,-1,7,2,-6
1511883680759957,-1,-7,-2,1,-2,4,-5,-14
1511883680759957,-3,-4,9,3,-6,1,-1,3
1511883680772996,-18,-6,4,3,-5,-3,1,3
1511883680772996,43,-1,-14,-8,-6,3,4,7
1511883680784023,-32,-4,6,-5,-9,-9,-4,-20
1511883680784023,8,25,11,3,-5,1,0,6
1511883680797060,13,3,7,-4,-3,-5,0,19
1511883680797060,-12,-9,9,-1,1,-2,-4,-9
1511883680798059,-3,-6,-2,-1,9,-4,1,-10
1511883680798059,-4,-7,-5,-1,0,-13,-2,-14
1511883680811067,4,-5,-8,-1,-2,0,2,0
1511883680811067,1,3,6,3,2,6,4,4
1511883680819088,11,-3,3,5,-1,8,5,5
1511883680819088,5,4,-8,-7,-6,1,6,0
1511883680834679,-5,-3,-2,-7,10,-4,3,-9
1511883680834679,-9,0,9,3,5,-3,0,-5
1511883680836181,-5,-4,-18,-8,-4,3,1,0
1511883680836181,6,0,6,2,3,1,-7,2
1511883680849221,-7,-3,-2,-3,-5,-5,-7,-8
1511883680849221,-2,1,3,-2,1,-1,-1,-10
1511883680851204,-24,7,3,-1,3,-1,-1,5
1511883680851204,-2,4,5,3,1,2,1,-7
1511883680863260,-33,-4,-16,3,-2,-1,-1,-5
1511883680863260,-13,-1,0,1,-13,-3,2,-1
1511883680872259,16,-4,-2,7,-1,5,3,12
1511883680872259,1,-14,-2,-4,-4,1,-4,5
1511883680886327,-10,-5,-2,0,2,3,-3,-1
1511883680886327,-9,-5,-9,0,-4,-2,-4,0
1511883680893343,10,1,0,-7,-7,-7,-8,-9
1511883680893343,-8,2,7,-5,3,1,-6,-7
1511883680909473,46,1,-1,-4,4,-4,-2,23
1511883680909473,-8,1,22,3,3,-5,-2,-1
1511883680911363,5,-8,-13,-5,3,-6,1,-2
1511883680911363,17,17,9,3,0,-4,7,3
1511883680932430,7,7,9,10,-2,2,3,11
1511883680932430,0,-5,-27,-5,-2,3,-1,-1
1511883680933937,-4,13,15,10,6,3,-1,7
1511883680933937,1,-7,-11,1,12,4,-2,-6
1511883680945962,-24,-4,3,-4,-3,3,0,0
1511883680945962,0,-3,-10,-4,-7,0,-1,5
1511883680953044,-16,-4,-3,-4,-12,0,-2,-11
1511883680953044,-55,-11,4,9,5,2,1,-7
1511883680969087,-6,-1,-6,2,11,-2,-2,-8
1511883680969087,0,3,12,7,8,9,0,-2
1511883680971102,-5,-12,-27,-9,3,7,-2,-6
1511883680971102,15,5,15,-1,-8,2,-3,1
1511883680992247,9,12,6,3,-6,-1,-4,-12
1511883680992247,-8,-2,0,-4,0,-2,6,23
1511883680994151,9,6,7,0,1,-8,4,15
1511883680994151,-8,-9,-14,-11,7,-4,1,3
1511883681006185,-6,-8,-9,-7,2,0,4,-10
1511883681006185,-2,13,10,5,-5,2,3,-3
1511883681013332,26,-3,0,1,3,-1,10,18
1511883681013332,7,6,7,-6,-4,-5,4,8
1511883681029244,-7,-12,-7,-4,-10,-6,-4,-1
1511883681029244,13,3,4,1,8,-4,-8,-12
1511883681031264,23,-3,27,18,14,0,-4,-3
1511883681031264,-5,-3,-7,3,0,-1,-7,-9
1511883681051840,9,4,15,2,4,11,0,-3
1511883681051840,-15,1,1,-4,-6,-7,-12,-9
1511883681053850,14,2,-14,-8,0,1,-7,-1
1511883681053850,-1,-3,-12,-11,-8,1,1,6
1511883681074898,-18,7,3,-6,-6,4,3,-9
1511883681074898,-2,-12,-21,-9,-12,-4,4,10
1511883681075902,-17,6,7,3,-7,-7,-2,-19
1511883681075902,-9,-16,-19,-2,-3,-1,-1,-12
1511883681089942,-14,0,20,8,0,-2,-4,-4
1511883681089942,24,10,-23,-5,7,5,-3,-1
1511883681090941,-12,-3,19,2,4,-3,-3,-6
1511883681090941,21,-5,-15,-4,-6,-14,-2,-2
1511883681111997,18,-1,-7,3,12,-8,3,1
1511883681111997,1,-20,-6,6,-1,-3,7,0
1511883681114003,-17,13,4,-3,2,5,0,-2
1511883681114003,21,11,-7,-3,-9,3,-3,9
1511883681126034,-32,-16,-20,-9,-7,-4,-6,3
1511883681126034,-3,-7,-6,3,7,2,4,20
1511883681135065,8,1,1,-1,-3,-6,0,4
1511883681135065,14,3,22,3,3,-4,-4,-9
1511883681149605,13,7,14,6,0,3,-4,10
1511883681149605,5,-3,17,1,-4,6,-8,-10
1511883681151611,-8,-11,1,1,-6,-3,-9,-9
1511883681151611,-12,4,6,5,3,3,-1,-5
1511883681171691,13,7,-1,3,-5,4,4,12
1511883681171691,-7,0,1,-5,-6,-2,0,-7
1511883681173669,3,4,-4,-6,-4,8,3,4
1511883681173669,-5,0,0,-2,3,-2,3,1
1511883681192747,-24,-5,1,-8,-1,-8,1,-13
1511883681192747,17,7,3,-9,-3,0,5,-1
1511883681201744,-26,-6,-8,4,7,0,5,1
1511883681201744,3,-5,0,-1,6,2,5,7
1511883681224806,19,0,2,1,-3,-1,-5,1
1511883681224806,-39,-8,-2,7,9,0,-6,-8
1511883681226812,13,-1,-5,1,-1,-4,-5,-3
1511883681226812,-6,-7,-3,-5,1,-1,2,2
1511883681246365,-2,0,5,-4,-2,-1,2,-3
1511883681246365,0,5,8,-5,-8,-4,3,13
1511883681252890,2,9,-4,-2,0,1,0,2
1511883681252890,-17,-12,-1,4,-4,0,-9,-15
1511883681276955,9,0,-19,-4,-7,1,-4,4
1511883681276955,5,-3,11,3,-2,-1,0,-6
1511883681278960,19,1,1,-7,-7,2,1,11
1511883681278960,-19,5,4,-1,-1,3,-1,-5
1511883681299013,5,-2,-3,2,3,-1,-3,-7
1511883681299013,-11,-5,-2,1,-3,-7,-8,-14
1511883681301019,8,0,-3,-6,-6,-7,-4,0
1511883681301019,5,-1,6,-6,0,-3,-2,3
1511883681320069,9,13,-2,-7,-1,-7,0,4
1511883681320069,2,1,15,-1,4,-3,6,3
1511883681331099,27,-2,-24,-8,-1,2,9,2
1511883681331099,-6,-4,0,-8,-5,3,6,-2
1511883681351743,7,-3,-3,-8,7,7,2,-9
1511883681351743,12,2,-7,-7,10,-1,-7,-5
1511883681353748,-11,1,4,-2,10,-3,-7,4
1511883681353748,7,2,-4,0,5,-1,-1,16
1511883681373827,-13,-12,-7,-4,-2,2,1,3
1511883681373827,-4,3,0,-9,-6,-1,3,-10
1511883681380846,-11,0,7,3,-5,-2,4,6
1511883681380846,0,14,4,3,-2,3,-3,-2
1511883681404892,-12,-5,2,5,-9,2,-9,-4
1511883681404892,19,4,-15,1,-8,5,-6,5
1511883681405886,-7,12,-19,1,2,1,-5,-7
1511883681405886,6,-6,-30,-1,0,-8,-1,3
1511883681426966,-6,-10,-23,2,2,-7,6,1
1511883681426966,5,5,-8,-5,-9,-7,6,-3
1511883681433510,2,-2,-9,3,-2,-5,3,-13
1511883681433510,5,1,-4,-8,-5,-2,-1,-6
1511883681448072,6,4,-7,4,7,5,-4,-2
1511883681448072,-2,-6,0,2,8,10,0,4
1511883681457073,18,-2,0,4,1,7,-3,4
1511883681457073,2,8,19,4,-11,3,-7,-1
1511883681479132,2,-2,17,1,-5,-3,-3,-2
1511883681479132,-10,1,6,-1,-1,-5,-4,-3
1511883681481138,-2,-5,4,-2,0,-2,5,0
1511883681481138,-14,-5,7,8,2,0,7,1
1511883681501224,-1,4,9,9,-8,-2,6,3
1511883681501224,5,-4,20,5,-5,-3,-3,0
1511883681509246,-5,1,6,-3,-5,0,-4,-3
1511883681509246,6,0,7,1,-1,-2,2,0
1511883681532343,-4,-1,0,-9,5,-1,7,-14
1511883681532343,-25,-9,0,4,7,-7,2,-1
1511883681533847,-6,0,-3,0,3,-8,-6,-11
1511883681533847,3,1,-5,1,-1,1,-7,-1
1511883681553485,1,9,9,6,-4,5,-2,6
1511883681553485,0,-1,-19,-1,-1,5,2,2
1511883681560470,-14,-4,-7,4,-9,-1,1,0
1511883681560470,1,4,4,2,2,2,-3,5
1511883681575543,5,1,-3,-3,2,-5,-7,5
1511883681575543,6,1,-5,1,2,-2,-3,13
1511883681584534,-16,-8,11,-5,0,-3,-4,7
1511883681584534,2,-1,-3,-10,-4,0,4,-8
1511883681606619,0,-12,-7,-1,-1,2,0,-10
1511883681606619,3,16,35,0,0,1,-4,-13
1511883681612636,-5,-4,-16,-6,-1,10,-6,-11
1511883681612636,-4,5,5,8,10,5,-5,-6
1511883681627675,-1,8,9,2,3,-6,-2,1
1511883681627675,-1,-24,-50,4,5,-3,1,1
1511883681637227,-9,14,22,1,-16,-6,1,3
1511883681637227,-3,1,8,7,1,-6,2,4
1511883681659817,-7,-15,-16,-3,3,-3,-1,-2
1511883681659817,3,5,13,-11,-7,-6,1,0
1511883681660793,-4,-14,0,-2,5,-1,2,-4
1511883681660793,-3,5,-15,3,16,0,4,-2
1511883681666808,-1,0,-3,-10,-21,-4,-1,3
1511883681666808,1,-14,-4,13,9,9,-3,3
1511883681668814,10,6,-5,-20,-24,1,0,5
1511883681668814,2,-14,1,-5,-3,1,0,1
1511883681687889,6,6,9,4,6,0,-3,-3
1511883681687889,-4,0,-3,-6,-1,5,-4,-5
1511883681696890,-7,2,6,13,14,7,-6,-4
1511883681696890,-6,-7,-9,2,1,1,-2,-2
1511883681718974,-4,7,-23,-8,-4,-5,0,1
1511883681718974,-1,10,-4,6,-17,-7,5,6
1511883681720953,-9,-6,-24,-2,1,-10,-4,-4
1511883681720953,13,4,15,-19,-5,6,4,4
1511883681726996,10,-8,-15,13,14,0,4,-2
1511883681726996,7,7,5,-10,-10,-3,2,0
1511883681728974,-3,-3,6,22,25,11,0,-2
1511883681728974,-6,-1,5,0,-19,-5,1,-5
1511883681733988,-6,-7,8,-6,-10,-2,0,-5
1511883681733988,5,-11,-2,9,11,1,3,-3
1511883681734991,5,0,10,-7,-10,-8,0,1
1511883681734991,-6,-13,-12,10,5,4,-3,2
1511883681741508,0,4,7,5,-2,4,-1,4
1511883681741508,-1,2,-4,-2,0,-8,2,0
1511883681742511,-4,0,23,-9,-9,0,5,0
1511883681742511,3,-1,22,9,16,-2,0,1
1511883681749029,1,6,2,-16,-2,-13,-5,6
1511883681749029,-3,10,3,-3,5,-4,-3,-1
1511883681751035,7,1,-5,12,4,-1,1,-4
1511883681751035,5,2,-9,2,-6,3,-2,-4
1511883681756048,-5,-4,-6,-10,-3,8,-4,-9
1511883681756048,-6,0,-2,0,1,0,-3,0
1511883681757051,-10,3,-2,2,-3,-6,-1,5
1511883681757051,-5,1,-8,-5,-7,-7,-2,0
1511883681764096,-4,2,5,6,11,4,-4,0
1511883681764096,2,1,-4,-12,-18,-1,-7,-3
1511883681764096,4,-2,0,-2,-1,3,-1,-6
1511883681764096,4,-3,-7,3,1,3,0,-2
1511883681772119,10,-5,4,1,2,3,8,4
1511883681772119,8,-3,-2,10,7,2,4,-2
1511883681773121,6,1,-8,-4,-9,-4,1,-4
1511883681773121,-8,10,0,3,-2,-1,-5,-3
1511883681779110,-9,3,5,6,-2,1,-6,5
1511883681779110,-7,-6,-1,-3,1,3,-3,7
1511883681779110,9,-1,2,-1,5,0,-3,2
1511883681779110,-14,-7,-9,-6,0,-4,-4,-8
1511883681787132,4,-4,1,0,-1,-4,3,2
1511883681787132,0,-1,7,1,-3,-4,3,-9
1511883681788157,-1,3,-9,3,-1,-3,3,-4
1511883681788157,8,-3,-6,2,-4,-6,5,2
1511883681800165,-4,2,-3,1,1,-2,3,-1
1511883681800165,-7,-6,1,-5,2,-1,-1,-1
1511883681809190,0,0,7,-2,1,-1,-6,3
1511883681809190,5,-1,0,-6,-2,5,-1,4
1511883681824267,-1,-1,-2,-5,-1,6,-2,0
1511883681824267,5,3,-4,-8,-4,3,-2,-2
1511883681830278,-6,-4,-1,-2,1,0,-1,-5
1511883681830278,-1,2,-5,-1,-5,-8,-5,0
1511883681838271,1,-3,-2,4,-6,-7,2,-4
1511883681838271,-6,-4,4,2,1,-2,-1,0
1511883681847296,-5,-13,-6,-5,6,7,0,1
1511883681847296,19,11,-1,-4,8,9,-1,1
1511883681860357,-15,3,4,5,5,6,-9,-6
1511883681860357,-8,-4,-6,2,2,11,3,3
1511883681869355,5,-3,14,3,1,-12,-3,-4
1511883681869355,2,-11,-18,-8,1,-7,5,3
1511883681883419,-10,-12,-3,-5,0,-7,2,-18
1511883681883419,34,10,6,-4,-5,-2,1,34
1511883681892442,-51,-15,-4,-5,-5,-8,-6,-19
1511883681892442,-4,-7,11,-2,-6,0,2,-1
1511883681898433,15,10,-7,4,0,6,-5,-4
1511883681898433,-10,-5,-6,1,-2,-7,-6,-9
1511883681907456,16,7,-6,3,3,5,4,9
1511883681907456,3,2,-1,7,0,-8,-2,-3
1511883681920493,-14,6,18,11,1,3,8,-4
1511883681920493,-6,-13,-11,-3,3,2,2,-7
1511883681929516,18,2,-10,3,1,2,0,9
1511883681929516,-6,2,7,0,-3,1,-4,2
1511883681943611,6,-2,2,-6,3,-1,-3,11
1511883681943611,-14,1,5,-3,4,0,-4,-3
1511883681952416,4,3,3,-4,0,1,-9,0
1511883681952416,4,4,3,2,-6,-6,-10,-1
1511883681958434,10,-8,-11,-6,-8,-5,0,14
1511883681958434,1,-3,-4,7,3,-4,-1,-8
1511883681973470,-12,-9,-9,-2,2,-6,8,-3
1511883681973470,-6,0,-9,-3,-2,-5,5,-4
1511883681980489,-1,22,19,-3,-1,-4,-2,-6
1511883681980489,-8,-5,-6,-11,-3,-3,-5,-4
1511883681989523,15,6,4,-5,5,7,-2,9
1511883681989523,1,-12,-8,-8,-3,7,0,7
1511883682002570,-11,-8,6,1,0,4,1,-1
1511883682002570,2,23,-16,-5,-8,2,-1,-4
1511883682012575,6,6,8,-1,-8,3,-1,-3
1511883682012575,2,-6,-11,-10,-8,-5,1,-3
1511883682017589,3,-19,-10,-2,-9,-1,-3,3
1511883682017589,-1,-5,16,7,3,-3,0,5
1511883682027615,-4,-3,-3,0,-1,-2,4,2
1511883682027615,-16,9,11,7,6,-3,1,-7
1511883682040651,2,-5,-11,2,0,-2,0,9
1511883682040651,24,12,-3,6,1,2,-7,-13
1511883682049678,-45,-8,-2,-2,-5,1,-4,2
1511883682049678,7,-3,8,-5,-2,0,0,-4
1511883682086777,-24,-13,-8,2,11,-1,4,-11
1511883682086777,4,0,9,1,3,0,5,1
1511883682094797,20,-1,-1,-7,-6,-5,6,7
1511883682094797,-2,13,13,-1,4,3,-1,4
1511883682109865,-5,-11,-18,-9,-6,-1,1,-6
1511883682109865,18,25,7,0,-3,-3,-2,-4
1511883682110840,6,15,-2,5,-4,4,-1,-7
1511883682110840,11,-9,-12,0,-11,2,-7,5
1511883682123875,-12,-1,-6,1,-10,3,-10,-11
1511883682123875,-2,-8,8,10,-2,-3,-4,3
1511883682130894,8,-14,3,4,9,-5,2,0
1511883682130894,7,11,16,6,10,0,2,5
1511883682138417,18,2,-18,-2,10,2,2,14
1511883682138417,-19,-3,9,4,6,4,8,8
1511883682145937,-3,0,2,6,1,0,-6,-11
1511883682145937,-11,-1,-2,8,9,4,3,-10
1511883682161982,23,14,11,-2,-6,-2,8,25
1511883682161982,10,-5,2,-6,-11,-1,2,-2
1511883682163987,6,14,-10,-1,-9,-4,2,2
1511883682163987,11,1,-4,-7,-10,-8,-4,-1
1511883682177022,-2,6,11,-1,2,-2,-8,-5
1511883682177022,3,-5,-8,-8,0,-2,-5,2
1511883682179028,-8,2,7,-1,6,0,0,4
1511883682179028,7,-12,-6,-2,4,-1,2,11
1511883682183038,-40,-2,13,0,-1,-9,-1,-1
1511883682183038,-6,4,-14,-7,-2,-4,5,4
1511883682192061,11,2,2,-2,1,1,-2,-8
1511883682192061,-38,-22,-6,3,0,0,0,3
1511883682198078,24,-4,-7,2,-4,-1,-1,-16
1511883682198078,17,-9,1,7,1,4,4,19
1511883682207101,-48,-15,3,-1,0,1,-4,-22
1511883682207101,10,-5,-8,-5,0,1,-4,-16
1511883682220162,-1,6,9,-4,-3,1,-8,-6
1511883682220162,-21,-6,-17,-8,-3,3,-9,-5
1511883682229163,44,6,4,-5,0,3,-5,-5
1511883682229163,-2,16,6,3,4,2,0,9
1511883682243227,-24,-15,-8,-1,-3,-4,1,-10
1511883682243227,7,6,7,9,-1,-6,7,5
1511883682251789,3,-6,-19,3,-6,-3,-2,-10
1511883682251789,8,10,3,-2,-1,2,1,3
1511883682257803,-20,5,6,-3,2,-1,-6,-13
1511883682257803,-17,-16,-10,-13,1,-6,-1,0
1511883682266827,21,18,12,0,3,-1,4,12
1511883682266827,-49,-16,-6,-4,-6,-5,-1,-9
1511883682280868,25,5,1,1,-3,0,1,-1
1511883682280868,-14,-9,-1,-3,-3,2,-3,-13
1511883682289890,-14,1,6,-2,-4,4,-5,6
1511883682289890,23,5,0,-2,-3,0,-8,6
1511883682302925,5,7,7,0,2,-2,-1,1
1511883682302925,-27,-2,8,0,2,2,-3,-15
1511883682311948,8,-7,2,-3,-2,-1,4,3
1511883682311948,3,-6,-4,-2,2,-3,4,-9
1511883682317963,-15,-11,-10,-3,-4,-2,3,-2
1511883682317963,39,14,0,8,1,-5,2,11
1511883682326988,-18,-7,-12,-3,-1,-1,7,5
1511883682326988,-6,-1,0,-2,2,3,3,-2
1511883682341028,33,-7,-3,-3,2,6,5,2
1511883682341028,10,-4,-6,-1,-3,7,-7,-4
1511883682349553,18,-8,-3,4,-5,-9,-9,1
1511883682349553,-1,8,-4,-5,-5,-4,1,15
1511883682362588,22,10,-3,0,-2,-2,-2,6
1511883682362588,-6,1,-7,-4,-1,-2,-5,-2
1511883682371612,4,1,20,2,8,1,-2,-2
1511883682371612,-5,-7,-2,1,4,-4,-4,-23
1511883682377628,-29,-6,-13,-4,1,-7,1,-7
1511883682377628,5,12,6,-1,0,-4,0,0
1511883682386652,0,-1,1,1,-2,4,-3,-9
1511883682386652,7,2,10,3,-10,1,4,14
1511883682400690,-5,-3,2,5,0,8,6,3
1511883682400690,8,-1,3,2,-3,-2,-1,-16
1511883682409713,-12,4,-12,-3,-4,-1,-1,10
1511883682409713,5,1,0,-4,-2,5,-6,3
1511883682422748,1,5,20,3,-2,-3,-1,7
1511883682422748,1,-4,-12,-2,-3,0,3,-4
1511883682431772,5,2,5,-2,-13,-1,2,0
1511883682431772,-1,-1,10,3,2,2,3,3
1511883682438292,-5,4,7,0,1,-3,2,-4
1511883682438292,-14,-10,4,3,9,-4,-1,-2
1511883682447317,8,-5,-4,0,9,-6,-7,1
1511883682447317,6,5,2,7,6,7,-5,-7
1511883682460371,10,-2,-13,5,2,2,-7,1
1511883682460371,-4,-3,-5,-1,-4,0,1,0
1511883682469394,1,4,-4,0,-11,0,4,4
1511883682469394,10,3,1,-6,-11,-10,-1,-1
1511883682483431,13,5,11,3,0,2,1,2
1511883682483431,-27,-5,-4,-5,-7,3,-2,-4
1511883682492455,-5,0,0,0,2,-2,2,2
1511883682492455,2,3,-18,-2,3,-1,0,4
1511883682506492,13,-11,-35,0,15,1,-1,10
1511883682506492,2,0,-15,-5,-8,-5,-5,4
1511883682508498,-9,-9,-8,1,10,5,2,-2
1511883682508498,-9,-3,1,-14,-2,-4,-2,-7
1511883682520530,-1,-2,-10,3,4,2,3,-18
1511883682520530,10,4,9,6,8,0,6,3
1511883682529555,-5,-7,-16,-5,-2,-3,6,-8
1511883682529555,-13,-17,12,11,-6,-1,5,-7
1511883682543092,0,8,2,5,9,8,-3,0
1511883682543092,-3,-2,13,-1,1,-2,-10,-22
1511883682552119,-8,3,12,-3,-3,3,-4,-6
1511883682552119,4,3,-1,-4,-4,-2,-8,-7
1511883682567160,-11,4,8,-5,-13,-6,-1,3
1511883682567160,-8,5,4,11,15,0,-1,-2
1511883682568162,13,-3,-4,-2,-2,-8,2,-3
1511883682568162,22,-5,-3,-9,0,-1,2,-12
1511883682580220,-2,-15,6,1,-9,-3,-1,0
1511883682580220,-5,5,13,5,4,4,-4,2
1511883682589217,-11,-3,-9,5,14,7,-3,6
1511883682589217,-5,-1,-6,1,4,2,-4,8
1511883682603254,-3,0,-9,-8,-10,-8,-2,10
1511883682603254,9,0,1,-3,0,-2,2,5
1511883682612278,-15,3,-2,-8,-7,0,-3,5
1511883682612278,-10,4,-2,12,6,4,-3,3
1511883682627319,10,1,-6,-4,-7,-1,-8,2
1511883682627319,12,6,2,-8,-17,0,-1,2
1511883682628322,-1,-9,-12,0,-2,-3,1,2
1511883682628322,0,0,-7,-7,1,-2,0,-8
1511883682640886,-12,5,3,4,2,-3,-2,-8
1511883682640886,-1,-2,4,1,4,-4,5,-1
1511883682649408,2,-7,-6,1,9,-2,-1,5
1511883682649408,5,0,7,-6,-3,-3,0,9
1511883682663474,4,4,8,-7,-1,-1,2,-2
1511883682663474,-25,-8,-17,-6,-8,2,5,1
1511883682672472,-2,11,17,4,-9,0,4,-6
1511883682672472,5,2,-11,-2,-7,-5,2,0
1511883682686508,-21,3,5,-3,-5,-1,-3,-6
1511883682686508,5,2,4,-2,1,-3,-8,1
1511883682688513,14,3,-10,1,7,5,-4,10
1511883682688513,-8,-5,9,8,6,1,-3,1
1511883682700546,4,-5,-21,-2,9,-1,1,6
1511883682700546,3,4,-6,-5,-5,-4,0,4
1511883682709571,3,-1,-3,-4,-8,-5,-2,1
1511883682709571,1,-2,-5,-3,-9,-5,1,6
1511883682722626,12,1,13,1,2,0,-4,2
1511883682722626,11,-9,4,3,4,-3,3,16
1511883682731628,-46,-3,2,-8,-2,0,1,-16
1511883682731628,-2,4,3,7,0,3,7,2
1511883682747174,0,-9,0,-4,-6,-1,4,-2
1511883682747174,-3,4,-9,0,5,-5,-1,-1
1511883682748678,9,1,8,-8,-5,-7,-2,12
1511883682748678,-9,-12,-11,7,11,7,0,10
1511883682760245,-21,-22,5,0,-9,3,-2,1
1511883682760245,7,19,5,1,-14,0,-5,1
1511883682769269,14,0,-2,-2,-5,-3,-9,-16
1511883682769269,16,26,8,-5,-2,-5,-2,-3
1511883682783309,18,-4,-1,0,0,-2,5,-1
1511883682783309,4,-6,2,-8,-2,-1,6,-20
1511883682792330,-5,-8,-6,1,5,1,1,8
1511883682792330,11,8,6,-3,0,-4,-4,-3
1511883682807370,-7,8,22,10,3,-7,-10,-2
1511883682807370,12,-10,-26,-5,3,9,0,-3
1511883682808372,-31,4,5,-1,2,2,-2,-1
1511883682808372,27,-11,-11,-3,1,6,2,17
1511883682820404,-21,13,-4,2,-2,5,1,0
1511883682820404,-12,-16,-1,5,2,0,1,2
1511883682829429,35,7,6,5,1,-1,-2,-7
1511883682829429,-19,-8,-8,3,-6,-5,0,-6
1511883682843495,2,-1,-1,-6,-6,-1,2,-6
1511883682843495,-32,-7,2,-6,1,1,0,-12
1511883682852519,20,-2,-8,2,-5,7,7,3
1511883682852519,-58,-3,0,0,-5,-2,-5,-16
1511883682867587,0,0,-9,-2,3,0,4,3
1511883682867587,11,8,5,-2,-2,1,6,2
1511883682868563,7,1,3,4,2,-2,10,14
1511883682868563,9,0,7,1,1,-4,-4,3
1511883682880596,4,-5,-2,-3,2,-2,-5,7
1511883682880596,12,-4,2,1,4,-4,-8,4
1511883682889618,-10,1,-5,-7,-4,2,-6,-9
1511883682889618,-15,1,5,-1,-4,3,0,-5
1511883682902652,37,7,-15,-2,2,2,2,3
1511883682902652,5,-1,-1,-2,-7,-2,-1,-4
1511883682911676,27,-10,-2,0,-5,4,7,4
1511883682911676,-25,21,12,6,-5,1,-1,-24
1511883682926716,0,-3,-4,2,-9,-2,3,17
1511883682926716,-9,-16,-1,6,-8,-6,-2,-3
1511883682928722,-13,5,1,4,2,-8,-2,-1
1511883682928722,-9,-8,-10,-2,10,-5,-3,-3
1511883682940768,-12,1,8,-4,3,0,-5,-7
1511883682940768,0,8,-2,-4,2,2,-10,-2
1511883682949792,7,1,11,-4,1,-4,-4,2
1511883682949792,16,-1,2,-5,-3,-1,6,7
1511883682962828,-15,-10,-7,-1,4,1,7,-6
1511883682962828,-8,-3,-17,0,0,5,2,1
1511883682971852,-33,-1,-4,2,-1,-1,-4,-2
1511883682971852,8,-5,-3,4,-1,5,1,1
1511883682986922,1,-4,-4,1,-2,-1,-3,-3
1511883682986922,17,1,-1,0,-1,-5,-2,11
1511883682988899,-43,-7,-2,-3,-4,-4,-8,-17
1511883682988899,21,-2,-1,-1,6,0,2,21
1511883683000935,15,9,6,-5,5,1,0,1
1511883683000935,-17,-2,4,-2,2,0,0,11
1511883683009954,12,-1,3,0,-3,0,0,-4
1511883683009954,10,-5,-9,-7,-9,-1,2,-5
1511883683022989,9,1,11,0,-5,-8,2,-4
1511883683022989,-2,-2,-5,2,-3,-6,2,-6
1511883683032022,18,2,-11,1,5,1,3,11
1511883683032022,-4,-10,-3,4,5,1,0,-4
1511883683047055,-11,0,-9,-5,1,-3,4,0
1511883683047055,-32,-16,-5,-4,-1,-4,1,-6
1511883683048560,-4,17,15,-5,-8,0,-1,-7
1511883683048560,0,-4,-3,-1,-5,3,-1,9
1511883683092205,-10,13,10,2,1,9,-7,10
1511883683092205,19,4,0,0,0,3,3,4
1511883683095212,23,-7,-15,-1,9,0,6,0
1511883683095212,-13,-1,2,-2,2,-2,1,-3
1511883683105238,3,-5,4,-2,-10,0,-1,-10
1511883683105238,7,-2,-8,3,2,7,1,-6
1511883683114263,50,7,3,0,-9,0,-2,18
1511883683114263,-61,-6,-8,-2,-4,-5,-6,-28
1511883683129302,-6,-1,-2,2,-1,-3,1,-3
1511883683129302,22,-8,-5,-1,-2,-5,-3,1
1511883683131335,5,12,11,0,4,0,-1,-3
1511883683131335,21,-2,3,-7,-3,-9,-4,-3
1511883683143844,-4,-6,-6,2,9,4,-5,-4
1511883683143844,-21,2,4,0,-2,5,1,-4
1511883683144847,-24,-16,-2,9,1,5,-3,-3
1511883683144847,8,12,4,-5,1,2,3,9
1511883683158374,11,4,-9,-5,9,-3,4,-1
1511883683158374,12,1,5,-1,3,-6,2,7
1511883683165392,-5,8,6,-2,2,-9,-5,0
1511883683165392,13,-11,3,6,1,-3,-2,0
1511883683173413,11,3,14,4,-2,-4,-2,-4
1511883683173413,-10,2,-2,-10,1,2,-4,-5
1511883683182437,-17,13,10,3,4,2,-1,-3
1511883683182437,-7,-22,-24,-8,0,4,2,-3
1511883683196473,-14,12,10,12,8,6,8,23
1511883683196473,2,-1,-3,-4,-10,4,-1,6
1511883683198479,-46,-14,1,10,2,4,-3,-3
1511883683198479,8,7,5,-4,-2,-1,-6,-8
1511883683210512,11,-10,-3,4,6,2,2,9
1511883683210512,4,5,-4,0,3,-9,-2,6
1511883683219535,-15,-2,2,-12,0,-5,-1,-9
1511883683219535,6,16,14,23,16,8,3,3
1511883683234575,3,-2,-11,-8,-14,-10,-7,-10
1511883683234575,2,4,21,10,6,3,2,-6
1511883683236083,16,-8,-4,4,6,1,6,-4
1511883683236083,6,2,8,3,5,3,3,-3
1511883683256641,-6,-6,-20,-20,-13,-4,0,-6
1511883683256641,10,8,4,6,3,6,2,2
1511883683258646,11,-7,11,-2,-2,-4,-3,7
1511883683258646,5,9,-17,-11,-3,0,-3,-7
1511883683270676,2,3,24,7,-2,-5,0,16
1511883683270676,14,0,-11,-3,2,3,3,3
1511883683279717,-7,-2,-11,-7,-9,-10,-2,-20
1511883683279717,-2,-23,-12,1,-6,-3,-1,6
1511883683294743,-8,3,-2,2,3,3,-1,-5
1511883683294743,5,8,25,-5,-1,4,-3,1
1511883683295744,37,4,-9,-6,0,0,0,15
1511883683295744,7,2,-1,0,3,2,1,-3
1511883683316801,4,-12,-17,-9,-5,-3,-6,-15
1511883683316801,-13,-3,5,4,-3,10,7,-13
1511883683318806,9,4,-5,1,-5,7,5,7
1511883683318806,-5,-1,10,1,-4,-10,-3,-1
1511883683330839,-4,4,-13,-4,-2,-9,-4,0
1511883683330839,4,12,12,2,2,-8,-12,-24
1511883683339571,28,-8,-14,-2,-4,1,2,13
1511883683339571,2,5,-14,-8,-3,3,4,-2
1511883683354612,19,10,31,3,7,-3,3,12
1511883683354612,6,-2,-24,-11,-4,-9,-6,-13
1511883683355617,-5,-1,16,3,-4,-3,-2,-8
1511883683355617,-1,-5,-3,-8,-7,-6,-7,3
1511883683376670,2,4,-6,3,4,1,-8,-3
1511883683376670,-50,-11,-9,-4,-1,2,-2,-4
1511883683378676,-8,-10,-4,0,-4,0,0,-9
1511883683378676,9,6,1,-3,0,-1,3,8
1511883683390708,-9,-5,-4,6,0,5,-5,-8
1511883683390708,15,3,2,1,-16,-4,8,18
1511883683399732,-25,1,-5,3,1,2,7,5
1511883683399732,13,10,7,-6,-5,-2,4,-8
1511883683421791,-31,-16,-1,-4,-5,5,-3,-18
1511883683421791,-3,2,0,4,-1,-5,-7,-6
1511883683423797,8,-6,1,-7,-4,-1,-9,1
1511883683423797,14,2,-3,10,13,7,0,10
1511883683437335,-7,-8,-7,-5,-9,-2,0,6
1511883683437335,0,7,10,-9,-5,2,0,7
1511883683438838,-57,-15,-8,-2,2,-2,-4,-12
1511883683438838,2,4,-3,-3,3,-5,-5,-3
1511883683450377,8,13,12,0,9,-5,0,-15
1511883683450377,-9,-3,-3,2,9,-5,-4,-2
1511883683459422,23,4,-8,-1,5,-9,-2,15
1511883683459422,-8,-27,-6,3,-3,4,0,1
1511883683474461,-6,3,12,-2,-10,6,10,2
1511883683474461,17,-1,1,-2,-8,-7,3,7
1511883683476467,7,2,5,1,3,2,0,-3
1511883683476467,-10,-5,19,3,-3,-2,-3,-4
1511883683496521,5,3,1,-1,1,2,0,1
1511883683496521,11,8,19,1,-2,-4,1,4
1511883683498525,-17,-10,20,5,14,3,0,-3
1511883683498525,13,16,23,5,-4,-2,2,15
1511883683510558,-18,-13,11,2,-6,3,-6,-12
1511883683510558,-28,0,4,0,-7,0,-10,-2
1511883683519582,19,6,5,-2,1,2,1,8
1511883683519582,12,-2,-1,-3,-2,-2,2,-2
1511883683534621,3,-6,-12,3,2,-1,1,6
1511883683534621,0,-7,-11,1,7,-4,-1,9
1511883683536127,-11,2,-17,-4,-4,-5,-8,-12
1511883683536127,-22,-2,-13,3,9,-1,0,6
1511883683556763,9,-7,-13,6,-1,-3,0,-1
1511883683556763,-13,-10,-13,4,0,6,3,-4
1511883683558769,14,4,-10,-4,-5,3,5,5
1511883683558769,8,18,7,-8,-6,-3,4,4
1511883683570801,1,-2,-11,-7,-6,-1,1,13
1511883683570801,26,-5,3,-4,-2,-6,-3,3
1511883683579823,-13,-2,-2,-8,-8,-8,-3,-6
1511883683579823,-11,-8,-11,-3,-4,-8,-3,-5
1511883683593860,3,3,-6,-2,6,-1,4,-8
1511883683593860,5,1,-3,3,1,2,3,3
1511883683600880,40,17,-1,7,0,1,0,1
1511883683600880,-3,-6,-6,2,-1,-2,-1,-11
1511883683608901,0,7,5,3,7,3,1,27
1511883683608901,6,1,5,-1,6,1,-1,111
1511883683610906,0,-6,-8,-3,-4,-2,-1,36
1511883683610906,-1,-1,-10,-1,-5,-2,1,2
1511883683622939,-10,-6,-13,-4,-8,-5,-3,-17
1511883683622939,6,2,-5,-1,-7,2,9,8
1511883683631962,-4,-2,4,-7,-9,-1,4,22
1511883683631962,-2,0,9,1,-1,6,2,-44
1511883683646504,9,-3,-6,-1,3,3,-3,-113
1511883683646504,-29,-5,4,1,9,6,-8,-128
1511883683653025,-16,-2,-11,-1,9,-1,-10,-128
1511883683653025,-4,13,-3,-3,3,-9,-10,-90
1511883683669068,4,-7,-11,-4,7,-4,-2,-42
1511883683669068,-9,0,-6,1,3,-3,4,-20
1511883683671073,8,11,19,4,-8,6,8,6
1511883683671073,-6,-10,7,-6,-13,1,-2,42
1511883683683104,-6,1,3,-1,-2,1,-1,75
1511883683683104,-3,-5,-11,-6,-6,3,-4,46
1511883683699146,-6,0,-3,12,8,6,4,54
1511883683699146,3,-1,-3,-5,-3,7,-2,58
1511883683706167,7,1,9,-1,-6,0,-6,44
1511883683706167,16,-11,-11,-9,-11,-1,-1,12
1511883683713184,1,-5,-5,2,0,1,-5,13
1511883683713184,2,-3,-7,4,8,-2,-3,16
1511883683729226,-4,-1,0,-1,-1,-4,-1,10
1511883683729226,-11,1,2,0,1,0,3,-3
1511883683731231,-11,5,9,-7,0,-4,-1,6
1511883683731231,-5,-5,-9,-5,3,-2,1,5
1511883683743266,-4,7,1,4,19,1,-1,-3
1511883683743266,1,6,4,-13,7,-1,2,-12
1511883683752291,-2,-10,-5,0,15,-4,-3,-13
1511883683752291,-3,-7,3,5,16,-5,0,-13
1511883683766330,13,6,2,1,1,-7,3,-4
1511883683766330,12,4,8,0,1,-5,-3,-8
1511883683773347,11,0,-16,1,3,-2,-5,-8
1511883683773347,6,2,5,-12,-25,-4,1,-8
1511883683789391,-5,-3,5,-5,-12,2,1,-4
1511883683789391,-1,-2,-2,0,-11,4,-1,-1
1511883683791396,-8,-10,-10,-1,-5,-3,-4,4
1511883683791396,-7,6,3,-1,-9,-4,1,9
1511883683803427,-3,-1,-8,9,-1,-8,3,-7
1511883683803427,0,1,-9,6,-2,-11,1,-9
1511883683812451,3,-4,2,5,-13,-6,0,-4
1511883683812451,5,-2,0,-7,-5,3,-4,0
1511883683826489,5,2,0,-4,-8,6,-2,4
1511883683826489,0,-4,11,1,0,9,4,-6
1511883683840528,-1,0,9,-4,-22,-6,5,-4
1511883683840528,-3,-1,-4,-4,-8,-1,1,4
1511883683849552,-5,-5,-3,-6,-6,-1,-5,15
1511883683849552,-3,-2,-3,16,8,4,-3,3
1511883683851056,-5,-9,-3,2,0,4,1,3
1511883683851056,-7,-8,-2,2,-1,-2,-5,-5
1511883683862598,4,5,1,-9,-16,-4,-1,-8
1511883683862598,6,-4,-6,-3,5,-1,-6,-8
1511883683871613,2,3,5,3,4,0,0,-6
1511883683871613,-3,-8,-7,10,14,1,3,-9
1511883683886654,-8,-2,-5,2,4,0,2,-4
1511883683886654,-3,3,1,-1,4,-2,-2,-3
1511883683892669,-2,10,9,-2,5,-5,-11,-8
1511883683892669,5,1,-4,13,14,5,-6,-6
1511883683909714,7,-3,-2,-2,-2,4,-5,-7
1511883683909714,5,9,9,6,5,3,3,-8
1511883683910717,-2,-3,-5,-7,0,1,4,-10
1511883683910717,0,4,7,-5,-5,-2,1,-8
1511883683922773,-3,2,8,-2,9,4,6,-8
1511883683922773,-6,-4,-7,-11,-7,-6,-5,-8
1511883683931773,-3,0,-12,-24,-26,-2,2,-7
1511883683931773,0,7,11,2,-8,10,5,-9
1511883683946314,-6,-18,-25,-10,-11,0,2,-14
1511883683946314,-1,-2,-10,10,7,-1,-6,-7
1511883683953388,4,6,12,5,-15,-7,-6,-4
1511883683953388,3,-8,-4,-18,-19,-1,-1,2
1511883683968428,7,9,11,14,9,-5,0,3
1511883683968428,-3,-10,-12,4,12,0,10,-3
1511883683977579,0,-4,6,-12,-3,-3,2,3
1511883683977579,-2,6,3,-8,4,0,-7,6
1511883683983591,-11,-10,-19,2,3,-6,-5,8
1511883683983591,6,3,21,2,-4,-5,1,5
1511883683992504,-6,-6,5,9,4,-7,5,6
1511883683992504,-5,-8,-9,-1,6,-3,-1,1
1511883684006659,-2,-7,-2,-11,-1,2,5,5
1511883684006659,-3,12,1,-10,-8,-2,3,7
1511883684013577,8,10,-2,5,15,9,4,6
1511883684013577,7,3,-1,3,0,-4,0,9
1511883684029592,4,3,8,10,1,2,-7,4
1511883684029592,3,0,4,-2,-7,-5,-9,-4
1511883684030594,-1,-3,8,4,0,-5,-5,-4
1511883684030594,0,1,-9,3,3,-5,0,3
1511883684043137,-9,-5,4,6,1,-3,-3,5
1511883684043137,-4,8,11,-1,7,2,0,3
1511883684052175,-4,0,-7,2,10,-6,1,3
1511883684052175,3,-5,-1,2,12,-8,-3,-8
1511883684066215,-2,8,-1,-7,-1,-7,-1,3
1511883684066215,22,-2,-13,-3,-12,-8,-6,22
1511883684073234,-2,-2,-10,-4,-2,0,-6,0
1511883684073234,11,2,-4,7,-4,-4,2,12
1511883684104316,-3,5,-10,1,1,-3,-1,-21
1511883684104316,-38,-11,-7,-6,-4,-11,-2,-13
1511883684106336,3,3,-6,-9,5,2,4,-2
1511883684106336,-2,-8,6,-2,-1,1,5,1
1511883684125465,16,-1,13,-3,-3,2,1,0
1511883684125465,10,-5,2,2,0,9,1,-28
1511883684136408,-3,0,-2,1,4,13,4,8
1511883684136408,-16,1,3,-4,-1,10,-3,-6
1511883684141423,8,4,8,-5,-4,-4,-7,5
1511883684141423,4,-1,-5,-5,-8,-2,2,13
1511883684142423,-3,-6,-11,-7,-4,-4,-8,-6
1511883684142423,39,11,5,3,7,6,2,10
1511883684149946,-47,-2,0,0,4,3,-2,-14
1511883684149946,6,0,-1,0,2,4,4,14
1511883684151451,0,1,2,2,-5,1,-4,-16
1511883684151451,1,1,3,4,-2,0,1,3
1511883684162618,9,-3,-5,-2,1,5,2,4
1511883684162618,2,4,2,0,2,3,-3,-2
1511883684171668,9,-4,-10,-2,9,1,-7,20
1511883684171668,-35,-12,-8,1,-1,-8,-2,-14
1511883684186709,13,8,15,4,1,-2,3,16
1511883684186709,0,-7,-3,0,-5,-4,2,0
1511883684192724,-2,-1,13,9,4,4,5,10
1511883684192724,12,-6,-25,-8,-2,8,-7,-15
1511883684208767,10,-2,-2,-4,-10,5,-4,1
1511883684208767,-37,-14,-4,-5,1,4,-4,-3
1511883684215785,16,7,5,4,2,8,0,-2
1511883684215785,-16,3,5,6,2,-3,-3,0
1511883684222808,22,3,-4,-2,-3,-6,1,-5
1511883684222808,6,-5,-3,1,-5,-1,-2,-7
1511883684231801,8,-11,4,4,-3,1,3,-7
1511883684231801,-13,11,12,1,0,2,2,1
1511883684246394,3,6,2,1,-3,3,5,-2
1511883684246394,7,6,7,4,-2,-3,1,11
1511883684252931,-9,4,-5,-3,-6,-3,3,2
1511883684252931,10,-6,-11,-6,-2,0,-2,0
1511883684268951,-9,4,-3,-2,6,-4,-9,1
1511883684268951,0,4,2,-5,-4,-1,-3,-7
1511883684275969,7,-3,-5,0,4,-5,-6,-10
1511883684275969,10,1,0,-7,-7,-5,1,3
1511883684282988,25,9,-6,1,4,-5,6,7
1511883684282988,-29,-5,1,0,3,-2,7,-5
1511883684292013,-5,-10,-2,2,8,-1,1,4
1511883684292013,-1,-7,-11,1,-6,1,2,-2
1511883684306050,-1,-8,4,6,3,2,4,-2
1511883684306050,6,-6,-10,4,2,-1,-3,3
1511883684313070,-18,-4,8,-5,-7,5,-1,5
1511883684313070,10,5,1,-8,-5,5,0,18
1511883684329110,-42,-1,17,-2,1,8,-1,-9
1511883684329110,25,-4,-9,-4,6,-2,-6,0
1511883684335127,8,7,6,-2,-1,-3,-3,-4
1511883684335127,11,-2,-9,0,2,-5,-5,7
1511883684343150,7,-2,-8,-4,-15,-2,-1,1
1511883684343150,9,-7,-9,0,-6,3,5,-6
1511883684351673,-17,5,13,-1,1,2,-3,-11
1511883684351673,-23,0,13,2,3,-2,4,2
1511883684365853,2,0,6,5,3,1,2,-2
1511883684365853,-12,-3,-5,1,0,6,2,-5
1511883684372892,17,12,-16,6,2,6,0,-1
1511883684372892,-13,-12,0,5,6,-3,-8,-6
1511883684388913,5,-3,2,0,5,-4,-6,6
1511883684388913,-41,-13,-3,-8,-5,-15,-8,-2
1511883684395933,8,-1,5,-6,-7,-10,-5,3
1511883684395933,1,8,4,0,0,4,-1,-6
1511883684411976,-4,-7,-10,-5,-7,2,-4,3
1511883684411976,12,2,4,5,-1,-2,2,-2
1511883684413990,8,1,-3,-1,-5,-3,8,-5
1511883684413990,-67,-22,2,1,-5,-7,-1,-24
1511883684426012,2,7,-7,-1,-6,7,0,-5
1511883684426012,-23,-6,-7,-5,-7,10,-3,-9
1511883684433030,-8,0,-3,-1,-3,8,-5,1
1511883684433030,10,6,6,1,2,3,-6,6
1511883684449076,2,0,5,-2,5,-1,-10,6
1511883684449076,6,-5,4,-5,3,0,-8,-6
1511883684455639,10,13,13,-6,-9,-8,0,3
1511883684455639,8,-3,-1,-2,-3,-3,6,-8
1511883684471709,19,1,1,-6,-8,-3,4,-1
1511883684471709,4,23,6,0,0,-1,4,5
1511883684473688,-20,-23,-27,7,8,3,5,-11
1511883684473688,18,12,7,3,4,3,10,16
1511883684486722,-24,-9,3,8,2,-4,2,-4
1511883684486722,28,-7,5,3,5,4,1,2
1511883684492739,-48,-5,-5,-8,1,4,-8,-1
1511883684492739,-25,-11,-7,-4,-3,9,-7,-17
1511883684508782,5,12,-5,6,1,7,-2,-8
1511883684508782,2,-3,3,1,-3,3,-3,3
1511883684515833,4,-1,-1,-7,-2,5,-4,8
1511883684515833,11,-7,5,-2,5,5,-4,7
1511883684531873,36,10,6,-6,0,3,-1,9
1511883684531873,2,3,5,5,0,-1,5,-19
1511883684533878,16,-1,-9,6,-3,-1,5,-4
1511883684533878,-21,-3,0,1,1,4,8,6
1511883684545913,11,-6,-17,-5,-3,-2,-1,-17
1511883684545913,-18,8,10,2,3,-1,7,32
1511883684554992,8,7,3,-2,1,-5,1,6
1511883684554992,14,0,6,-1,-7,-6,-2,8
1511883684569000,-1,-15,-2,-6,-5,-8,-10,18
1511883684569000,2,9,-7,-3,-1,-5,-10,-10
1511883684576020,2,-5,11,-2,-6,-7,-3,-1
1511883684576020,4,13,-1,-4,-1,-11,-6,-23
1511883684592093,-14,-13,-11,-3,2,-2,9,2
1511883684592093,58,15,0,4,4,-4,3,14
1511883684593065,6,-4,-7,0,0,-4,2,6
1511883684593065,9,-14,-5,-1,-3,-7,-6,-5
1511883684605097,9,11,7,-3,-3,-6,-1,5
1511883684605097,1,-12,2,-3,-8,-3,6,4
1511883684614121,-4,-10,-2,-2,-7,-2,2,-6
1511883684614121,3,8,13,-3,-9,2,6,1
1511883684629162,-1,0,1,1,0,7,4,2
1511883684629162,-26,-12,-7,-2,-8,4,-6,-27
1511883684635200,11,31,6,0,1,3,5,32
1511883684635200,-15,-5,-11,1,2,0,-1,1
1511883684652253,-2,-6,-14,-2,6,1,2,-3
1511883684652253,20,12,-4,3,7,3,-1,-1
1511883684653267,-25,-13,-3,2,6,0,-6,-25
1511883684653267,6,4,-6,-1,2,-3,-6,3
1511883684665315,-17,-8,13,-1,-5,-6,-5,-4
1511883684665315,2,-6,23,0,-3,-12,-4,5
1511883684674312,10,-10,-21,-6,-1,-6,2,9
1511883684674312,14,1,4,-1,-1,-2,-3,5
1511883684688349,-9,5,6,0,-10,1,0,-9
1511883684688349,-35,-1,0,-2,-5,-10,3,-18
1511883684695368,12,1,8,5,3,-5,1,1
1511883684695368,-6,10,-11,-2,-1,-9,-4,-11
1511883684712413,-7,2,-6,-4,6,-2,2,16
1511883684712413,17,8,-3,-1,-2,-3,-2,8
1511883684713416,-19,-2,10,3,-1,3,-3,-4
1511883684713416,0,-7,-11,3,2,3,0,5
1511883684725475,-4,-11,3,8,3,12,-5,-3
1511883684725475,-2,7,-3,-4,0,8,-2,-16
1511883684734472,11,4,0,-1,5,2,4,24
1511883684734472,-6,-3,4,-1,5,4,-2,3
1511883684749042,-1,2,-2,-4,2,-7,-3,-6
1511883684749042,-4,-5,-13,-4,2,0,1,-2
1511883684755538,-10,-3,0,-4,-5,-3,-3,-11
1511883684755538,23,1,4,6,-5,-7,6,6
1511883684771603,-25,-4,-6,7,2,-4,-1,-16
1511883684771603,-6,2,4,0,-6,-1,-7,6
1511883684773586,-6,4,6,-5,-3,5,-4,-25
1511883684773586,-2,21,11,-7,-3,1,2,6
1511883684785641,13,-1,-3,-4,-5,-8,-1,-7
1511883684785641,-40,-11,-17,-1,4,-1,-2,0
1511883684794642,25,9,7,5,3,-4,0,-9
1511883684794642,-19,-7,3,5,3,0,-2,-12
1511883684808706,-12,-3,-11,3,7,5,6,10
1511883684808706,13,-4,0,-4,-1,2,1,10
1511883684815724,11,-3,-2,-3,-8,-2,-7,6
1511883684815724,-1,-13,-8,0,7,3,-3,-4
1511883684831767,6,3,8,-2,-1,0,0,10
1511883684831767,-2,4,-4,-3,-3,2,-3,8
1511883684833772,-14,-13,-6,-5,0,3,2,-1
1511883684833772,6,2,-1,5,2,-2,2,-5
1511883684845803,-37,-6,-6,-7,-6,-8,-5,-3
1511883684845803,17,-9,-5,1,1,2,3,5
1511883684854368,-12,4,12,1,-4,-5,-3,-12
1511883684854368,4,-1,-1,-6,-3,-2,-5,1
1511883684868404,-9,0,-9,-2,0,0,6,2
1511883684868404,3,13,9,4,-9,-3,2,6
1511883684875451,21,5,-9,-2,-12,0,1,3
1511883684875451,-17,0,-7,9,-2,4,4,-8
1511883684891492,32,-3,1,1,-5,3,3,-5
1511883684891492,-12,-10,1,-5,2,4,3,10
1511883684893472,-7,-10,-7,1,11,1,0,-4
1511883684893472,4,-1,0,-8,8,0,1,4
1511883684905503,6,6,-2,5,18,-3,1,1
1511883684905503,13,13,-2,5,14,-5,-4,-12
1511883684914532,8,5,5,-4,13,1,-4,3
1511883684914532,-1,3,11,-2,4,0,-4,13
1511883684928565,-3,0,-1,2,4,3,-9,3
1511883684928565,0,-10,-9,-3,-1,-2,-4,4
1511883684935586,7,-8,-11,-7,-9,-2,0,-4
1511883684935586,10,-4,-4,-10,-13,-4,1,-2
1511883684952171,-4,2,4,3,-6,-2,-2,-12
1511883684952171,8,-5,-6,-1,-10,-1,5,0
1511883684953273,10,-7,-8,1,-14,-3,1,-9
1511883684953273,-30,-14,2,7,2,7,-5,-2
1511883684965370,6,-6,5,-4,-18,0,-6,2
1511883684965370,-3,6,10,12,4,6,2,7
1511883684974331,-8,5,12,8,-1,3,6,6
1511883684974331,14,-1,-17,-7,-8,-2,6,-1
1511883684988365,-4,15,2,-8,-1,-6,-5,3
1511883684988365,6,-6,-5,-7,2,-5,-3,-5
1511883684995384,7,12,-2,0,9,4,0,4
1511883684995384,-30,2,18,10,8,3,-1,-5
1511883685019447,-1,0,0,12,3,1,5,-1
1511883685019447,3,-8,-5,-10,-6,-8,3,17
1511883685021458,-10,-4,0,8,7,-6,-4,-3
1511883685021458,22,27,-3,-12,-9,-9,-5,2
1511883685025469,5,-10,3,3,1,-1,-3,4
1511883685025469,-5,-5,8,1,0,-3,-2,-8
1511883685034485,5,-9,-16,-8,-2,0,-1,2
1511883685034485,23,8,9,-3,-6,-1,1,2
1511883685049059,3,-4,-15,-6,-2,-5,1,-10
1511883685049059,10,9,6,6,-8,3,4,-10
1511883685055196,-14,-11,-6,2,5,-7,-5,-1
1511883685055196,7,-7,-2,5,0,6,-3,-2
1511883685072217,-8,-8,-7,-3,1,6,-5,1
1511883685072217,-19,-3,6,-1,0,0,-7,-2
1511883685073224,-8,8,-7,-10,-10,1,-3,3
1511883685073224,-3,3,13,19,7,4,5,6
1511883685086264,-2,0,4,3,-2,4,5,4
1511883685086264,-2,7,-18,-3,-20,6,-3,0
1511883685094326,-6,-7,14,4,-23,-1,-2,-5
1511883685094326,0,0,-12,-3,-18,-2,1,-5
1511883685108314,5,6,15,10,0,-1,4,-4
1511883685108314,6,2,-3,-1,1,-7,4,-9
1511883685115331,-1,8,11,-1,0,-1,5,-3
1511883685115331,11,-9,-11,7,3,3,3,-8
1511883685131374,3,-7,-3,-1,1,-4,0,-4
1511883685131374,-6,-14,-14,-6,13,0,1,-4
1511883685138399,-15,-6,-6,-6,7,-9,-3,-4
1511883685138399,6,7,13,-7,0,-7,-5,2
1511883685145918,-20,-6,-1,-8,-3,1,-12,-13
1511883685145918,-29,-11,7,-2,3,1,-5,2
1511883685154466,-39,-3,0,-1,0,-1,-5,-14
1511883685154466,9,-7,-11,-1,1,-1,1,24
1511883685168503,6,3,0,0,6,0,-2,-1
1511883685168503,6,-9,5,-2,2,-1,-3,-1
1511883685175549,5,0,3,7,4,4,-1,5
1511883685175549,-11,-1,-8,-7,0,-9,-2,-10
1511883685191563,-4,2,7,-7,-3,-3,5,-3
1511883685191563,1,-2,5,1,9,-1,1,-8
1511883685197581,14,12,9,-3,2,-2,0,1
1511883685197581,3,-17,-33,-4,1,5,-2,2
1511883685229692,14,-1,-2,-3,-5,-4,0,15
1511883685229692,2,2,-1,13,5,-1,-3,-5
1511883685232674,6,-6,7,8,9,6,-5,-4
1511883685232674,11,-1,4,-9,-6,1,-2,-16
1511883685235682,-10,3,-6,-10,-5,-1,2,-3
1511883685235682,22,2,-4,-6,-3,0,3,-1
1511883685237189,-2,4,-1,4,1,0,2,1
1511883685237189,19,-4,0,3,3,0,3,-4
1511883685251226,-45,-12,-7,2,-2,-9,-1,3
1511883685251226,12,-3,5,6,-6,2,-5,-8
1511883685258296,6,12,9,4,0,1,-4,-2
1511883685258296,-8,-1,-1,-1,1,2,-3,-2
1511883685265316,3,-2,-6,-1,-3,4,3,-1
1511883685265316,-8,2,-9,-10,-5,-4,0,0
1511883685274317,7,-8,-14,-11,-6,-2,2,3
1511883685274317,1,-6,-5,-8,2,-8,-1,-6
1511883685288352,20,23,7,-1,4,-5,0,1
1511883685288352,-33,-7,5,2,4,-5,2,5
1511883685295371,16,0,3,4,0,-2,-2,0
1511883685295371,-11,-8,2,2,-3,0,-3,7
1511883685311414,15,-11,-1,-2,0,5,-6,1
1511883685311414,30,8,-1,-3,2,3,1,2
1511883685318433,5,4,-3,-2,0,3,0,2
1511883685318433,18,5,-10,-1,-4,5,-1,-3
1511883685334478,-16,-2,8,7,-5,4,-8,-13
1511883685334478,25,13,1,-3,-8,0,-1,21
1511883685336524,-15,-8,-11,0,-5,-5,0,-1
1511883685336524,4,-2,3,2,-1,-7,0,-3
1511883685348068,3,2,8,1,-6,-4,0,5
1511883685348068,-1,-4,6,-3,0,-3,0,1
1511883685357090,-13,5,-14,-6,2,-2,-3,2
1511883685357090,-15,11,7,-3,2,8,3,4
1511883685386167,-23,-4,-10,-4,-6,-7,1,-6
1511883685386167,-13,4,3,-4,-2,-2,-1,-8
1511883685394189,3,-8,-3,-3,5,0,-3,-11
1511883685394189,-41,-14,-5,-1,1,-3,0,-9
1511883685417250,-2,1,2,0,10,5,-4,-5
1511883685417250,-7,18,4,4,0,-1,-2,-6
1511883685418251,-14,-6,-7,-6,-11,1,-1,-5
1511883685418251,15,1,3,2,1,-1,-6,-5
1511883685439810,12,6,3,-5,1,-2,1,3
1511883685439810,5,-9,-18,-3,7,-4,-6,6
1511883685441314,20,0,0,1,0,-7,-5,10
1511883685441314,-47,-4,10,0,-5,-4,-4,1
1511883685460366,8,-8,-3,0,0,5,2,-3
1511883685460366,-6,-2,0,1,2,2,-3,-25
1511883685469392,23,6,-1,0,5,-1,3,11
1511883685469392,2,-3,-5,0,1,-1,5,-3
1511883685477412,6,-4,-6,3,-1,1,4,4
1511883685477412,-18,12,14,2,-6,6,5,8
1511883685478414,-10,-7,-7,-9,-10,1,4,6
1511883685478414,5,8,9,-2,3,-1,3,4
1511883685506490,11,-3,3,-7,2,-3,5,-3
1511883685506490,4,-11,-8,5,10,-4,1,-8
1511883685514511,-9,-4,12,-1,1,-4,-5,-11
1511883685514511,-17,-3,-1,-9,-11,-7,-8,1
1511883685529551,-13,11,8,5,-3,0,-9,-2
1511883685529551,-5,1,-3,4,-5,8,-5,1
1511883685530580,-5,-2,-1,9,-2,8,1,2
1511883685530580,8,-2,-6,2,-6,0,-2,-1
1511883685544094,-4,-5,-4,0,0,1,2,1
1511883685544094,-22,-9,-6,0,5,-1,5,5
1511883685544595,-10,-4,2,5,1,-1,-1,-14
1511883685544595,16,-7,-9,-2,-1,-1,1,13
1511883685558660,23,6,7,3,1,-8,0,6
1511883685558660,-6,-10,-6,-6,-2,-6,-6,-14
1511883685565679,5,3,-3,0,0,-3,1,11
1511883685565679,0,-8,3,10,3,-3,-2,-3
1511883685581747,-18,11,-11,-8,-4,-4,-3,-5
1511883685581747,-1,-9,0,-1,-2,-1,2,-1
1511883685583727,-13,1,11,0,2,2,1,-5
1511883685583727,-9,6,8,1,1,1,0,-1
1511883685596789,-10,-16,-6,-6,0,1,0,-5
1511883685596789,-13,3,-2,-1,-8,-2,8,10
1511883685598767,6,-6,-13,-6,-2,-3,6,-6
1511883685598767,2,-7,-12,-4,4,6,5,-3
1511883685610830,37,10,-4,-4,-5,-2,3,5
1511883685610830,-8,-9,7,3,-8,-1,-6,0
1511883685617817,-4,-1,-8,3,-12,-11,-4,-8
1511883685617817,26,5,5,9,8,-5,4,9
1511883685641937,-52,-16,5,0,9,0,-5,-6
1511883685641937,12,4,-8,-10,-5,-5,-7,-1
1511883685643943,-2,3,8,-4,1,-1,-10,1
1511883685643943,14,11,11,-4,-5,5,-1,12
1511883685649937,18,-3,-12,11,9,9,-1,7
1511883685649937,8,-3,4,-14,-5,6,1,-4
1511883685651435,-2,-5,-7,-6,-16,2,-1,-8
1511883685651435,1,1,0,-1,-2,3,-1,-14
1511883685663516,-15,-8,21,6,4,1,0,-6
1511883685663516,2,2,-8,1,9,0,3,22
1511883685670540,14,-8,-4,1,5,-3,1,5
1511883685670540,-7,6,-7,-2,3,-2,0,-4
1511883685677562,-5,-12,-6,-4,-8,-3,-1,-3
1511883685677562,1,6,5,9,-4,-4,-2,-5
1511883685686583,37,10,7,-3,0,5,4,21
1511883685686583,-1,-4,-1,7,9,1,-8,-2
1511883685701597,34,-4,-26,-5,-3,-2,-3,-4
1511883685701597,12,-7,-6,-10,-11,-9,-5,0
1511883685703602,31,1,0,2,-2,4,3,13
1511883685703602,6,1,5,-2,-4,2,-2,-6
1511883685724685,-37,-12,-8,-1,-4,-1,-1,-12
1511883685724685,-5,0,-2,1,2,6,2,-10
1511883685725690,-16,-11,-15,-5,9,1,-4,-15
1511883685725690,-22,9,-3,-10,1,-5,-4,-1
1511883685739225,-16,-1,4,-2,-5,2,-3,2
1511883685739225,-2,15,2,3,-7,-3,1,0
1511883685745743,-45,-10,1,1,-8,-1,3,-11
1511883685745743,-28,3,6,3,-12,-4,2,-22
1511883685761588,15,-1,0,2,-7,-5,0,12
1511883685761588,-39,-5,5,5,2,1,0,-9
1511883685763594,-27,-9,-5,-4,9,-2,2,-8
1511883685763594,16,3,-6,-3,0,-7,2,7
1511883685784675,-27,9,3,2,4,0,-1,0
1511883685784675,-27,-3,-5,1,2,1,-1,6
1511883685785679,6,25,24,4,4,-1,-1,5
1511883685785679,-31,-10,1,-9,-1,0,1,2
1511883685797712,14,2,-1,-2,2,4,-2,-2
1511883685797712,8,-15,-8,-4,4,-5,-7,-10
1511883685806708,-2,-5,-19,-6,-7,-5,-4,0
1511883685806708,26,10,5,4,-1,3,-3,-13
1511883685821768,30,6,-2,-2,4,2,0,-7
1511883685821768,13,1,1,-1,9,1,0,-24
1511883685823753,10,4,11,4,10,1,3,-10
1511883685823753,9,-11,-6,-2,-4,1,9,-3
1511883685844366,8,0,5,-2,-4,-4,6,-4
1511883685844366,34,4,1,4,13,1,4,10
1511883685850856,2,0,6,-2,-6,-4,0,-3
1511883685850856,6,0,-4,0,-5,0,-3,-2
1511883685857898,12,24,7,0,-1,2,-4,-8
1511883685857898,4,-12,-17,-4,-6,-2,-5,-10
1511883685866922,4,-2,-10,3,-3,-2,-9,-13
1511883685866922,-4,-3,-13,2,-4,-3,-1,-4
1511883685881963,-2,-16,2,-2,-4,-3,-2,0
1511883685881963,9,40,16,2,-6,3,1,5
1511883685883967,-13,-21,-16,-5,-6,-2,0,3
1511883685883967,2,17,31,2,0,-3,0,8
1511883685904020,-1,-16,2,2,5,1,4,-1
1511883685904020,3,-9,-3,-5,0,3,-2,0
1511883685906026,-1,-3,-5,-3,-13,1,-4,-2
1511883685906026,0,-10,-18,-4,2,2,-4,0
1511883685918084,5,14,-8,-9,-4,-7,-5,5
1511883685918084,2,-5,1,2,-5,-3,2,5
1511883685927092,-2,3,2,0,11,4,3,-1
1511883685927092,1,-12,5,-6,-1,-5,-6,-2
1511883685934100,-11,2,-9,1,2,-3,-3,-1
1511883685934100,-1,-10,1,-5,-10,-4,-1,3
1511883685936107,-1,11,23,8,5,0,1,2
1511883685936107,-1,-1,0,-1,2,0,2,2
1511883685948186,7,-1,6,-4,-5,4,-2,7
1511883685948186,2,-4,-5,-1,-2,-1,-10,17
1511883685956724,0,-1,-2,2,-3,2,-7,13
1511883685956724,-8,-3,-5,-3,-2,1,-4,8
1511883685971764,0,-4,-8,0,-1,-11,2,3
1511883685971764,-7,7,-5,0,0,1,10,5
1511883685977779,-3,-11,-5,-1,7,2,5,-9
1511883685977779,-4,5,-4,-1,3,-3,2,-3
1511883685994822,-9,-3,-4,-2,1,-1,1,-8
1511883685994822,1,4,9,2,-5,-3,4,-4
1511883685995826,3,4,6,-2,-3,-5,-4,0
1511883685995826,2,-3,2,4,-2,-2,-3,-4
1511883686007859,11,6,10,6,0,0,-6,-2
1511883686007859,-30,-9,16,1,4,-3,-2,-4
1511883686016881,-14,-9,-17,-7,3,-2,1,-6
1511883686016881,6,-6,-14,-10,-3,-6,0,-5
1511883686031043,1,1,5,4,5,-1,3,-1
1511883686031043,9,0,-8,0,0,3,-6,-3
1511883686038448,-7,7,8,2,-7,-1,-2,1
1511883686038448,-1,15,10,2,0,5,-2,6
1511883686053986,13,2,-2,-2,-4,5,-3,-2
1511883686053986,27,-2,-4,1,1,-4,-3,-4
1511883686061018,19,-4,-4,3,7,2,1,5
1511883686061018,9,-15,-12,-2,3,1,7,3
1511883686068034,4,1,-19,-9,-6,1,5,5
1511883686068034,-7,-5,-24,-6,-7,0,-1,7
1511883686077058,-7,2,-17,-7,-5,-5,2,10
1511883686077058,-14,9,-7,2,3,-8,-3,17
1511883686091282,-19,-7,-39,-2,-2,-5,2,9
1511883686091282,-9,2,-4,5,8,0,-1,2
1511883686098113,-3,-1,0,0,-2,-5,-7,1
1511883686098113,-3,0,24,8,-4,1,-7,4
1511883686114323,-7,2,25,4,-5,5,-5,5
1511883686114323,-2,5,10,1,-3,-3,-2,2
1511883686120279,-4,2,19,-2,-8,1,1,6
1511883686120279,-6,-3,15,0,-7,4,5,2
1511883686128319,-11,-6,21,-6,-7,0,5,6
1511883686128319,-9,-8,22,6,8,-1,0,0
1511883686137217,0,4,6,3,0,-8,-10,5
1511883686137217,-2,2,-9,0,-2,-8,-7,1
1511883686151763,-5,1,-4,-6,-4,-3,-6,-3
1511883686151763,-14,-4,-10,-11,0,4,2,-9
1511883686158311,-8,10,11,-3,7,2,5,-12
1511883686158311,3,-8,-18,7,4,0,6,-10
1511883686173375,10,-4,-6,-1,7,0,-3,-4
1511883686173375,11,-6,-5,-3,4,-3,1,-6
1511883686180396,0,-4,-3,0,1,6,-3,-9
1511883686180396,2,-2,-1,-1,-4,5,-5,-8
1511883686196409,1,10,8,6,2,2,-3,-7
1511883686196409,5,2,-5,2,-5,-7,-4,-3
1511883686198430,1,-2,-6,3,4,2,7,-2
1511883686198430,2,-3,-1,-7,-12,0,4,2
1511883686211476,0,-4,-8,-6,-7,-6,1,2
1511883686211476,1,4,-3,-6,0,-1,0,1
1511883686218469,1,-3,-6,-5,-2,-2,-5,-3
1511883686218469,2,-5,-1,6,13,4,-2,-4
1511883686233509,-2,-6,-2,9,0,-2,0,-3
1511883686233509,-9,-1,5,-4,-5,5,9,3
1511883686248077,-5,-3,-4,-4,-7,-1,-1,0
1511883686248077,-4,1,3,1,4,-1,5,3
1511883686257077,1,-3,6,0,5,1,2,3
1511883686257077,6,0,10,-4,-13,-4,-7,-3
1511883686258079,9,6,9,6,5,6,-4,0
1511883686258079,5,1,-2,2,2,-1,-12,0
1511883686271114,1,-8,-9,-3,-1,-4,-5,3
1511883686271114,1,-1,0,12,16,-3,-1,5
1511883686278133,-6,-5,-7,-8,3,-7,-1,3
1511883686278133,-5,-1,-4,-14,-13,-8,1,0
1511883686294201,0,4,2,12,11,9,1,8
1511883686294201,2,1,-2,-10,-4,7,-4,10
1511883686300217,0,0,1,0,-2,2,-3,3
1511883686300217,2,-3,0,-3,6,-4,3,-4
1511883686317236,6,-1,0,-21,-16,-10,2,-4
1511883686317236,-1,-3,3,3,0,-4,3,-1
1511883686318238,-3,-3,-8,7,2,-2,8,2
1511883686318238,-11,-3,-1,-11,-10,-1,-1,5
1511883686331273,-7,-9,-8,-6,-23,-13,-5,8
1511883686331273,-2,8,15,11,23,7,3,15
1511883686338292,-5,-3,-13,6,-1,-3,-3,8
1511883686338292,2,-2,-4,3,8,4,-3,-2
1511883686353836,9,1,-1,-10,-5,1,3,-16
1511883686353836,2,-2,-4,-1,-6,-4,0,-15
1511883686360874,2,6,13,-1,-17,-7,7,-5
1511883686360874,-8,8,0,5,7,5,2,1
1511883686376917,-2,7,0,9,24,6,-1,4
1511883686376917,3,-5,-12,-3,-6,-1,3,0
1511883686378923,2,2,1,-3,19,14,-3,0
1511883686378923,6,-5,-5,-12,-17,-6,-10,-2
1511883686390954,5,2,5,5,-4,4,-1,0
1511883686390954,-1,-6,-2,0,-4,3,-4,-10
1511883686397995,2,3,3,-13,-6,-1,-1,-9
1511883686397995,-5,-7,1,7,12,5,-2,-8
1511883686414038,-10,3,3,-13,-26,-8,-3,2
1511883686414038,-1,3,-7,0,-28,-17,-7,-1
1511883686421034,-3,-12,6,5,13,0,-6,4
1511883686421034,-5,-2,6,10,6,4,1,-7
1511883686437099,-10,-3,2,6,40,18,7,-13
1511883686437099,1,-1,1,-3,-11,-2,4,-7
1511883686438102,-3,3,-1,2,-25,-12,5,-6
1511883686438102,4,2,-1,1,8,-4,1,1
1511883686451617,5,-7,-2,15,7,6,-3,3
1511883686451617,-2,-8,-1,-6,19,2,-9,-2
1511883686457659,8,1,-7,-10,-22,-18,-7,2
1511883686457659,-2,4,3,-3,-14,-2,1,8
1511883686473701,-6,-2,-6,2,6,-6,-2,1
1511883686473701,2,3,-2,13,23,18,1,-2
1511883686480720,-3,-6,-2,-2,13,11,-2,-4
1511883686480720,5,5,13,-16,-24,-9,3,-4
1511883686496762,2,-1,-8,12,-3,-8,0,3
1511883686496762,-5,-3,3,-4,-19,-9,-5,4
1511883686498767,-5,-3,-2,2,17,5,-4,-6
1511883686498767,-3,-3,-1,1,21,8,-2,-2
1511883686510829,2,1,2,-7,28,9,3,0
1511883686510829,-1,-4,-5,-10,1,-9,7,2
1511883686519851,-2,2,-4,5,5,-3,5,3
1511883686519851,0,1,-7,0,-2,1,-5,-6
1511883686533887,3,-5,-2,-1,-13,-3,-3,1
1511883686533887,7,2,2,5,-5,-1,-6,17
1511883686540925,-32,-7,-14,-5,-6,-4,2,-18
1511883686540925,16,-3,0,-2,0,-1,5,-2
1511883686556982,19,6,6,-3,-17,-5,4,-1
1511883686556982,-60,-8,3,-2,-9,6,3,-31
1511883686558992,7,-2,9,2,-4,7,5,1
1511883686558992,-3,-4,-5,1,-5,-4,-6,1
1511883686570016,-14,-5,-3,-1,-7,-3,-5,-11
1511883686570016,8,13,-3,6,5,0,-4,-1
1511883686580024,9,-3,-9,1,-6,2,-2,43
1511883686580024,-17,-1,-12,1,-5,-6,-7,-13
1511883686594091,21,8,4,-4,0,-8,-9,3
1511883686594091,-26,-6,-1,-4,0,-3,-5,-18
1511883686600104,24,7,8,-3,-4,5,8,-2
1511883686600104,29,5,5,-2,-3,5,3,6
1511883686617124,-31,-5,4,1,-15,-3,-5,-9
1511883686617124,25,12,-10,-3,-15,0,0,15
1511883686618127,10,3,5,-3,-9,-5,-3,-11
1511883686618127,-9,-5,4,-7,-9,-4,2,-6
1511883686630185,3,3,2,-3,-7,-2,0,-3
1511883686630185,14,-5,-3,2,-7,-1,3,1
1511883686639214,-15,0,-2,8,-1,-2,-2,2
1511883686639214,-16,-7,-16,2,-3,-6,-2,-5
1511883686653754,-20,-6,-45,-3,3,1,0,1
1511883686653754,0,-9,-47,-3,9,1,-2,5
1511883686660298,10,5,-32,1,8,-5,3,13
1511883686660298,4,-3,-19,3,9,1,7,11
1511883686676344,15,2,-2,-3,11,4,1,4
1511883686676344,-5,2,14,-6,6,-2,-1,-7
1511883686683360,21,2,17,1,6,0,6,5
1511883686683360,4,5,14,-2,0,-9,0,-2
1511883686690352,-4,5,23,-2,-1,0,1,-5
1511883686690352,2,3,15,-2,3,5,-2,0
1511883686699376,10,0,18,-1,-5,-8,-14,-12
1511883686699376,12,-4,7,-3,0,4,-2,11
1511883686721461,-3,-3,13,4,3,6,-4,-13
1511883686721461,14,1,1,-6,-5,-4,1,6
1511883686723441,-21,-7,-1,3,3,7,-2,-5
1511883686723441,-10,-5,7,6,8,4,1,1
1511883686736476,-9,-7,2,-6,-11,2,6,1
1511883686736476,10,7,7,-1,-3,1,7,-6
1511883686738481,-7,-5,2,2,-6,-3,1,-2
1511883686738481,-11,-10,-11,0,-4,-2,-1,-6
1511883686750545,15,14,5,0,-3,-8,3,8
1511883686750545,8,2,7,4,7,-3,-1,1
1511883686759571,6,-1,-3,-6,4,-8,-15,-3
