timestamp,emg1,emg2,emg3,emg4,emg5,emg6,emg7,emg8
1511885071238781,0,-2,-1,3,5,-1,-3,-2
1511885071238781,3,2,5,-1,-4,-5,2,1
1511885071239678,-1,3,2,2,2,1,1,-1
1511885071239678,-2,-2,-12,-2,-5,0,-10,-3
1511885071241682,2,0,6,-6,-4,0,4,-1
1511885071241682,-2,-3,-4,-1,-4,2,19,1
1511885071243692,-1,-2,-2,1,-3,-2,-5,-2
1511885071243692,-2,-4,-1,-1,-5,-4,-4,1
1511885071251712,-1,1,-1,-5,0,-2,5,-1
1511885071251712,-1,0,0,2,5,4,-5,-1
1511885071262739,-3,1,-4,-4,-4,3,5,-3
1511885071262739,2,-3,1,-4,-3,-3,4,0
1511885071266753,-1,4,-3,11,12,4,-5,2
1511885071266753,-3,0,1,-4,0,-1,-8,-6
1511885071282793,1,1,2,-3,1,-4,-3,-1
1511885071282793,0,1,4,0,2,0,-4,-1
1511885071289815,-3,-3,-5,-1,-6,0,-3,-1
1511885071289815,-3,1,0,2,-2,-1,23,0
1511885071297838,1,-4,0,3,3,0,2,1
1511885071297838,-4,2,0,-6,-7,5,5,-4
1511885071311871,-1,-4,0,9,6,0,-7,-2
1511885071311871,0,1,-2,-8,-2,-2,-8,3
1511885071321991,-2,-3,3,2,-9,1,-2,0
1511885071321991,3,-2,-1,4,14,1,0,2
1511885071359083,3,1,-1,-8,-5,-5,3,4
1511885071359083,4,2,2,-6,-7,-4,-2,2
1511885071360086,-2,0,-3,-16,-13,-4,-2,-3
1511885071360086,-2,-1,4,10,-1,6,-6,-2
1511885071364096,0,-1,-9,-12,-4,-4,1,0
1511885071364096,-1,-4,7,10,2,6,-18,0
1511885071365099,-3,-3,0,-3,1,-5,4,-1
1511885071365099,0,1,-2,-4,-7,-1,2,0
1511885071371244,-6,-4,18,4,8,1,-5,-4
1511885071371244,-1,0,-23,-5,-3,2,-2,-2
1511885071380152,0,-1,3,9,7,-1,-3,1
1511885071380152,1,1,2,-7,-2,0,10,0
1511885071386169,0,-2,7,-2,0,3,-4,1
1511885071386169,5,2,-7,4,0,-1,7,3
1511885071401209,10,1,-19,-6,1,-4,0,7
1511885071401209,0,-1,3,-2,1,-3,2,3
1511885071408401,0,2,-8,1,0,0,-1,0
1511885071408401,-4,0,8,-4,-3,-1,5,0
1511885071417252,-3,-1,-4,5,1,7,1,-2
1511885071417252,-5,-2,-2,1,1,3,-8,-4
1511885071431289,-6,-3,-12,0,-6,-2,-3,-4
1511885071431289,-4,-2,6,-1,4,2,-3,-7
1511885071448339,-5,-2,4,3,0,2,-3,-4
1511885071448339,-4,-1,4,-3,6,-1,-1,-1
1511885071449338,-2,-2,0,1,3,-2,-1,-3
1511885071449338,-3,1,4,0,-3,1,3,-3
1511885071461391,-1,0,-7,-3,0,3,-3,-4
1511885071461391,0,-2,-6,2,-3,0,8,-2
1511885071468384,1,0,-4,2,-3,1,2,-4
1511885071468384,-3,1,8,0,4,2,-3,-1
1511885071477408,-1,-5,-2,-3,-3,-4,-2,-2
1511885071477408,0,0,0,-2,-3,2,-6,-1
1511885071491449,-1,0,3,8,4,0,-1,-1
1511885071491449,-2,-1,-7,-5,-1,-3,3,0
1511885071500470,-2,0,5,-1,2,1,1,-1
1511885071500470,1,-1,-6,-2,-5,-2,-3,2
1511885071506489,1,-2,2,1,-2,2,-2,1
1511885071506489,-2,-2,-1,-3,0,-1,-1,0
1511885071521529,1,3,4,6,1,0,1,1
1511885071521529,1,1,2,-2,-1,-4,-1,2
1511885071528794,-1,2,2,-1,1,0,3,0
1511885071528794,-2,-3,-6,0,-4,-2,4,-2
1511885071537693,0,2,-4,0,-2,-5,-1,-1
1511885071537693,0,-3,0,-3,2,0,-1,-2
1511885071550856,0,0,-6,1,-3,3,-3,-2
1511885071550856,-1,-3,5,-4,2,-3,0,0
1511885071559877,0,1,4,-1,-5,1,1,-1
1511885071559877,-1,-1,1,0,-1,-3,-1,0
1511885071565898,-2,2,-4,-4,-3,0,0,0
1511885071565898,1,-4,1,-1,0,-2,-3,0
1511885071582947,-1,2,-3,0,1,4,6,-1
1511885071582947,2,-2,-3,4,0,-5,-2,1
1511885071588955,3,2,2,0,1,-2,0,-2
1511885071588955,0,-1,-6,-2,-8,3,-2,2
1511885071604124,0,-3,6,-1,-5,-4,-2,-2
1511885071604124,-2,1,-2,0,4,-1,1,-1
1511885071611149,-1,-4,2,-5,1,-1,1,-1
1511885071611149,-1,2,-2,5,1,-2,0,0
1511885071620169,1,0,-3,3,8,2,-5,2
1511885071620169,-2,2,0,-3,-2,3,-2,0
1511885071626186,-1,-4,2,-1,1,0,-5,-1
1511885071626186,-1,1,-5,-2,2,0,0,-3
1511885071642346,-1,-2,4,2,-3,2,-2,1
1511885071642346,0,-2,2,1,-5,0,1,-4
1511885071648361,-1,0,-3,-1,-2,0,-3,1
1511885071648361,4,2,1,1,-2,-4,0,-1
1511885071663401,-4,0,4,-1,2,-5,0,-2
1511885071663401,0,1,-2,2,6,2,-3,0
1511885071671425,-1,-2,2,-2,-6,1,0,-2
1511885071671425,3,-3,-1,4,5,1,-3,-1
1511885071680446,-1,0,-6,-1,-6,-2,-3,2
1511885071680446,-2,-2,-8,1,0,0,1,-2
1511885071686462,2,3,2,1,0,1,1,1
1511885071686462,-2,-4,3,-5,-5,-4,-1,0
1511885071702505,-1,0,4,-1,-1,0,0,-2
1511885071702505,-2,1,-4,-3,-3,-2,-1,1
1511885071708521,1,0,-3,0,-3,1,3,1
1511885071708521,0,-1,-1,6,8,5,0,-1
1511885071723685,-3,-1,-4,-2,-4,-1,-4,-1
1511885071723685,2,0,0,0,4,-2,0,-2
1511885071731586,1,0,2,-2,0,-1,-2,1
1511885071731586,-2,0,-4,-9,-4,-3,-2,-4
1511885071740680,-1,-1,3,5,2,0,1,-1
1511885071740680,-1,-4,-1,3,0,-4,-2,1
1511885071746623,-2,-2,-2,-1,0,-4,1,-2
1511885071746623,0,2,0,-2,-1,-3,-1,-1
1511885071760659,0,-3,-1,-15,4,-1,-1,1
1511885071760659,0,1,1,1,-5,-1,-1,-2
1511885071768684,-1,0,1,10,-3,-2,-1,-1
1511885071768684,-2,-3,-4,-9,0,-1,0,-1
1511885071783721,1,-1,-1,8,5,3,1,-2
1511885071783721,0,-1,-4,9,2,2,-3,0
1511885071790743,1,-3,-5,-5,1,-2,1,3
1511885071790743,0,4,1,6,-2,1,-1,-1
1511885071799769,-1,-3,-1,-8,-4,0,-2,-3
1511885071799769,0,-2,-2,-9,0,-2,-2,-2
1511885071805804,1,3,1,12,-3,0,-1,0
1511885071805804,1,-2,-3,8,-1,-6,0,2
1511885071820851,0,-2,2,1,0,1,1,0
1511885071820851,0,-2,0,-3,-3,0,1,1
1511885071828951,0,1,-4,-4,1,-3,-2,-2
1511885071828951,0,1,1,-6,-1,0,-1,0
1511885071843884,-1,-3,-4,1,-3,1,-2,-4
1511885071843884,0,-2,-1,-1,-2,-2,0,-1
1511885071850902,-2,0,-5,2,3,4,0,-4
1511885071850902,-3,-4,1,-3,0,3,-1,-2
1511885071859923,2,0,-1,6,-3,-2,2,0
1511885071859923,-3,2,2,-6,-1,-2,-3,-5
1511885071873964,-4,-2,-2,-4,0,-3,-5,-1
1511885071873964,-1,1,1,6,0,-2,2,-2
1511885071880992,1,0,-2,-6,-1,1,-5,1
1511885071880992,0,-1,0,-1,-3,-3,-2,0
1511885071889004,0,-1,3,5,-3,-4,4,1
1511885071889004,0,5,-2,-5,-1,1,0,0
1511885071903164,-2,-2,-2,0,-1,-5,-2,1
1511885071903164,-2,-1,2,-3,0,3,0,-2
1511885071911186,-1,-3,3,-2,5,2,-6,-1
1511885071911186,0,0,-5,-1,-3,-4,0,-1
1511885071920206,0,1,-1,-1,-1,1,0,-1
1511885071920206,-2,-1,0,2,4,0,-1,2
1511885071934247,0,1,-1,-4,-6,-4,1,1
1511885071934247,-2,-3,-4,2,-2,3,-1,-1
1511885071941589,-1,2,2,3,6,-3,3,-3
1511885071941589,0,1,-1,-4,-6,1,-2,0
1511885071948424,-2,-4,1,0,-6,-2,0,-3
1511885071948424,1,-1,0,1,-1,-4,2,3
1511885071963467,0,-1,0,0,0,-3,-2,-1
1511885071963467,-2,0,1,-1,-3,2,2,0
1511885071971673,0,-1,-7,-7,-3,-2,-2,-2
1511885071971673,3,-3,4,0,-1,0,-4,0
1511885071980509,-3,-2,-1,-2,-1,3,-4,-1
1511885071980509,4,0,3,8,1,1,-1,0
1511885071994661,0,0,5,-2,0,-1,0,-2
1511885071994661,-1,-2,-1,1,2,-2,1,-1
1511885072000785,1,2,-1,-1,1,-2,-3,-1
1511885072000785,-1,-1,1,0,0,-4,-1,-3
1511885072008809,0,1,-2,-1,2,3,1,1
1511885072008809,-3,-2,2,-1,1,3,-5,-1
1511885072023847,1,1,0,-1,-3,-1,1,0
1511885072023847,0,-1,2,-3,0,-2,0,-1
1511885072030863,-2,2,-5,7,13,-1,-1,-1
1511885072030863,-2,2,-1,-2,0,0,0,-2
1511885072039890,2,-4,-6,-2,-2,1,2,-1
1511885072039890,-2,-3,0,-1,1,0,-2,-3
1511885072053966,1,0,0,-3,-2,-4,-2,0
1511885072053966,-1,0,-4,2,-3,0,1,-1
1511885072062947,-3,1,-1,1,0,-1,-2,0
1511885072062947,-1,-4,-7,0,3,0,-2,1
1511885072068963,0,0,-1,0,2,4,2,-1
1511885072068963,-1,-1,0,-2,-3,-2,-2,0
1511885072084003,0,3,2,-1,-3,-2,1,-1
1511885072084003,-5,-1,-3,-2,-8,-2,0,0
1511885072091026,0,0,-4,-2,2,2,-2,-2
1511885072091026,0,-1,2,2,4,-3,0,-1
1511885072100050,1,-2,1,0,-2,1,-1,-2
1511885072100050,0,1,3,-3,0,0,1,-1
1511885072114123,-2,2,1,-1,-6,0,3,0
1511885072114123,-4,0,-3,-4,1,0,-2,-5
1511885072121145,-4,-2,0,2,-2,2,1,-2
1511885072121145,-1,-1,-6,1,-2,2,-2,0
1511885072129135,2,-7,-4,0,-1,0,-2,-1
1511885072129135,0,-1,0,-1,4,1,-2,-3
1511885072144190,-1,-3,1,-1,-6,-4,-1,0
1511885072144190,0,0,0,-1,3,1,2,-1
1511885072151185,-2,1,3,3,1,-4,-2,-1
1511885072151185,-1,-4,-4,-1,-2,3,3,2
1511885072160346,1,-2,-1,-1,-1,0,0,0
1511885072160346,0,-1,2,4,7,2,-1,-2
1511885072174570,-1,-3,-3,-3,-4,1,-3,0
1511885072174570,-1,1,-1,3,1,-2,-2,-1
1511885072181620,-1,-1,-5,-4,-3,0,-2,0
1511885072181620,0,2,1,2,2,-3,-2,-1
1511885072188637,0,3,1,0,0,0,-1,-2
1511885072188637,0,0,1,-4,-3,0,0,-1
1511885072203677,0,0,2,-3,2,0,0,-2
1511885072203677,-1,-2,0,-2,-2,2,-1,-2
1511885072211741,-2,0,-4,-2,0,-1,-1,-2
1511885072211741,-1,-2,0,-2,-4,-3,-2,-1
1511885072220759,0,1,-1,1,1,0,-1,-1
1511885072220759,0,-3,0,0,-2,-2,0,2
1511885072234760,2,-2,-4,-3,0,-1,-3,0
1511885072234760,-2,2,2,0,1,2,0,-2
1511885072241107,-1,-1,0,1,1,0,-2,0
1511885072241107,-1,-1,-1,2,3,-1,2,-2
1511885072249018,-1,-1,-2,1,0,0,0,-1
1511885072249018,0,1,7,-2,-1,0,0,0
1511885072264098,-2,1,-4,0,-2,1,-1,-1
1511885072264098,-1,0,-3,0,0,2,-1,-3
1511885072271084,-1,-1,3,-1,-3,0,-3,0
1511885072271084,-4,-2,2,0,2,-1,2,0
1511885072280102,0,-1,-1,-1,0,3,1,-1
1511885072280102,1,-1,-2,-3,-4,-4,1,0
1511885072294140,-2,0,2,3,2,3,1,-3
1511885072294140,-1,-2,-7,0,3,0,-3,0
1511885072301158,-1,-3,0,-1,-2,-1,-2,-1
1511885072301158,0,0,-2,0,-1,0,-1,-1
1511885072308178,1,-3,-1,-4,-5,-1,2,-1
1511885072308178,0,0,-4,-2,-1,4,0,-1
1511885072323339,2,0,1,1,-1,-3,0,-2
1511885072323339,1,0,-1,-4,1,-2,-2,1
1511885072331363,0,2,4,0,-3,-3,-2,2
1511885072331363,3,-3,-3,-1,-1,-1,-2,-1
1511885072346392,-3,2,0,-2,-1,0,0,0
1511885072346392,0,-1,3,-2,-4,2,1,3
1511885072353301,1,-3,-5,-2,-7,-3,-1,-1
1511885072353301,0,2,1,5,1,-1,1,1
1511885072369566,0,-2,1,-1,-4,1,2,-2
1511885072369566,2,-1,-8,-1,-4,1,-3,-1
1511885072370565,-1,-1,2,2,12,1,2,-2
1511885072370565,2,0,-2,-6,-6,-1,-3,-1
1511885072383741,-1,-1,2,-3,3,-2,0,-1
1511885072383741,-5,1,-3,-2,-3,-2,-1,-2
1511885072391809,-3,-5,-1,-3,0,1,0,1
1511885072391809,1,-1,1,3,-2,-3,0,0
1511885072406046,-1,-1,2,4,0,-3,-1,0
1511885072406046,-3,-1,1,-1,5,-2,1,1
1511885072413459,1,0,-2,-2,-1,-4,1,-1
1511885072413459,0,-3,0,4,7,2,-1,-1
1511885072429375,-1,-1,2,-5,-6,-3,-2,1
1511885072429375,-1,-3,-3,7,4,0,0,-3
1511885072430378,-2,0,-2,-3,-6,-2,-1,0
1511885072430378,-2,-1,2,-2,-2,-2,0,0
1511885072443595,-2,-3,-5,-2,3,0,-2,1
1511885072443595,0,1,2,4,0,1,-1,0
1511885072451434,1,0,0,2,5,4,0,-2
1511885072451434,-1,-2,-6,-2,-6,-2,-2,0
1511885072466474,0,2,-4,-1,2,-3,-1,-1
1511885072466474,-1,-2,-1,-3,-5,1,0,-1
1511885072473492,-2,0,-2,-2,0,-3,1,-2
1511885072473492,-2,1,-3,-1,-1,0,-3,-2
1511885072489535,2,-1,-3,0,-3,-1,-1,1
1511885072489535,-4,0,-3,2,5,-2,1,0
1511885072490539,-1,2,1,-2,0,-2,0,0
1511885072490539,1,0,-1,-3,-1,0,-3,-1
1511885072503662,-1,-3,-2,1,6,0,0,-2
1511885072503662,-2,-1,1,-1,-4,0,-2,-1
1511885072511615,-1,-3,-5,6,5,-1,0,1
1511885072511615,-1,0,1,-3,0,-2,-1,0
1511885072526666,2,-4,0,-2,-2,0,-2,0
1511885072526666,0,0,2,-2,-1,1,0,0
1511885072533652,1,0,2,-3,-2,-3,0,0
1511885072533652,0,-2,-3,0,-2,0,1,2
1511885072549695,0,0,-5,2,-2,1,-2,-1
1511885072549695,-1,-2,3,-3,-4,-4,-2,-2
1511885072549695,0,1,2,-1,-1,0,0,-2
1511885072549695,-1,0,2,-3,-3,-4,2,-3
1511885072563769,0,-4,-2,3,-2,1,0,1
1511885072563769,-2,0,-2,-4,-1,-5,-2,-2
1511885072571753,-2,-2,-3,-2,-2,1,-2,0
1511885072571753,1,-1,1,2,4,-1,0,-3
1511885072585789,-2,2,2,-1,-4,1,-2,0
1511885072585789,-2,-1,-3,1,5,1,-2,-2
1511885072593810,-3,0,-2,0,-1,0,-2,-1
1511885072593810,1,-1,0,-3,-1,1,0,0
1511885072608849,-4,2,2,3,0,-1,1,0
1511885072608849,5,0,3,-1,-3,1,-1,-2
1511885072609852,2,0,-2,2,0,-1,-2,0
1511885072609852,-1,1,2,2,3,1,0,1
1511885072623889,-2,0,0,-2,2,2,0,-3
1511885072623889,-1,3,-4,-3,-2,1,-2,0
1511885072630908,1,-1,-1,0,0,-1,-2,-3
1511885072630908,-1,-3,0,1,-2,-3,0,-3
1511885072646086,-3,1,3,-2,-1,-3,2,-1
1511885072646086,-2,-4,-5,2,7,1,0,-3
1511885072654111,-3,2,-1,-2,-3,-1,1,2
1511885072654111,-2,0,-3,1,-2,0,-2,-1
1511885072669205,0,-1,-1,1,-1,-1,-2,-1
1511885072669205,3,2,2,0,0,1,-2,-2
1511885072670196,-1,-2,3,-2,-2,-2,-1,-1
1511885072670196,1,-3,-2,-1,-1,1,-1,1
1511885072684191,0,0,1,-1,1,0,2,1
1511885072684191,-3,0,1,-1,-4,2,-1,0
1511885072691332,0,-2,-1,-1,-2,0,-1,0
1511885072691332,0,0,-1,-2,-5,-3,-2,-3
1511885072706249,1,-5,-7,3,0,0,-2,0
1511885072706249,0,2,0,-3,-2,-1,-1,1
1511885072713483,0,0,3,1,-2,-2,0,-1
1511885072713483,-4,2,-4,0,-4,1,0,-2
1511885072729520,-2,-2,0,-1,7,1,-2,-2
1511885072729520,-1,-4,3,-2,-4,-3,1,-1
1511885072730438,0,-3,-2,1,2,0,-1,0
1511885072730438,-3,-2,-4,-4,-3,-2,0,2
1511885072743582,0,3,1,2,-1,-2,-1,-2
1511885072743582,-1,-1,-6,-1,-2,-7,-1,1
1511885072751572,-1,-1,0,-5,-1,2,-3,-1
1511885072751572,-1,2,1,0,5,2,1,1
1511885072765698,-2,0,1,-4,-5,-2,0,-2
1511885072765698,1,-1,-3,-1,-1,2,2,-1
1511885072773740,-1,0,0,2,1,-4,-1,3
1511885072773740,1,1,-2,-1,-3,-2,0,-2
1511885072789737,-1,1,-3,-1,0,3,1,-1
1511885072789737,1,-4,-1,0,-5,-1,-2,2
1511885072789737,-3,1,-2,-1,0,-1,1,-2
1511885072789737,0,-1,0,-1,0,2,0,1
1511885072803776,0,2,-2,-2,1,0,-5,-3
1511885072803776,1,1,0,-11,2,-1,0,-2
1511885072810835,-2,1,0,13,-1,1,1,-1
1511885072810835,-1,-1,1,4,-5,-1,-1,0
1511885072825969,1,-2,1,-8,-7,-1,0,0
1511885072825969,-3,2,-4,2,-7,0,-1,-2
1511885072833965,-3,-2,0,-5,5,1,0,-3
1511885072833965,-1,-1,-2,4,0,-2,0,-4
1511885072849056,3,-3,-4,-5,-2,-2,-1,0
1511885072849056,-2,1,4,7,1,1,1,1
1511885072850047,1,0,2,22,1,1,0,-2
1511885072850047,-2,4,5,9,1,0,-1,1
1511885072863368,-2,-2,0,-14,-1,0,-1,0
1511885072863368,-2,-4,-9,2,7,-1,1,-1
1511885072871269,-2,1,4,-10,-4,2,0,0
1511885072871269,3,-5,-1,-1,3,-3,-1,-1
1511885072886309,-1,4,3,0,-2,0,1,2
1511885072886309,-1,-2,-8,-3,3,1,1,-3
1511885072893494,1,4,6,-1,-4,-3,1,2
1511885072893494,-1,-1,-4,-20,-1,0,0,0
1511885072908536,-2,-2,1,10,3,-2,-2,0
1511885072908536,1,1,2,11,0,0,-2,0
1511885072916764,2,-4,-10,-5,0,2,-1,0
1511885072916764,0,-3,-11,-8,-3,1,0,-3
1511885072923783,-3,-2,2,7,4,1,0,-2
1511885072923783,-3,0,2,7,-4,0,-3,-1
1511885072930911,-1,3,2,-9,-3,-1,-2,-3
1511885072930911,1,-1,1,3,0,0,0,1
1511885072945841,-1,-2,-3,-8,-5,-2,-1,0
1511885072945841,-3,-3,-2,-3,0,1,-1,-1
1511885072954047,-1,1,3,8,-2,-2,-3,-2
1511885072954047,0,0,6,43,-4,-2,0,-1
1511885072968902,-2,3,-7,-21,2,-3,2,0
1511885072968902,0,-1,4,-5,-2,1,1,0
1511885072976925,-2,1,0,-10,0,-1,0,0
1511885072976925,-1,3,4,19,-1,1,-2,-2
1511885072991963,-1,-3,-26,-15,-5,0,0,1
1511885072991963,2,1,8,8,-5,-5,-3,-1
1511885072992964,-3,-3,0,-21,0,1,1,0
1511885072992964,-1,1,-6,12,6,-1,-3,-2
1511885073006167,-1,-1,6,13,-2,3,0,-2
1511885073006167,1,1,0,-28,-3,-1,-4,-2
1511885073014020,-7,-5,-12,4,-2,-2,0,-2
1511885073014020,-1,0,1,-24,-1,3,-1,-2
1511885073029059,1,-4,-1,17,3,-2,1,1
1511885073029059,5,1,-5,0,-1,2,-2,-5
1511885073037344,0,2,-2,-6,1,0,-1,-1
1511885073037344,-3,-1,0,6,-4,-3,-1,-2
1511885073051423,0,-4,-1,11,1,2,-2,0
1511885073051423,3,-2,4,17,0,2,-2,2
1511885073052422,0,2,-6,0,-4,-3,1,0
1511885073052422,4,-1,-3,-3,3,0,-1,3
1511885073065940,-11,-2,-3,-8,0,0,-1,-3
1511885073065940,-5,-1,-3,2,-1,-1,0,2
1511885073073785,1,-3,5,6,-1,-3,-2,1
1511885073073785,-2,0,6,1,4,3,-2,1
1511885073088948,5,-4,18,2,-1,-1,-1,-2
1511885073088948,-2,2,-4,-15,0,-2,-3,-5
1511885073096947,-8,4,4,8,-2,5,0,2
1511885073096947,-5,-4,-2,-5,3,0,-4,-1
1511885073111886,6,1,5,1,-2,-1,8,1
1511885073111886,-9,0,-7,-8,1,0,0,-1
1511885073112889,2,-7,-3,3,-1,-5,1,-2
1511885073112889,-1,5,2,-14,-3,-2,-2,-7
1511885073125931,0,-1,1,-2,-1,-3,-5,6
1511885073125931,2,-7,-6,0,2,-1,0,-2
1511885073133991,4,4,6,2,1,0,-6,-4
1511885073133991,-4,-3,-8,-4,0,2,5,0
1511885073148982,10,2,-9,2,-1,-3,-4,0
1511885073148982,1,-2,-4,17,2,4,4,3
1511885073157084,-6,-5,2,-17,-3,1,-2,-2
1511885073157084,-8,1,9,-7,-2,-1,0,2
1511885073172170,-3,0,-1,14,3,-1,-4,-8
1511885073172170,1,-6,0,-11,-2,-2,0,1
1511885073173129,4,-3,-13,-2,3,-1,0,-1
1511885073173129,1,3,5,-5,-1,-3,-2,2
1511885073186083,-4,-2,4,6,0,-1,-8,-3
1511885073186083,3,3,1,-1,-1,0,1,-2
1511885073194194,-7,-3,1,2,1,3,0,3
1511885073194194,4,-2,-1,-3,-3,-1,0,-3
1511885073208355,0,-1,-8,-4,-2,-3,-4,1
1511885073208355,-5,4,25,-1,-3,1,1,-4
1511885073217358,2,-8,-27,-2,-2,-2,-1,-2
1511885073217358,-2,1,10,3,0,-2,-1,-1
1511885073231291,-9,-4,1,0,1,-1,4,-1
1511885073231291,6,1,-2,-1,1,1,-1,4
1511885073232302,1,-1,5,5,-3,-4,4,-1
1511885073232302,-4,3,-11,-9,-2,0,3,-2
1511885073246544,-1,-7,1,0,-1,3,-2,3
1511885073246544,-2,-3,-8,1,-1,-4,-1,0
1511885073253466,3,0,-4,0,-5,-1,-5,-3
1511885073253466,5,-3,-1,-1,-1,1,0,2
1511885073268421,-1,2,1,-2,-2,3,7,-5
1511885073268421,-5,2,0,-2,0,-5,-15,-3
1511885073277476,3,-2,11,2,3,3,30,-1
1511885073277476,-3,-2,-4,-3,2,-3,-3,-1
1511885073291507,2,5,11,2,0,3,0,3
1511885073291507,-1,0,-2,0,-1,-2,-22,-2
1511885073292483,-3,-3,1,0,3,0,-5,3
1511885073292483,3,-7,-18,1,-1,-4,-6,2
1511885073306519,-4,-2,-4,-7,3,3,4,-4
1511885073306519,0,-4,-14,-3,0,-3,4,2
1511885073313538,2,5,5,3,4,1,-9,-1
1511885073313538,1,-5,-3,0,-2,-2,2,2
1511885073328578,-1,5,-9,-2,-3,-5,-13,-1
1511885073328578,-5,-4,7,1,-1,3,-5,-2
1511885073336599,3,3,-1,-4,1,2,20,-2
1511885073336599,0,3,1,-2,-6,-7,1,1
1511885073351666,-3,-3,-3,6,6,-1,2,-1
1511885073351666,-3,4,5,-4,-1,1,3,0
1511885073352643,0,1,-1,4,-5,-4,-5,-2
1511885073352643,-2,-2,-1,-2,-5,1,-3,1
1511885073365678,1,-2,-1,0,-8,5,23,1
1511885073365678,0,0,-3,-2,0,4,28,-3
1511885073373698,-1,-3,-3,-15,1,-1,-20,0
1511885073373698,1,2,4,26,-1,0,13,-1
1511885073388867,1,-4,-5,-12,6,-3,-3,1
1511885073388867,0,-1,1,1,-5,-5,0,0
1511885073396763,-4,5,0,-2,-2,-2,-4,0
1511885073396763,2,0,4,-9,2,3,-16,-2
1511885073411804,0,2,6,0,1,-3,-4,-3
1511885073411804,-1,-1,-1,2,1,1,-1,-1
1511885073412804,2,1,1,1,3,-2,-6,1
1511885073412804,-2,-2,-4,-1,-4,-1,-22,0
1511885073425838,-2,-2,-1,-8,-4,3,-14,-3
1511885073425838,4,3,-2,0,10,-2,-20,3
1511885073433862,-4,-4,4,17,-11,0,-11,-1
1511885073433862,2,-2,-5,-14,1,2,14,-2
1511885073448901,-1,1,3,17,4,-3,0,-3
1511885073448901,-2,-3,8,-7,-1,1,-2,-1
1511885073456924,1,-1,-22,-1,4,4,1,1
1511885073456924,1,0,-2,-6,-6,-2,-16,-2
1511885073471963,0,1,6,-4,-6,2,-2,-1
1511885073471963,-3,2,5,-3,5,-1,7,0
1511885073473082,0,-4,-7,3,4,-1,-1,-1
1511885073473082,-3,0,6,-7,-3,-2,10,-3
1511885073485997,4,2,-12,-6,-7,-3,-1,3
1511885073485997,1,2,-2,9,-7,1,5,-3
1511885073494023,-1,-6,3,9,-3,0,-2,-2
1511885073494023,-4,-6,-4,13,0,2,3,-2
1511885073508311,2,-2,6,-11,-1,0,-6,-1
1511885073508311,0,2,-19,-11,1,-2,-9,1
1511885073517222,0,-1,6,1,1,-3,6,0
1511885073517222,0,4,-9,2,-4,-3,4,-1
1511885073532261,-2,1,8,9,5,-5,0,-1
1511885073532261,-3,-3,-8,-2,-4,-5,-1,0
1511885073532261,4,1,3,-7,2,1,-8,0
1511885073532261,-3,-4,-15,-6,-3,-1,1,2
1511885073546530,-1,-1,-2,0,-2,-1,-2,-1
1511885073546530,0,-2,2,19,10,-2,-1,-2
1511885073553527,-3,0,-12,-8,-2,3,3,-2
1511885073553527,4,1,13,-9,3,1,-5,2
1511885073568655,-4,1,-5,-5,-5,2,2,-1
1511885073568655,0,-5,2,8,-4,0,5,-3
1511885073576677,2,-1,1,5,-3,-3,-4,0
1511885073576677,-1,-1,2,-14,-1,0,2,-2
1511885073591712,-2,-2,-2,3,4,3,-4,0
1511885073591712,1,0,0,-2,-3,-1,1,1
1511885073592715,-2,2,2,-2,2,-2,1,0
1511885073592715,-5,0,-1,-5,-2,3,19,-6
1511885073605750,2,6,1,6,0,-2,-2,0
1511885073605750,-1,-5,1,0,-5,1,-3,-1
1511885073613771,2,0,6,-9,-7,-4,4,3
1511885073613771,-3,-3,6,9,3,1,-6,-4
1511885073628812,5,2,-3,-2,1,-1,0,1
1511885073628812,-1,3,3,-3,1,1,2,-1
1511885073636833,-3,0,14,-1,-1,1,-11,0
1511885073636833,-1,1,1,6,3,-2,-2,0
1511885073651876,-1,-2,1,0,0,-1,4,1
1511885073651876,1,2,8,-5,-4,-3,-3,-2
1511885073652879,-2,-1,1,0,0,-1,-1,-2
1511885073652879,-8,-5,-3,4,1,3,31,-1
1511885073666055,1,-6,0,-5,-5,-2,-9,0
1511885073666055,-2,-6,-5,0,1,-1,-2,0
1511885073674226,-3,3,6,-2,-4,2,4,1
1511885073674226,4,4,-4,-1,1,4,-8,0
1511885073688526,-1,2,-7,-4,-3,0,-1,-1
1511885073688526,-2,-3,2,2,-2,0,9,-1
1511885073696368,2,-3,-13,-2,-3,-2,0,-2
1511885073696368,1,-7,-13,2,1,-1,-12,1
1511885073711615,-4,3,-3,-6,-3,-2,1,-3
1511885073711615,-2,-2,9,3,-2,-1,-7,-3
1511885073712412,1,-2,-24,-3,1,0,-3,-4
1511885073712412,-2,3,14,0,-2,-6,-9,3
1511885073726448,-3,-7,-8,1,0,3,3,-3
1511885073726448,-3,2,1,-6,0,0,4,1
1511885073733470,-5,2,1,-3,-2,-3,-6,0
1511885073733470,2,-2,-3,-2,1,0,-2,-3
1511885073748510,1,-2,8,2,1,-2,-25,0
1511885073748510,1,1,-8,-4,-4,-4,-7,2
1511885073756733,2,0,12,4,0,-1,-1,-3
1511885073756733,-1,-1,-5,-1,1,2,-9,-2
1511885073771571,-2,6,-3,1,1,0,2,-2
1511885073771571,2,-1,11,0,-2,3,2,0
1511885073772571,0,1,-8,-3,-1,-1,0,-3
1511885073772571,-1,-2,2,1,1,1,-10,2
1511885073786612,-1,-2,-1,0,-2,-1,6,-3
1511885073786612,-1,-2,-2,1,0,1,0,0
1511885073793630,-1,2,10,0,0,-3,3,-1
1511885073793630,1,-4,10,0,-2,-1,-2,-2
1511885073808671,-4,-2,-2,1,-1,-2,3,2
1511885073808671,0,-3,-5,0,-2,0,-2,0
1511885073816746,-3,1,1,-2,3,0,-3,2
1511885073816746,-2,-1,-5,-1,1,-1,1,0
1511885073830779,1,-3,8,3,0,1,-15,-1
1511885073830779,4,1,-3,-3,-4,-4,-4,0
1511885073839804,-1,-3,-9,-1,-4,-2,5,-3
1511885073839804,-2,3,5,2,2,0,0,0
1511885073846015,-1,-2,-1,-2,-2,-2,1,-2
1511885073846015,-3,-1,-8,-2,-1,0,3,-2
1511885073853843,3,-2,-1,2,-3,3,0,0
1511885073853843,1,1,2,-1,0,-4,0,1
1511885073868882,1,0,-6,-3,-5,-2,-15,0
1511885073868882,1,0,-3,2,2,1,1,0
1511885073876904,2,0,11,4,11,1,0,0
1511885073876904,3,-4,-9,-3,-8,-1,1,-2
1511885073890942,2,0,6,-3,0,0,10,0
1511885073890942,-4,1,1,2,8,3,1,0
1511885073899469,0,-4,-4,-1,-3,-4,-4,1
1511885073899469,0,2,2,-2,-1,-1,-1,2
1511885073914578,0,-4,-3,1,0,-2,7,2
1511885073914578,-1,-1,-4,0,-4,-4,-3,-2
1511885073915582,-2,-2,-4,-2,0,5,-6,-1
1511885073915582,-1,1,8,-2,0,1,11,-1
1511885073928740,1,-1,1,2,-1,-4,9,0
1511885073928740,-2,-2,2,0,3,-2,-1,2
1511885073936763,0,-1,2,1,-5,-2,-11,2
1511885073936763,-1,1,-3,-3,-5,0,-4,1
1511885073950800,-1,1,-1,3,4,0,-11,-1
1511885073950800,0,-3,0,1,3,-3,-3,-2
1511885073959892,-2,-4,1,-7,-8,0,16,0
1511885073959892,-3,0,1,6,8,-1,0,-2
1511885073973970,1,0,-2,-1,-2,-2,7,-2
1511885073973970,-2,1,4,3,1,4,0,0
1511885073974861,2,-1,0,0,-2,-2,3,-1
1511885073974861,-1,1,0,-1,-4,1,-7,-1
1511885073989044,-4,-2,-3,0,5,5,-1,-1
1511885073989044,0,-2,0,-2,-3,0,2,0
1511885073997110,-3,7,13,6,5,3,-20,-2
1511885073997110,6,-8,-45,-2,-4,-5,-5,2
1511885074011410,-1,3,11,-1,-5,-2,3,-2
1511885074011410,3,-1,-3,-6,-4,2,2,0
1511885074019257,-5,-2,-4,1,22,0,11,0
1511885074019257,-2,0,3,-13,-4,5,-1,-2
1511885074034297,2,1,-3,12,8,-1,4,2
1511885074034297,-2,-2,-1,0,-11,0,-5,-2
1511885074035297,2,-5,-2,-5,-10,0,-1,-3
1511885074035297,-1,5,18,9,0,-3,0,0
1511885074048335,-1,-4,-26,-6,-5,0,3,0
1511885074048335,-4,-2,7,6,2,2,4,-4
1511885074056353,-6,-3,-4,-3,-2,-3,1,-5
1511885074056353,0,-4,-12,0,-4,-1,-3,-2
1511885074071396,-3,-4,1,-6,-3,1,20,2
1511885074071396,3,3,-2,-3,-2,0,-3,1
1511885074079738,-2,0,0,-6,-7,-6,9,0
1511885074079738,1,3,9,-3,5,-4,-9,-2
1511885074094582,0,1,-3,4,3,5,-5,-3
1511885074094582,3,-6,-1,-3,-5,-4,-1,0
1511885074095587,0,-2,2,0,3,-1,3,1
1511885074095587,-1,5,7,2,1,2,4,0
1511885074108616,3,-4,-2,2,-2,-2,-1,3
1511885074108616,0,5,3,-5,-4,-5,2,0
1511885074123884,3,2,5,1,0,0,-23,4
1511885074123884,0,1,-5,-2,3,-4,6,3
1511885074130899,0,-1,3,-1,-3,0,-4,-1
1511885074130899,1,-3,-12,-2,-2,-1,6,-2
1511885074139925,-2,6,23,4,0,0,-4,-2
1511885074139925,-1,-5,-27,1,-1,0,-1,-3
1511885074153964,-8,-3,6,0,-1,2,-2,-2
1511885074153964,-5,-1,5,0,1,1,-3,-1
1511885074154963,-2,-3,-7,1,-3,-1,6,-4
1511885074154963,-4,-3,0,4,1,5,4,-4
1511885074169143,-2,-1,4,-2,-3,0,-5,-7
1511885074169143,-3,0,-2,-1,1,2,-4,-2
1511885074177175,-2,-2,-2,-2,-6,1,3,-2
1511885074177175,-1,1,6,-6,-5,-4,-7,-2
1511885074191404,-1,-1,0,3,-1,-1,-7,0
1511885074191404,-1,0,-4,2,-1,3,-1,3
1511885074199226,-1,2,-13,-4,-3,-3,1,2
1511885074199226,-1,-5,3,4,9,1,4,-1
1511885074214264,2,3,-3,-6,-6,-1,1,-2
1511885074214264,1,2,0,3,7,-2,-3,-2
1511885074215265,1,-1,3,2,-6,-5,22,-1
1511885074215265,2,1,8,-5,1,-1,-2,2
1511885074228371,0,-2,-1,0,1,-2,-3,1
1511885074228371,0,-3,-3,-5,1,-4,-5,-3
1511885074236513,3,-4,-7,0,0,-1,-4,0
1511885074236513,-1,2,8,-3,-2,-2,1,-1
1511885074251431,-1,1,-1,-4,0,5,13,-2
1511885074251431,-3,-2,-6,0,-8,0,1,-3
1511885074259452,1,1,-4,-2,0,-3,-4,0
1511885074259452,1,-1,2,4,-1,0,-16,-1
1511885074274672,1,0,6,1,1,-2,-12,-3
1511885074274672,-3,-4,1,2,-2,2,-2,0
1511885074275493,-2,-2,-3,-5,-3,-2,1,-2
1511885074275493,0,-1,1,0,-2,-1,-3,1
1511885074288531,-5,1,4,-2,-1,-2,-1,0
1511885074288531,-1,-5,-14,1,1,1,0,-2
1511885074295712,3,-4,6,-1,1,0,-6,2
1511885074295712,-4,0,0,5,-2,1,6,-2
1511885074311746,1,1,-6,-3,1,1,-3,-2
1511885074311746,0,3,6,-2,-1,-2,3,-2
1511885074318995,2,2,-8,0,1,3,-3,-3
1511885074318995,1,-5,6,1,-5,-5,2,-1
1511885074334134,2,-3,-5,-3,-4,3,2,3
1511885074334134,0,2,-5,0,11,3,-2,0
1511885074335011,-3,0,-6,-2,-4,0,-1,-2
1511885074335011,-3,0,3,-1,2,3,2,-1
1511885074348173,-3,-2,-3,-1,-1,-1,-1,0
1511885074348173,2,1,4,1,-9,-3,-19,-1
1511885074356069,2,-2,-5,5,6,1,-5,1
1511885074356069,1,-2,-7,-4,-1,0,3,-3
1511885074371160,-1,0,3,1,-3,-2,-3,-2
1511885074371160,-1,-2,-3,-5,-3,-1,4,0
1511885074379135,-3,0,0,1,3,0,0,1
1511885074379135,-2,2,1,0,1,2,-1,2
1511885074394294,0,0,-2,1,2,-6,-4,-2
1511885074394294,1,2,1,-4,2,0,8,-2
1511885074395170,0,0,0,-2,-1,1,-3,-2
1511885074395170,0,-1,-2,-6,-7,1,3,-1
1511885074408437,-1,-1,-3,0,1,-7,2,-1
1511885074408437,2,-3,-6,4,-2,-4,6,3
1511885074417287,-3,-1,2,0,-2,3,3,-2
1511885074417287,-2,3,-1,-2,0,1,-3,-2
1511885074431321,-2,-2,0,-6,-5,-1,-1,-1
1511885074431321,-2,3,-1,7,3,4,-1,-3
1511885074439650,0,-1,0,-3,-5,-2,-5,1
1511885074439650,1,-4,-3,-1,-3,0,2,0
1511885074453754,1,2,2,0,1,0,-1,2
1511885074453754,-4,-2,0,-3,1,-2,0,0
1511885074455756,0,1,-3,-2,-1,1,-2,-4
1511885074455756,-2,0,-3,4,3,1,0,0
1511885074469095,1,0,0,0,-5,-2,2,-1
1511885074469095,-1,-2,1,-3,-2,-2,-3,0
1511885074475949,1,-2,-5,-1,1,-2,-1,0
1511885074475949,0,1,-1,0,-1,-2,1,-1
1511885074490991,-2,0,3,3,4,5,2,1
1511885074490991,3,0,2,-5,-8,-5,0,-2
1511885074499010,-5,-1,2,6,11,2,2,-2
1511885074499010,-3,-1,-2,-7,-4,0,7,-2
1511885074514066,-1,1,0,11,12,2,3,0
1511885074514066,-1,-1,-7,-5,-4,-2,-3,1
1511885074515052,-3,-1,0,-2,3,-1,1,-2
1511885074515052,3,-1,-1,-1,-2,-3,-6,0
1511885074528518,2,2,0,-5,-3,-1,-5,-2
1511885074528518,-2,0,0,4,6,-2,-2,-3
1511885074536578,-3,-1,-2,1,-4,3,23,0
1511885074536578,-2,-2,-1,2,-1,-4,-2,-1
1511885074551639,0,1,-4,-8,-8,-5,1,-1
1511885074551639,-1,2,2,3,3,-2,7,0
1511885074559641,-2,0,-5,-2,-6,-1,-9,1
1511885074559641,1,-2,8,-3,-1,-2,-2,-1
1511885074574680,-2,1,0,1,-1,5,3,1
1511885074574680,-2,2,6,2,3,-1,-3,-3
1511885074574680,3,-1,-4,-1,-3,-4,-6,0
1511885074574680,-6,0,8,0,-1,2,9,0
1511885074588716,-2,-5,-4,-5,-3,-5,-13,-2
1511885074588716,1,-2,-1,2,-1,4,6,4
1511885074596773,-3,-2,-3,0,-2,0,-1,0
1511885074596773,1,3,-3,6,6,-2,-8,-3
1511885074610776,3,-5,1,-3,1,1,2,-2
1511885074610776,0,1,-7,0,-4,1,-1,0
1511885074619797,-2,1,11,-1,-2,0,-2,-2
1511885074619797,-2,1,-12,-5,-1,1,2,0
1511885074634876,-1,0,-4,2,4,-2,1,1
1511885074634876,0,1,0,-3,-4,-2,2,0
1511885074634876,3,0,2,0,1,5,-5,-1
1511885074634876,-1,-2,-1,-1,1,-4,-2,0
1511885074648876,0,0,-3,1,1,1,2,-2
1511885074648876,0,-2,5,-5,0,0,-8,-1
1511885074656894,-1,-1,-2,-1,-2,-5,-3,-1
1511885074656894,1,0,-4,2,2,-1,0,1
1511885074670934,-1,-1,-1,3,-3,0,2,0
1511885074670934,-2,2,-3,0,0,-2,-3,-2
1511885074678956,2,-2,-4,0,0,-2,-6,0
1511885074678956,3,-2,-2,1,-3,1,-2,-2
1511885074693996,-1,2,9,0,-3,-4,-4,0
1511885074693996,-2,0,-6,-3,-4,3,-2,1
1511885074694995,1,0,-1,-3,-1,-3,-1,-2
1511885074694995,-1,0,2,0,0,-2,-5,0
1511885074708291,-3,1,0,-1,1,2,2,2
1511885074708291,0,-2,2,-1,4,-3,1,0
1511885074716348,-1,-2,-3,0,-5,-1,3,3
1511885074716348,0,0,1,-5,-3,0,1,0
1511885074731576,1,-4,-3,2,-6,-1,0,-3
1511885074731576,-2,-3,-2,-2,-5,-3,3,-1
1511885074739668,1,0,-3,-1,-2,2,0,0
1511885074739668,1,0,1,-1,0,-3,-3,0
1511885074753634,0,0,-5,-2,0,3,2,0
1511885074753634,-3,-1,-1,-5,-4,-2,1,-2
1511885074761650,0,3,-1,1,-2,-3,0,-3
1511885074761650,-1,0,5,1,-2,0,1,-1
1511885074768695,2,-3,-7,-2,3,5,0,0
1511885074768695,3,-1,2,-1,-1,-2,-3,2
1511885074776598,-1,-1,0,-3,-2,-2,-2,1
1511885074776598,-1,0,-2,1,0,2,3,0
1511885074791632,-1,0,5,2,-1,-4,-8,-2
1511885074791632,-1,0,-4,-2,-2,-1,0,-4
1511885074799721,-2,2,-3,0,3,1,-1,0
1511885074799721,-1,-3,-2,-6,-4,-1,-3,-1
1511885074813933,-2,-2,4,3,5,0,0,-1
1511885074813933,2,-2,2,-2,-4,1,-1,0
1511885074821817,-1,0,-1,-3,-1,-3,-2,-2
1511885074821817,0,-3,-4,0,1,1,2,0
1511885074828835,-1,4,-1,-2,-2,-1,1,-2
1511885074828835,0,-3,0,2,3,4,-1,-2
1511885074835854,-4,0,0,-11,-4,-4,-1,0
1511885074835854,-1,1,1,9,1,-2,0,-2
1511885074850854,1,-1,-1,8,-4,-4,-1,2
1511885074850854,-1,0,-11,-1,4,-1,2,-1
1511885074859905,-1,0,1,-1,-3,1,0,-2
1511885074859905,-1,1,2,-2,2,-2,-2,-2
1511885074873925,-1,-2,0,-9,-2,0,-1,-2
1511885074873925,-1,0,-3,5,1,-3,1,-1
1511885074888955,-1,-2,1,-1,2,3,1,-1
1511885074888955,-2,0,-5,-11,1,-5,0,-2
1511885074897161,0,-2,2,7,-2,1,1,-2
1511885074897161,0,-1,3,-1,0,2,-1,1
1511885074897978,0,-2,0,-1,2,2,2,0
1511885074897978,0,0,4,1,1,-1,1,1
1511885074911134,-2,-4,-5,-6,-3,-1,2,1
1511885074911134,-1,-1,2,-4,-1,-3,-2,-4
1511885074919155,0,-4,-3,6,-1,-4,-1,0
1511885074919155,0,0,-7,-1,-1,2,0,-2
1511885074933190,0,-1,-1,-7,1,-3,-3,-2
1511885074933190,-4,1,-1,0,-2,-1,0,-1
1511885074942213,1,-2,1,3,-4,-1,1,-1
1511885074942213,1,-1,3,3,3,-2,0,-2
1511885074957367,-1,0,-2,-3,-2,2,0,-3
1511885074957367,-1,-5,-3,3,0,1,-3,1
1511885074958256,0,1,-2,-3,-1,-2,-3,-2
1511885074958256,-1,-2,-3,-4,-2,0,-1,0
1511885074971431,0,1,-6,2,-1,-2,-2,-1
1511885074971431,-1,-2,4,-1,1,0,0,-1
1511885074979582,0,-4,-2,1,-1,2,0,2
1511885074979582,-2,-1,1,3,1,3,-1,1
1511885074993806,-3,2,-1,-1,-2,-2,-1,0
1511885074993806,3,-2,3,-1,-1,2,-2,0
1511885075001780,-2,-1,-1,-1,0,-3,-1,-3
1511885075001780,-1,0,3,0,0,0,0,-1
1511885075017713,-3,-1,4,-3,-2,-1,1,-2
1511885075017713,-1,0,-3,-3,3,-2,1,3
1511885075018787,1,-1,0,0,2,1,0,-1
1511885075018787,-1,-3,0,2,-4,0,-2,-1
1511885075030895,0,0,-6,2,4,-3,2,-2
1511885075030895,1,-3,-1,3,-3,3,0,-3
1511885075046908,0,-1,3,0,-3,1,0,2
1511885075046908,-2,-5,-7,3,-2,1,-2,0
1511885075053926,0,-2,4,0,0,-1,-1,1
1511885075053926,-2,2,-2,-4,0,0,-1,-1
1511885075061954,-1,2,-6,0,0,1,0,-2
1511885075061954,-2,1,-3,1,0,2,0,-1
1511885075076989,-1,0,-2,-1,0,-2,0,0
1511885075076989,2,2,5,-3,-1,0,-1,1
1511885075077991,0,-1,0,-1,-3,1,-1,-4
1511885075077991,-2,-1,-1,3,-2,-1,-2,-1
1511885075091026,1,-1,-3,-6,-3,-3,-1,-2
1511885075091026,-3,-2,-3,1,-2,0,0,-3
1511885075099047,5,-1,1,2,6,4,1,2
1511885075099047,0,-3,-2,-3,-2,-6,-2,0
1511885075113084,2,1,2,-2,1,4,-1,0
1511885075113084,-3,0,-1,-2,1,1,0,-4
1511885075122112,-2,0,-4,-3,-2,-6,-1,0
1511885075122112,-1,-2,2,-2,-1,3,4,0
1511885075137152,0,-5,-2,-1,1,-1,0,-1
1511885075137152,1,2,1,4,4,-1,-1,2
1511885075138151,-1,-3,-3,-3,0,-2,-3,-1
1511885075138151,2,1,2,-2,-2,-1,-3,0
1511885075151189,2,-1,0,0,-3,0,0,0
1511885075151189,-1,-2,1,-2,-3,2,0,0
1511885075159374,-4,3,-5,1,3,0,-1,-1
1511885075159374,-2,2,1,-1,0,0,-4,0
1511885075173244,-2,0,-3,1,0,2,1,-2
1511885075173244,0,0,-1,2,-2,-1,-1,-1
1511885075181265,1,-1,1,-1,-1,0,1,1
1511885075181265,-3,-1,-3,-1,-1,-2,0,-4
1511885075197512,0,-3,-1,0,-1,-1,-2,1
1511885075197512,0,1,-6,-1,1,-1,2,1
1511885075198313,-2,-2,0,-3,-5,0,-1,-1
1511885075198313,-2,-2,-2,-2,-1,2,0,-1
1511885075211349,-1,-1,0,3,4,-1,-1,-1
1511885075211349,1,-3,1,-3,-4,-1,-1,0
1511885075219370,-1,-1,0,0,-1,-1,-1,-3
1511885075219370,0,0,3,0,1,-2,1,2
1511885075233408,-3,2,0,-2,1,0,2,-1
1511885075233408,-4,-1,-4,-2,-3,0,-2,0
1511885075241426,0,-3,1,1,0,-3,0,-1
1511885075241426,1,-1,1,0,3,0,-2,-1
1511885075256551,-2,-1,2,0,-2,0,0,1
1511885075256551,-2,-1,-3,2,-2,-1,2,-1
1511885075257553,2,-2,0,-6,-4,-1,-2,2
1511885075257553,-1,1,0,-4,-5,1,0,0
1511885075271708,-2,-2,-3,2,4,-3,1,-1
1511885075271708,0,-1,0,-4,-3,2,0,-3
1511885075279012,0,1,-1,-1,4,0,1,1
1511885075279012,4,-2,-2,0,1,-1,-2,-3
1511885075293997,0,-1,-1,0,-4,1,-1,0
1511885075293997,-1,-1,-2,0,-3,-2,-1,1
1511885075301937,2,-1,2,2,2,0,1,2
1511885075301937,-3,-2,-2,-3,3,-2,0,-1
1511885075324998,0,1,-2,-1,-3,0,-4,-3
1511885075324998,-1,-2,2,0,2,-3,1,0
1511885075326964,-1,1,2,0,0,1,-3,0
1511885075326964,2,2,3,0,1,-2,-1,2
1511885075330996,-1,-2,-1,1,-2,-1,1,0
1511885075330996,0,-1,1,1,5,-1,-2,-2
1511885075340064,-2,0,-4,0,-4,-2,0,-3
1511885075340064,1,0,0,-1,-5,-2,-2,-1
1511885075354092,-2,-1,-2,1,3,0,-3,1
1511885075354092,1,0,1,-1,-2,-1,-1,-1
1511885075363097,0,-1,-1,1,-5,0,1,-1
1511885075363097,1,-2,-1,4,3,0,-1,-1
1511885075376133,1,0,-1,-3,-3,1,-1,0
1511885075376133,-4,-1,2,-1,0,-3,-1,0
1511885075385150,-2,1,-2,2,0,-1,2,1
1511885075385150,0,-3,-4,-2,-2,4,0,-2
1511885075391208,1,0,5,0,4,1,-4,-2
1511885075391208,2,-3,-2,-2,0,-2,-3,-2
1511885075400214,-1,0,2,-2,-1,-2,-1,-3
1511885075400214,-3,3,1,-2,0,-1,4,0
1511885075413266,-1,-1,0,-1,-2,2,0,-2
1511885075413266,-1,0,-2,-1,0,0,0,1
1511885075422274,-1,-1,-7,0,-2,-3,-3,0
1511885075422274,-1,-1,3,-2,-2,-2,0,0
1511885075436333,0,-3,-1,-4,-2,-6,-3,-1
1511885075436333,-2,2,4,3,2,2,2,0
1511885075445320,1,-1,-4,3,1,2,3,0
1511885075445320,-1,1,1,-1,-5,-2,-4,-1
1511885075451368,-2,0,-2,-2,-5,0,1,0
1511885075451368,1,-1,-2,-4,-1,-3,-3,0
1511885075460432,-4,1,1,1,0,-2,0,1
1511885075460432,-2,-2,0,1,1,-2,3,0
1511885075473464,-1,-3,0,-1,-3,0,-1,-1
1511885075473464,4,0,-1,2,-2,1,1,-1
1511885075482485,-3,1,1,-8,-2,-4,-2,-2
1511885075482485,-1,-2,-3,2,-4,4,-2,1
1511885075496646,-3,1,2,2,3,-2,0,-1
1511885075496646,0,2,-7,4,-1,-3,2,-1
1511885075505550,3,-2,1,2,-1,1,0,-2
1511885075505550,0,-3,0,-3,-3,0,-2,-1
1511885075511703,-2,-2,-3,-1,0,-3,0,1
1511885075511703,-2,-3,1,-2,1,2,-2,-1
1511885075519791,3,-1,1,-1,2,2,-1,-3
1511885075519791,1,0,-4,3,3,-3,-1,-1
1511885075533765,0,0,-6,-2,-5,1,1,-1
1511885075533765,-3,-1,0,-1,1,0,-2,0
1511885075542788,-4,1,0,2,-3,0,-1,-1
1511885075542788,0,1,-1,-2,-2,-1,-2,-1
1511885075555932,-1,1,-1,0,0,-1,-1,-1
1511885075555932,-3,-3,0,-3,-4,-2,1,-1
1511885075564849,-3,-3,-6,0,4,4,-1,0
1511885075564849,1,1,1,1,-6,-5,-1,0
1511885075570863,-2,4,-1,0,2,3,1,-1
1511885075570863,0,-1,-2,-4,-2,1,0,-2
1511885075580028,-2,-1,3,4,1,0,-3,-1
1511885075580028,-1,-2,-7,-3,-1,1,-1,-1
1511885075602088,0,-3,0,1,-3,1,-1,1
1511885075602088,-2,0,0,1,-3,-1,-1,-1
1511885075604090,-1,-2,-3,-1,1,-3,-1,0
1511885075604090,-1,-2,-2,-2,-1,1,-2,-4
1511885075616126,1,2,2,-1,-3,-3,-2,-1
1511885075616126,-1,-4,-5,-2,-1,-1,0,0
1511885075625286,-3,-4,0,2,1,0,-4,0
1511885075625286,-3,0,-5,-4,-1,-2,-2,-3
1511885075640525,-1,1,1,-2,3,4,4,2
1511885075640525,0,2,1,0,-1,-2,-3,-2
1511885075641358,1,-2,-3,-3,1,-1,3,0
1511885075641358,-2,0,3,-1,5,1,1,-1
1511885075653432,-1,-2,0,0,-3,1,-4,-2
1511885075653432,1,1,-3,1,-1,-2,2,1
1511885075662385,-1,2,3,-4,-4,-2,2,-2
1511885075662385,-4,-2,-3,-3,-2,0,1,1
1511885075676423,-3,-2,-1,-1,0,-1,0,1
1511885075676423,-2,-1,5,0,1,0,-1,-2
1511885075685463,-1,-1,0,0,-1,-3,-1,-2
1511885075685463,2,1,-2,-1,0,3,1,0
1511885075691572,-3,-1,-1,-2,-3,0,0,-1
1511885075691572,-2,0,-1,0,5,-4,1,0
1511885075700588,0,-3,1,-1,-2,-1,-2,0
1511885075700588,-1,-1,-4,1,1,0,-3,-1
1511885075713767,1,-1,-6,-2,0,-5,-1,-1
1511885075713767,0,0,1,-1,1,5,0,-3
1511885075722686,-2,-1,-2,-4,-5,-1,-1,1
1511885075722686,-2,4,9,8,5,0,-2,-1
1511885075736726,1,-5,1,-4,-2,0,3,0
1511885075736726,0,-1,-4,0,-3,-2,-2,1
1511885075744805,1,1,-1,-1,2,-3,-1,-1
1511885075744805,-1,-1,-2,-1,-3,-1,-1,0
1511885075750763,-1,-1,0,2,3,-1,1,-4
1511885075750763,0,-2,1,0,-2,-3,-3,1
1511885075759893,0,2,1,-1,0,-3,-1,0
1511885075759893,0,-2,2,-1,-6,-2,1,-1
1511885075773964,1,0,0,0,-3,-2,0,-1
1511885075773964,2,0,-3,3,-1,-3,2,0
1511885075782951,0,-1,2,-1,-3,3,-2,-2
1511885075782951,0,-5,0,-1,2,0,2,-2
1511885075796026,0,-3,-2,0,-2,-1,-3,-2
1511885075796026,-1,0,3,1,3,1,-1,-2
1511885075805009,0,1,1,-1,0,0,-2,1
1511885075805009,-2,-1,-3,-3,-2,2,-2,-1
1511885075820048,0,2,1,0,0,-3,-1,0
1511885075820048,-3,1,0,-1,-5,3,-1,-2
1511885075822055,0,-3,-1,2,2,-3,0,-1
1511885075822055,-1,-1,-1,-3,1,-3,2,-2
1511885075833245,1,0,-2,1,2,3,-3,1
1511885075833245,-1,-3,-5,-3,-3,-3,-2,-1
1511885075842250,-2,3,1,1,-3,0,-1,-1
1511885075842250,-2,-1,-2,0,2,-3,-1,1
1511885075856307,-2,3,0,-4,5,4,0,-1
1511885075856307,1,-2,-4,0,0,-2,1,-1
1511885075865306,1,0,-1,-2,-2,2,-1,-1
1511885075865306,0,0,-4,1,-1,-2,0,1
1511885075880346,1,-2,0,-1,-1,-1,0,-2
1511885075880346,1,3,7,4,2,1,-1,-1
1511885075881349,0,-3,-3,-2,-2,-4,1,-1
1511885075881349,1,0,-3,-5,-1,2,-2,-1
1511885075893617,-1,-1,0,1,-1,0,0,-3
1511885075893617,-1,1,-2,-1,2,1,0,0
1511885075902548,2,0,0,1,-2,-2,-2,-1
1511885075902548,-3,-2,0,-1,-1,5,2,1
1511885075916586,-1,1,4,-2,-2,-5,-2,0
1511885075916586,-1,-4,-3,-2,-1,0,0,-6
1511885075925610,-2,-1,-4,-2,-1,3,-1,-3
1511885075925610,4,3,0,2,-2,-5,-4,-1
1511885075939689,0,-1,-2,-3,-3,0,-1,-1
1511885075939689,-3,-2,-4,1,-2,-2,0,2
1511885075941657,-3,-4,-2,4,2,2,1,-3
1511885075941657,-2,1,5,-2,6,0,-2,-1
1511885075953725,1,0,-4,-1,1,-3,-1,-1
1511885075953725,0,1,0,-7,-3,-2,0,0
1511885075962708,-2,0,-2,5,1,-1,0,0
1511885075962708,-2,0,1,8,-5,-5,-2,1
1511885075975747,-1,-2,-2,-1,-6,2,1,1
1511885075975747,-1,-2,-4,-2,3,1,-1,-1
1511885075984792,0,0,-1,-9,0,2,-2,-1
1511885075984792,0,-3,-4,-3,-3,-1,0,-2
1511885075999810,-4,1,0,3,1,-2,-5,-2
1511885075999810,2,1,1,2,-1,2,2,0
1511885076001816,1,-1,0,-5,-3,-3,-4,-1
1511885076001816,-1,1,0,-4,-1,-1,2,-1
1511885076014068,1,-2,-2,0,-3,-1,2,0
1511885076014068,-2,0,2,-1,-2,-2,-1,1
1511885076022969,-2,1,-3,3,4,-2,-2,1
1511885076022969,-1,-2,-2,-17,2,2,-1,0
1511885076036002,-4,-1,-5,9,-1,0,-1,-1
1511885076036002,1,1,-2,-2,-6,-6,-1,-2
1511885076045023,-1,1,-1,0,0,3,1,3
1511885076045023,-2,-2,0,-3,-1,-1,-1,1
1511885076060264,-1,1,0,-5,1,1,-1,-2
1511885076060264,-2,-3,2,0,-1,1,-2,0
1511885076061240,1,0,-3,-3,-4,-4,3,-1
1511885076061240,1,-2,-1,3,0,1,-1,0
1511885076074155,1,-3,-3,2,1,2,0,-1
1511885076074155,-2,-1,0,2,0,-2,-1,-1
1511885076083143,0,1,0,-4,1,-3,-2,0
1511885076083143,-1,0,-3,3,2,-1,-1,-2
1511885076096357,-1,2,-1,-1,-1,2,4,-1
1511885076096357,1,3,-2,-5,-2,0,-1,0
1511885076105242,0,-1,0,1,2,2,-5,-2
1511885076105242,0,0,-3,2,-3,-3,2,1
1511885076118278,-2,-1,0,-1,-3,-2,-3,-1
1511885076118278,0,-2,0,1,-1,2,-2,2
1511885076127437,-2,-2,-3,2,-4,-1,0,-2
1511885076127437,-1,2,3,0,0,1,0,-3
1511885076133688,0,-1,-1,-2,3,-3,-2,0
1511885076133688,-3,-1,0,-2,-2,-1,0,-1
1511885076142711,1,-1,0,3,0,1,4,0
1511885076142711,0,1,-1,1,-2,-5,-4,-1
1511885076156775,0,0,2,-1,1,0,1,-1
1511885076156775,-3,1,-2,1,0,-1,1,-1
1511885076164770,-2,-2,-3,-1,-3,1,1,1
1511885076164770,-2,-3,-1,0,-4,4,1,-3
1511885076179854,1,-2,-2,-2,0,-2,-4,-1
1511885076179854,1,-1,0,0,0,-4,2,-1
1511885076185829,-1,1,1,-3,-3,3,-1,-1
1511885076185829,-2,-3,-1,1,2,0,-2,-1
1511885076193888,0,-1,2,-2,-2,1,0,-1
1511885076193888,0,-2,0,1,-1,-3,-1,0
1511885076202872,-2,0,-3,-3,-5,-4,0,1
1511885076202872,2,0,-1,0,4,2,0,2
1511885076215906,-3,2,-2,4,7,-1,0,1
1511885076215906,-3,-3,-2,-4,3,1,2,-1
1511885076224968,1,1,1,3,4,-2,-2,1
1511885076224968,-1,-1,-1,-1,-5,0,-4,0
1511885076239094,1,-1,0,-4,-7,-4,2,0
1511885076239094,-1,0,6,2,0,3,-1,-2
1511885076247294,-2,-1,0,-1,2,1,0,-1
1511885076247294,0,1,2,-3,0,0,0,-1
1511885076253225,1,-3,-4,0,1,-1,-2,1
1511885076253225,-4,1,-7,-1,0,0,-2,-2
1511885076262237,0,0,1,1,-4,-4,1,-2
1511885076262237,-3,0,-1,0,9,-2,2,-1
1511885076276251,-1,0,2,-7,-2,0,0,2
1511885076276251,1,-1,0,17,-2,0,2,-1
1511885076285267,3,1,0,-10,-1,-4,0,3
1511885076285267,2,-4,0,-8,-7,-3,-2,0
1511885076298497,1,-4,0,-1,-4,3,0,2
1511885076298497,2,-2,-2,-7,-8,-7,0,2
1511885076307325,-2,1,1,-10,1,5,-3,-1
1511885076307325,-1,0,1,11,3,1,0,-1
1511885076313543,0,0,-3,-5,-9,-3,-3,-2
1511885076313543,-3,1,-2,1,3,5,-4,-2
1511885076322364,-1,-3,2,1,-3,0,1,-4
1511885076322364,-3,-4,-1,1,-4,1,1,-2
1511885076336405,0,2,7,3,1,-3,0,-1
1511885076336405,-3,-1,-9,0,-5,1,0,1
1511885076344853,0,-2,5,1,0,-3,-1,-1
1511885076344853,-1,-1,-5,-2,1,0,-3,0
1511885076358717,-1,5,11,12,-1,-2,0,1
1511885076358717,1,-3,5,10,3,-1,-2,4
1511885076367871,0,-2,-6,-27,-1,0,0,3
1511885076367871,1,2,-4,15,-5,-1,0,0
1511885076373930,-1,1,6,-10,6,0,-1,-6
1511885076373930,-1,1,-5,-22,3,0,0,-1
1511885076382911,-4,-1,-4,20,-2,-1,-1,-2
1511885076382911,2,2,8,15,-8,-5,0,1
1511885076395990,-3,-3,-9,-19,4,0,1,-3
1511885076395990,-3,3,4,15,-1,-1,-4,-2
1511885076404968,-2,-5,0,-14,-3,3,-2,-1
1511885076404968,-4,1,-2,-9,-2,0,-3,-3
1511885076419009,-1,-5,-8,15,0,-1,1,1
1511885076419009,-3,1,-1,-17,3,0,-9,-1
1511885076427338,-1,4,0,22,0,-1,0,2
1511885076427338,0,-2,-6,-9,-2,-2,-1,1
1511885076433158,-1,-1,-5,-7,-2,-2,0,-1
1511885076433158,2,-2,5,2,-3,1,-1,-2
1511885076443192,-8,1,-13,19,-1,0,0,3
1511885076443192,-1,-4,-1,-21,4,-5,-3,-6
1511885076456409,-4,0,2,-19,-3,1,-3,-1
1511885076456409,-3,-5,-1,-3,-2,-2,4,1
1511885076465241,2,-3,0,19,0,1,-2,-4
1511885076465241,-2,-1,-2,-4,1,1,-1,-2
1511885076478278,-2,-2,4,-6,0,2,-1,-4
1511885076478278,14,-2,-6,-2,0,-1,1,8
1511885076487319,0,0,7,-8,-3,-1,0,-5
1511885076487319,-4,3,-2,-1,0,-1,0,-1
1511885076493447,0,-2,1,4,-2,3,0,-3
1511885076493447,9,-2,-2,-6,-2,2,0,2
1511885076502359,-17,-2,-6,-1,2,-3,-3,0
1511885076502359,7,4,-2,2,1,3,-1,-1
1511885076516400,-1,-2,-2,-1,-4,-3,0,0
1511885076516400,-3,4,11,4,1,-1,-1,-1
1511885076525525,5,-3,-24,-3,2,0,-1,-9
1511885076525525,-2,-1,-2,-17,-2,-1,0,3
1511885076538536,-2,-1,5,42,1,1,0,-2
1511885076538536,0,-8,-18,-19,1,0,3,2
1511885076547557,3,0,12,-2,-1,-2,-1,2
1511885076547557,-10,-6,-12,6,2,0,0,-2
1511885076553576,6,4,5,-8,-2,1,-1,3
1511885076553576,-3,0,-8,15,0,1,-1,-6
1511885076562597,-2,-1,10,-9,1,3,3,-1
1511885076562597,1,-5,-9,1,-4,1,-3,4
1511885076576634,2,1,0,-3,-1,0,-3,3
1511885076576634,-7,4,3,-1,-2,-5,1,-6
1511885076584656,1,-3,-15,-3,1,0,0,3
1511885076584656,-3,3,15,6,-1,4,-2,-3
1511885076598912,2,-10,-27,-2,1,-1,-1,0
1511885076598912,-3,4,11,0,-1,0,-5,2
1511885076607867,3,-1,10,-2,0,0,0,-8
1511885076607867,2,-1,-13,-2,-4,0,0,-1
1511885076614081,0,2,-3,-2,2,-5,0,-4
1511885076614081,7,-2,0,4,-1,2,1,-2
1511885076623049,-8,-4,-5,-9,-1,-1,-2,3
1511885076623049,-3,2,7,5,1,0,0,-3
1511885076636075,2,2,-7,-2,1,-1,-1,1
1511885076636075,-3,-6,13,0,-5,0,-1,-8
1511885076645241,3,2,-8,-8,-2,0,-6,6
1511885076645241,-2,-2,7,-1,-2,-4,6,-2
1511885076658497,-6,-4,-2,0,-5,2,-4,3
1511885076658497,-1,4,8,-5,1,0,-1,-5
1511885076667410,1,1,0,-1,-2,-5,0,-1
1511885076667410,3,-3,-3,-2,0,2,0,2
1511885076673552,1,-4,9,2,0,-1,-1,-1
1511885076673552,1,-1,-14,-7,-1,1,-1,0
1511885076682450,-9,-6,-5,6,-1,0,0,-3
1511885076682450,3,-2,5,0,-3,2,-3,2
1511885076696491,-5,3,5,4,1,0,3,-2
1511885076696491,1,-5,-6,-1,-2,-4,-1,-1
1511885076705516,3,2,-1,1,-1,-1,2,-1
1511885076705516,-2,2,-4,2,0,5,1,-1
1511885076718743,0,1,-10,-3,-1,-1,-5,0
1511885076718743,-10,-7,0,0,-2,-3,-2,-4
1511885076727762,2,2,5,-1,1,0,-1,0
1511885076727762,5,-9,-3,0,3,-6,-1,2
1511885076733783,-2,1,7,-4,-4,-1,1,-2
1511885076733783,0,3,-7,4,4,1,0,-2
1511885076742801,1,1,12,-4,-6,-3,-24,0
1511885076742801,2,5,1,0,-3,-3,2,1
1511885076755877,-3,0,-5,3,1,6,-3,-2
1511885076755877,-1,-1,-2,-2,-2,-5,-3,1
1511885076764864,6,-4,0,-1,1,3,-3,2
1511885076764864,-1,2,-8,0,0,-5,1,0
1511885076778984,3,4,-2,-1,-2,0,4,0
1511885076778984,-5,-1,2,0,1,2,-6,0
1511885076787995,3,0,0,-1,1,-2,-2,0
1511885076787995,1,-2,-1,0,-1,3,0,-3
1511885076802006,-1,0,1,-1,-1,-5,4,-2
1511885076802006,-2,0,-8,-4,-2,0,-3,0
1511885076804010,-1,0,3,-1,-3,0,4,-1
1511885076804010,-1,-3,4,1,3,3,-10,4
1511885076816044,0,0,3,-2,2,-5,8,-2
1511885076816044,0,3,-2,0,-6,-1,8,1
1511885076825066,0,-4,0,-2,4,1,4,0
1511885076825066,0,1,1,0,2,5,0,-2
1511885076839121,-2,0,-2,0,2,-1,-4,-2
1511885076839121,0,-5,-1,-7,-5,-4,-3,-1
1511885076848129,-2,1,-1,5,-7,-1,14,-3
1511885076848129,-2,-2,1,-2,-6,-5,1,2
1511885076862246,-1,1,-1,-4,-5,-1,-5,-2
1511885076862246,-3,1,2,-5,1,1,-21,-5
1511885076864235,2,-1,0,-7,-1,-2,-10,1
1511885076864235,-1,-1,-1,10,2,-3,-4,-2
1511885076876244,-3,3,5,2,-2,4,-5,1
1511885076876244,2,-3,-7,3,-2,-1,0,4
1511885076885264,-3,2,3,-1,-3,0,4,-2
1511885076885264,-3,-2,1,-8,-2,-4,-2,-3
1511885076898424,0,-1,2,5,8,-2,3,-1
1511885076898424,-4,2,10,7,8,7,9,-2
1511885076907448,-1,-3,-7,-2,3,6,-2,-1
1511885076907448,3,1,1,-18,-14,-7,3,0
1511885076922514,-2,-4,-5,2,-16,-5,-6,0
1511885076922514,3,-2,3,18,11,-6,41,3
1511885076923517,0,2,-2,-2,2,3,2,-2
1511885076923517,-3,0,4,-4,-7,1,-3,-2
1511885076936530,0,-1,5,-2,-11,-4,-1,0
1511885076936530,-4,1,-5,-2,6,2,-8,-3
1511885076945550,-3,3,14,4,1,-1,4,-4
1511885076945550,1,-3,-7,-1,-2,-2,3,-1
1511885076958583,1,-3,-4,-2,4,0,-8,-1
1511885076958583,-1,1,5,-6,-6,-1,-3,0
1511885076967634,2,4,-3,-6,-3,-2,-3,-1
1511885076967634,-3,2,4,-1,7,4,-6,-1
1511885076982676,3,-3,1,0,1,1,0,-1
1511885076982676,-3,-4,3,0,2,-2,-6,0
1511885076983660,-1,-2,10,-3,-11,-6,3,-1
1511885076983660,-1,-1,-11,9,3,-1,1,0
1511885076995706,1,2,4,-5,0,1,-18,2
1511885076995706,0,-1,-12,-15,-12,-4,5,-1
1511885077004706,-2,-4,3,2,1,-2,0,0
1511885077004706,-2,5,20,4,0,-1,-1,-1
1511885077018770,1,-2,-4,13,9,3,-2,-1
1511885077018770,0,4,-6,-12,-9,0,-6,3
1511885077027791,-3,-6,-9,2,1,1,0,-1
1511885077027791,-2,0,0,-1,3,-5,3,-1
1511885077042807,1,5,-11,2,-3,3,7,-2
1511885077042807,-2,0,8,3,0,3,-2,-1
1511885077043814,0,-2,-6,2,-1,-2,1,-1
1511885077043814,-3,-6,6,-3,-1,4,-1,-2
1511885077055869,-1,1,-8,-6,0,0,7,-2
1511885077055869,-1,-5,-1,6,-2,2,0,-2
1511885077064867,3,5,-8,-3,2,0,-4,0
1511885077064867,-4,2,1,1,1,0,-2,1
1511885077078932,-1,-3,-2,0,1,0,-1,-2
1511885077078932,2,1,-15,-1,-1,-1,-5,-2
1511885077087952,-4,1,3,2,3,1,3,-1
1511885077087952,4,-5,-5,-2,-1,1,-2,-2
1511885077101992,-9,-6,-5,-1,2,-1,5,1
1511885077101992,-1,5,-1,2,0,0,-1,-1
1511885077103971,0,-2,19,3,0,-2,-2,0
1511885077103971,-3,-2,-19,2,0,2,2,1
1511885077116023,-3,-3,-2,-5,-3,-1,0,0
1511885077116023,-2,4,17,-1,1,2,-2,-3
1511885077125026,-3,-4,-11,-4,2,-2,0,-1
1511885077125026,2,-1,9,2,1,-2,-3,-1
1511885077138088,3,3,6,-2,-2,-2,3,0
1511885077138088,1,-6,-3,-8,1,0,2,3
1511885077147112,-6,1,-7,2,0,0,0,-3
1511885077147112,3,-1,2,1,-1,1,-1,-4
1511885077162126,6,-2,-3,0,2,1,-1,-3
1511885077162126,2,0,0,3,-2,-3,0,-1
1511885077164130,5,-1,-11,-3,-4,-1,-1,2
1511885077164130,-1,2,18,-1,-2,-3,1,2
1511885077176189,-3,-2,6,-5,-3,0,2,0
1511885077176189,1,0,5,4,0,-6,-3,-2
1511885077185187,-2,3,4,-2,0,3,-2,-2
1511885077185187,0,0,-5,3,-1,0,-1,-3
1511885077198221,0,1,5,0,-2,2,8,-1
1511885077198221,-6,-8,-3,2,-1,2,-3,-1
1511885077207246,1,4,11,1,0,1,-2,-1
1511885077207246,1,-10,-24,-3,-2,-4,0,1
1511885077222285,-1,1,5,-2,1,0,-3,0
1511885077222285,-8,-2,0,0,0,2,-2,-2
1511885077224292,8,-3,2,1,-1,-4,2,2
1511885077224292,-2,-1,-7,-4,2,2,0,-1
1511885077236322,-1,0,0,-1,-1,-3,1,0
1511885077236322,2,0,-5,2,0,-1,1,0
1511885077245347,0,-1,0,1,0,3,0,-1
1511885077245347,-1,4,4,0,-3,5,-2,0
1511885077258381,-6,-6,-7,-2,0,1,-4,-1
1511885077258381,2,-2,4,0,-2,2,-1,-2
1511885077267409,2,-1,-3,-2,-1,-4,-2,-1
1511885077267409,-8,-3,3,1,4,-3,10,-1
1511885077282466,2,1,-2,1,1,1,-3,-1
1511885077282466,0,-5,-3,-2,-1,-3,-1,0
1511885077284451,1,-1,-11,-1,-3,-1,-2,2
1511885077284451,-5,4,9,1,-1,0,-4,-5
1511885077296483,-2,1,-3,-1,-1,1,0,0
1511885077296483,0,0,0,3,1,0,2,0
1511885077305506,-6,-3,-10,-3,-1,1,1,-4
1511885077305506,0,3,5,-2,-2,-1,-3,0
1511885077318542,0,0,0,1,-1,-2,-2,-2
1511885077318542,1,-2,3,-3,1,1,-7,-2
1511885077327565,-1,-1,7,1,-2,3,-1,-1
1511885077327565,0,-4,-8,0,0,0,-3,-1
1511885077342605,0,-1,-4,0,-1,2,-1,1
1511885077342605,0,4,-2,0,-2,-1,1,-1
1511885077343607,0,-2,4,-1,1,2,-2,1
1511885077343607,-2,-2,-10,-1,0,1,0,0
1511885077355640,-1,-1,-2,1,0,-1,-1,1
1511885077355640,-2,-1,7,-1,-5,1,0,2
1511885077364664,1,1,2,-1,-1,-4,1,2
1511885077364664,2,3,-1,0,-1,-2,0,-1
1511885077378839,-1,-4,1,-4,-1,0,8,1
1511885077378839,-1,1,-9,-2,-2,0,3,-1
1511885077387725,1,-2,-1,2,-3,-1,-1,0
1511885077387725,-2,-4,-8,-2,3,-1,0,-1
1511885077402768,1,0,-2,0,0,-2,-2,-2
1511885077402768,-1,-3,-4,-2,3,0,-1,0
1511885077403768,-1,2,0,-1,-1,1,2,-1
1511885077403768,0,1,4,1,0,2,-2,0
1511885077415800,-2,0,7,-2,-2,-1,-2,1
1511885077415800,-2,1,-11,-1,-1,1,-2,-4
1511885077424846,-4,-2,0,-3,1,-1,-3,0
1511885077424846,2,0,-3,0,-2,0,-1,1
1511885077439171,-2,-1,-4,-1,0,1,1,0
1511885077439171,-3,0,9,2,-2,-2,-2,-2
1511885077447178,-3,-6,-9,0,0,1,0,-3
1511885077447178,-1,-3,3,-3,-2,-1,1,0
1511885077462220,0,1,-2,-3,-2,0,-5,-2
1511885077462220,0,3,5,4,1,1,-5,0
1511885077464222,0,-1,-3,1,-1,-1,1,-1
1511885077464222,-2,2,-2,-2,-4,1,-1,0
1511885077476259,-3,-3,-1,4,-2,-3,-1,1
1511885077476259,-1,-1,0,-2,-4,2,-1,-1
1511885077485278,-3,1,1,2,8,-4,-1,-1
1511885077485278,1,0,-7,-5,-5,0,-1,2
1511885077498621,1,3,-4,-2,-1,-1,7,-2
1511885077498621,1,-5,-5,5,3,-4,0,0
1511885077507459,0,-2,-2,1,2,1,2,-1
1511885077507459,1,-1,3,-7,-2,-4,3,2
1511885077522704,-1,0,-5,-2,-3,1,-2,-2
1511885077522704,-2,1,-2,-3,-1,-5,-1,-1
1511885077524675,0,-1,-4,-7,-4,-2,0,-2
1511885077524675,2,-4,-9,3,-2,-5,-4,-2
1511885077536536,1,-5,7,-2,0,-4,-3,-1
1511885077536536,1,3,4,-3,-5,-2,-1,1
1511885077544872,0,2,-2,-1,-3,-2,-5,-1
1511885077544872,-2,0,-1,1,1,2,1,-4
1511885077558722,-1,0,0,4,2,0,-3,-1
1511885077558722,1,-2,-7,-1,-1,0,8,-1
1511885077567744,1,-3,5,3,-1,-2,-3,1
1511885077567744,0,2,5,-14,8,-1,-2,-1
1511885077581783,0,-1,-3,16,-1,2,-3,-2
1511885077581783,-2,1,-2,1,-1,1,-2,-2
1511885077588800,-2,0,-1,-5,-6,1,0,-3
1511885077588800,1,-3,3,22,4,5,2,-5
1511885077596146,1,1,-7,-35,-2,-1,-2,2
1511885077596146,-2,-3,2,8,-4,-3,-2,-1
1511885077604988,0,-2,2,14,-2,-3,1,3
1511885077604988,-1,-3,7,-3,2,-3,-3,1
1511885077619022,-2,-2,-11,-1,0,-2,-2,-3
1511885077619022,3,-2,1,-2,0,7,4,2
1511885077628048,1,0,-7,-17,2,-2,0,-2
1511885077628048,-1,3,1,12,-2,1,0,-1
1511885077642174,-1,0,3,-6,-4,-2,0,-1
1511885077642174,-1,-1,2,-4,3,-1,-2,-2
1511885077648192,-1,-3,1,7,-4,0,-1,-2
1511885077648192,2,-1,-6,-5,2,-1,-1,1
1511885077656213,-6,-1,0,6,6,-1,0,-3
1511885077656213,4,1,-6,-2,-1,-5,0,3
1511885077665236,4,1,4,-2,2,-3,0,1
1511885077665236,-3,0,-5,-6,-4,-2,-2,0
1511885077678622,0,-4,-2,3,-1,-2,2,1
1511885077678622,-4,0,-6,-1,-5,1,-4,-5
1511885077687464,-4,-5,5,-1,-2,2,-3,-3
1511885077687464,2,0,-2,-2,-2,0,0,-2
1511885077701505,-2,2,10,9,3,4,-1,-3
1511885077701505,-2,-1,-23,-8,3,-1,1,-1
1511885077708606,0,2,6,0,-1,-1,-1,-2
1511885077708606,-3,-2,0,-2,0,-2,-1,-2
1511885077724565,3,1,1,1,-4,0,-1,-2
1511885077724565,0,0,5,2,3,-1,-3,-1
1511885077726576,-4,1,-4,-2,-2,4,3,1
1511885077726576,-2,0,-2,2,-5,1,0,-1
1511885077738726,-1,-3,-3,0,-1,2,0,0
1511885077738726,-3,-1,2,1,6,-2,-1,1
1511885077747807,-1,1,1,3,3,0,0,-3
1511885077747807,0,-2,-11,-2,-2,-4,-2,0
1511885077761847,0,0,0,0,-1,0,-5,-1
1511885077761847,4,2,2,0,-1,3,3,2
1511885077768867,-1,-2,-1,0,0,-1,1,0
1511885077768867,1,2,6,-2,-3,0,-4,0
1511885077785149,0,-4,2,8,8,0,-4,0
1511885077785149,-2,0,4,-5,-7,0,-5,1
1511885077786153,-3,1,-8,-2,-1,-2,-1,1
1511885077786153,-2,2,5,-1,0,0,-1,-3
1511885077798316,0,3,5,1,-1,1,2,0
1511885077798316,0,-2,-2,0,2,0,0,-3
1511885077807336,4,0,1,-4,-4,0,-3,-1
1511885077807336,-5,-3,-1,1,0,-1,2,-1
1511885077821373,0,-1,-1,-1,-2,0,-2,0
1511885077821373,-2,-3,-2,1,-1,0,-1,-4
1511885077828579,-1,0,-2,-2,-3,-4,-1,-3
1511885077828579,-3,-3,1,1,4,6,2,1
1511885077845587,0,1,-4,-1,-1,-1,0,-1
1511885077845587,0,-3,4,-1,-2,3,-2,-1
1511885077846589,-1,1,-4,2,-3,0,-2,1
1511885077846589,-2,-1,3,1,-4,2,-2,-2
1511885077858648,1,-3,-5,-4,-3,-7,1,-1
1511885077858648,-1,-4,2,-1,-1,4,-3,-1
1511885077867870,-1,-1,1,1,1,-5,-7,0
1511885077867870,0,0,1,-2,-1,5,1,-2
1511885077882020,-2,-2,-2,0,-4,-2,-2,2
1511885077882020,-3,-2,-3,0,-4,-1,2,-1
1511885077888926,0,-5,3,-2,-1,-1,0,0
1511885077888926,1,0,-1,3,3,0,-2,0
1511885077904973,0,-1,-3,2,0,2,0,-1
1511885077904973,-2,2,-1,-4,2,0,0,1
1511885077906978,-3,-4,0,-4,-5,0,4,0
1511885077906978,1,1,-2,1,0,-4,3,1
1511885077919010,1,1,2,6,-6,-3,1,2
1511885077919010,-1,1,-4,1,-2,-2,-1,-1
1511885077927270,1,0,-1,-10,-2,2,0,-1
1511885077927270,-2,1,-4,0,0,-1,-3,-3
1511885077942127,-1,-1,-1,-7,0,3,2,-2
1511885077942127,-2,1,1,2,0,-4,-2,0
1511885077948147,-2,0,-5,3,0,-3,1,1
1511885077948147,-1,-3,0,-5,-8,-3,-3,2
1511885077965189,-2,1,0,0,1,-2,-1,-1
1511885077965189,1,0,2,1,-1,-1,0,-2
1511885077966195,0,1,-2,-4,-1,2,2,-1
1511885077966195,-1,-2,3,5,7,-3,2,-1
1511885077978451,-2,-1,-4,-2,7,3,-1,1
1511885077978451,-2,-2,1,1,-4,-3,-1,-2
1511885077987370,-3,-3,-4,6,8,2,1,-2
1511885077987370,1,2,0,0,-6,-6,-1,0
1511885078001511,-1,-3,2,-4,-2,-1,-1,-2
1511885078001511,-1,0,-3,-2,-2,-4,0,0
1511885078008426,-1,0,-1,0,2,5,-2,0
1511885078008426,1,0,-1,3,6,-1,-4,-2
1511885078024573,1,-2,0,-2,-4,-2,1,-3
1511885078024573,1,0,-1,-1,-1,2,1,0
1511885078026473,0,0,4,3,-5,-1,-1,0
1511885078026473,-2,-1,1,0,-4,2,0,0
1511885078038618,-2,0,-4,-2,-1,-2,-4,-2
1511885078038618,-1,-3,-2,1,7,0,1,-2
1511885078047789,1,3,-4,-1,2,3,0,-3
1511885078047789,0,-2,-3,-4,-3,5,1,-1
1511885078061962,0,-1,2,0,-4,-4,-1,3
1511885078061962,-3,1,-1,-2,0,1,0,0
1511885078068952,-2,-4,1,0,3,-2,-1,-1
1511885078068952,1,0,-3,-3,-6,-2,-1,-1
1511885078084995,3,-2,0,0,-2,2,0,1
1511885078084995,-2,1,1,1,0,-3,-1,0
1511885078087001,-2,-2,1,-6,-4,0,0,-1
1511885078087001,-2,1,0,8,9,1,1,-1
1511885078098028,-1,-1,-5,-4,-4,0,1,-1
1511885078098028,2,-3,0,1,4,-2,-3,-1
1511885078108166,-1,-2,-1,-3,-3,-4,-1,-1
1511885078108166,-2,-3,-3,-3,-3,0,2,-2
1511885078122204,-1,2,-3,1,-1,-2,-2,-2
1511885078122204,0,-1,0,-3,-3,0,1,-3
1511885078128204,0,2,-1,-2,7,3,-2,-2
1511885078128204,1,0,-1,3,-4,0,-3,2
1511885078145259,1,2,-3,-3,0,-1,1,-2
1511885078145259,-1,-2,-2,-1,-3,-4,-1,0
1511885078146155,-1,-2,3,2,2,-3,-1,-2
1511885078146155,-1,-3,-4,-3,0,3,3,0
1511885078158371,-3,0,-4,0,5,1,0,-3
1511885078158371,0,4,1,-6,-6,-3,2,0
1511885078167214,-5,2,-3,8,26,8,0,-1
1511885078167214,-1,0,1,6,0,-2,-3,-2
1511885078181251,0,-1,2,8,5,-2,1,-1
1511885078181251,-2,-4,-2,-8,7,1,-4,-2
1511885078188270,1,-1,-1,10,1,1,0,-3
1511885078188270,-2,-2,2,-18,-8,-3,-2,-2
1511885078205408,2,1,2,12,12,5,2,4
1511885078205408,-3,-2,2,-2,-9,0,-2,0
1511885078206314,0,-1,-2,2,-11,-3,1,3
1511885078206314,-2,-2,1,-6,3,0,-1,-1
1511885078218351,-1,1,3,-3,-8,-3,2,-2
1511885078218351,-3,0,-2,5,2,3,-2,-2
1511885078227377,2,4,0,-4,-10,-1,-1,0
1511885078227377,3,-1,0,7,8,-1,2,2
1511885078241492,-2,-1,-5,-16,2,1,-3,-4
1511885078241492,2,-2,0,15,1,1,-2,0
1511885078248429,1,2,0,6,-5,-4,-3,0
1511885078248429,0,3,2,0,-3,-4,3,1
1511885078264469,-5,-1,1,2,-3,1,-3,-1
1511885078264469,-2,-1,0,-2,6,-1,-1,-1
1511885078266474,1,-4,-3,-5,-9,-4,-2,-1
1511885078266474,-1,0,-4,0,-1,-2,-1,1
1511885078278633,3,0,2,-5,0,-1,0,0
1511885078278633,2,-1,-3,-8,0,3,2,-1
1511885078287571,-1,0,-1,5,-6,-1,0,1
1511885078287571,1,-4,-4,-8,4,-5,-4,-4
1511885078301606,-1,-4,-2,-3,0,-1,0,0
1511885078301606,1,1,0,12,0,0,-3,0
1511885078308627,0,-3,0,-12,-4,1,1,-1
1511885078308627,0,2,-2,3,-4,1,-1,-3
1511885078324633,-3,-1,-1,-2,-5,-1,1,-2
1511885078324633,1,0,1,-11,-8,-1,0,1
1511885078326635,-1,-1,-6,12,11,-1,-2,-4
1511885078326635,-1,4,4,-2,-2,4,-2,1
1511885078338669,-1,0,1,0,-4,-1,-1,-2
1511885078338669,0,-1,4,-2,-1,-1,0,0
1511885078347762,-2,-2,0,-10,-6,-3,2,-1
1511885078347762,-1,-3,2,7,-1,0,0,-2
1511885078361983,-1,1,2,0,-6,-4,-2,0
1511885078361983,-4,1,-6,-2,-2,-2,-1,0
1511885078368819,1,-1,2,0,-2,0,9,-2
1511885078368819,-3,-1,-3,-1,1,-1,0,-1
1511885078385088,-1,0,0,3,0,2,0,0
1511885078385088,0,0,0,-3,1,-1,-3,-1
1511885078387052,1,1,1,4,1,-2,-6,1
1511885078387052,1,-3,-4,-5,-2,1,0,0
1511885078398083,1,1,-1,5,3,-5,0,-1
1511885078398083,-2,-2,2,-3,0,2,0,-1
1511885078407213,0,1,2,-3,0,-2,-3,-1
1511885078407213,1,-2,3,2,0,-3,0,0
1511885078422215,0,-1,-4,4,12,2,-4,-1
1511885078422215,1,0,-1,-2,-2,0,2,0
1511885078428354,2,0,-2,-1,-2,-3,-1,2
1511885078428354,-2,-3,-4,-1,-2,0,-1,-2
1511885078445435,-2,-1,-3,-4,-2,2,-2,-2
1511885078445435,2,-1,1,0,1,0,0,0
1511885078446441,-1,-1,-4,-6,2,2,-3,-1
1511885078446441,-1,1,0,4,1,-4,0,0
1511885078458499,-1,1,3,-2,-4,1,3,-1
1511885078458499,1,-2,1,2,0,-1,-1,0
1511885078467589,0,2,0,0,-4,5,-2,2
1511885078467589,1,2,-1,-2,1,-1,-2,0
1511885078481624,0,-1,1,-1,-4,-5,0,-1
1511885078481624,-4,1,-1,-2,1,-1,0,-2
1511885078488645,0,-3,4,1,-4,-6,-3,-1
1511885078488645,1,1,1,-1,-1,-1,2,1
1511885078504689,0,-2,2,-1,-4,4,-1,1
1511885078504689,2,0,0,3,-2,-4,-3,1
1511885078506691,0,-1,-1,-5,-7,-3,0,0
1511885078506691,0,-1,-2,0,3,2,-4,0
1511885078518836,-1,-2,-1,-2,-3,0,0,-1
1511885078518836,-1,1,0,0,1,-1,3,0
1511885078527775,-2,0,4,5,6,-1,1,-3
1511885078527775,1,-1,-7,-5,-2,0,0,0
1511885078541788,1,-3,-3,0,-1,-3,-3,-1
1511885078541788,0,-3,-2,-3,-4,2,-1,0
1511885078548809,-1,-1,0,11,8,-1,0,-1
1511885078548809,-1,3,-2,-2,-2,-3,-2,-3
1511885078563843,-3,2,-2,-4,-6,-2,0,-2
1511885078563843,-1,-1,-1,10,17,6,-2,2
1511885078570865,-1,-1,-5,-9,-5,-3,6,-3
1511885078570865,-1,-5,2,-3,2,4,-5,-2
1511885078578886,0,-4,-4,4,-1,-3,0,2
1511885078578886,1,-1,-1,-3,-5,0,3,1
1511885078587906,-1,-1,-2,-4,-2,3,-3,2
1511885078587906,-2,0,4,5,-2,-4,-1,0
1511885078602065,-1,1,-3,0,1,-4,0,-1
1511885078602065,-2,-4,-1,-1,-3,-1,-3,-1
1511885078608966,0,2,-1,-2,-1,1,0,-1
1511885078608966,-3,-2,0,-2,0,-5,2,0
1511885078624045,1,-2,0,1,4,2,-3,0
1511885078624045,0,0,1,0,-5,1,2,-2
1511885078631024,2,-2,0,-3,-3,-2,-2,-1
1511885078631024,1,0,-2,-3,-3,0,-6,-1
1511885078647112,-3,2,1,2,3,3,5,-2
1511885078647112,-3,-1,-2,-3,-6,-3,0,-2
1511885078649071,1,-2,-1,-2,-4,2,-1,1
1511885078649071,0,1,-1,-1,-4,-2,-2,0
1511885078662225,0,-3,-1,-2,2,-3,-2,-1
1511885078662225,-2,1,-2,-5,-4,-6,-3,-1
1511885078668220,2,-2,1,-1,-6,-2,-1,-1
1511885078668220,-2,-2,4,12,11,7,4,-2
1511885078684305,-1,2,-5,-2,-3,-1,-2,2
1511885078684305,-1,0,4,-1,-3,-2,-3,-1
1511885078691396,-4,-1,-1,-4,-4,0,-2,0
1511885078691396,-1,-4,-1,4,-1,2,0,1
1511885078707359,-1,-3,0,-2,6,-2,0,-2
1511885078707359,0,-2,2,0,-1,-3,-1,0
1511885078709330,-2,-2,-3,2,3,-4,-1,-1
1511885078709330,0,0,2,-4,-6,-3,0,1
1511885078722358,1,-1,0,1,0,1,-2,-2
1511885078722358,-2,-1,-1,-4,-2,-2,0,-3
1511885078728487,-2,0,-4,3,7,2,1,1
1511885078728487,-2,0,-3,-2,-4,-1,1,-2
1511885078744523,0,-1,3,-3,-11,-2,-3,0
1511885078744523,0,-2,-5,0,1,-1,0,0
1511885078751456,-3,-1,7,1,2,-4,-4,0
1511885078751456,-2,-2,1,-3,0,0,-2,-2
1511885078767519,-1,-2,3,-3,-1,3,3,-2
1511885078767519,2,0,-1,2,-4,0,0,0
1511885078768517,0,-2,-3,-4,1,-1,1,-1
1511885078768517,2,-1,1,-1,-3,2,-2,0
1511885078781575,-1,1,-3,3,1,-4,-1,0
1511885078781575,0,3,-1,1,-1,-2,1,-1
1511885078788561,-2,-1,-4,-2,-1,-3,-2,0
1511885078788561,0,0,-4,3,-6,0,-1,1
1511885078804803,2,2,1,-2,-2,-1,-2,1
1511885078804803,-1,-1,-1,-4,0,3,-1,1
1511885078810945,-2,-3,-1,4,-3,-4,-1,-1
1511885078810945,-3,-3,0,-8,-4,-1,0,-2
1511885078828033,-1,-1,0,0,0,-2,0,-1
1511885078828033,-3,-3,1,2,1,-3,0,1
1511885078828995,-1,2,-1,-2,-4,1,-3,0
1511885078828995,-1,1,-2,1,2,0,2,-1
1511885078842052,-2,-3,-4,0,1,1,-3,-1
1511885078842052,0,-2,-1,0,0,-3,-2,0
1511885078849052,1,-1,3,-1,-3,-1,-1,-1
1511885078849052,-1,0,-3,3,4,4,2,-1
1511885078864085,1,2,-1,-3,-1,1,2,-1
1511885078864085,-1,0,-3,3,2,-4,-2,-1
1511885078871108,2,-1,-2,-6,-5,-1,-5,-1
1511885078871108,1,3,5,1,2,-2,0,1
1511885078887272,-4,-2,3,-2,-4,2,-1,1
1511885078887272,0,-3,-4,-1,2,3,-1,0
1511885078889152,0,1,0,-2,-3,-4,-2,-1
1511885078889152,2,-2,-1,-2,0,-1,1,-1
1511885078902254,0,-2,-8,-4,-1,2,0,-1
1511885078902254,-1,2,4,1,0,-3,-3,-1
1511885078908309,-3,0,-1,-1,-2,-2,2,-1
1511885078908309,1,-3,-4,-7,-2,-2,-5,0
1511885078924357,-1,-1,3,5,3,-1,2,0
1511885078924357,0,1,1,-8,-3,1,-2,-1
1511885078931264,-2,0,-3,10,14,4,3,-1
1511885078931264,-2,0,2,1,-4,-3,3,0
1511885078947308,1,0,3,1,-5,-2,-2,-1
1511885078947308,0,-2,0,0,1,1,1,-2
1511885078949312,2,2,3,-7,-2,-1,2,-2
1511885078949312,0,-1,-2,-6,-3,-3,-4,-1
1511885078962377,0,-2,-3,4,1,-1,-1,2
1511885078962377,-2,0,-3,-1,-3,-1,2,0
1511885078968366,1,0,-3,2,-4,-1,-2,-1
1511885078968366,-3,0,-2,-1,-4,-2,-2,-1
1511885078984409,0,0,-4,-5,4,-2,-3,-3
1511885078984409,1,0,0,10,2,3,-1,-1
1511885078991427,-1,-1,1,-7,-6,2,0,1
1511885078991427,-2,-2,-8,0,-1,-2,-1,-2
1511885079007650,-4,2,3,3,4,0,-1,-1
1511885079007650,-3,-2,-1,-2,9,-2,0,-3
1511885079009474,-3,-3,-2,3,-1,3,1,-1
1511885079009474,0,-2,1,-6,-2,0,3,-1
1511885079021508,-2,-2,-4,-3,-1,-3,-3,-1
1511885079021508,-1,5,-2,4,0,4,1,2
1511885079030532,3,1,-1,9,8,3,0,1
1511885079030532,1,-2,-3,-6,2,-2,1,-4
1511885079044569,-1,0,0,10,-5,-6,0,-1
1511885079044569,-3,-1,-3,-12,0,-1,-2,0
1511885079051588,-2,-1,-5,-3,2,-1,1,1
1511885079051588,1,0,1,6,4,0,0,1
1511885079067872,2,1,9,-1,1,2,0,-3
1511885079067872,-2,-1,-5,5,4,0,0,-1
1511885079068758,1,-1,1,-2,-5,-3,-1,-1
1511885079068758,0,-2,-8,5,1,-1,-2,1
1511885079080906,1,0,-2,-3,-6,2,1,0
1511885079080906,1,-4,1,-8,-5,-2,-1,-2
1511885079089814,-1,0,-1,4,-1,0,-1,-2
1511885079089814,2,-1,3,-8,-8,-1,-2,1
1511885079103894,-2,-3,-1,6,4,0,2,0
1511885079103894,1,-1,0,-13,-6,-2,-1,1
1511885079110960,-2,-6,-1,1,1,-1,1,-2
1511885079110960,1,-1,-5,2,1,0,-1,-1
1511885079127145,0,2,-1,-2,2,-2,0,-1
1511885079127145,0,-2,4,3,1,6,0,-1
1511885079129147,2,3,5,0,-8,-9,0,3
1511885079129147,0,-1,6,9,0,-2,-1,2
1511885079141375,-1,-1,-3,-5,0,-1,0,3
1511885079141375,1,-1,-4,-4,-3,-5,-1,-2
1511885079150203,-2,2,-1,2,4,2,-4,-2
1511885079150203,-2,0,-2,-4,-2,-2,-1,-2
1511885079164416,2,-1,0,-7,-4,1,1,1
1511885079164416,-3,0,2,8,0,-2,-2,0
1511885079171493,1,-2,-4,-12,-1,-1,-4,-2
1511885079171493,2,1,1,2,3,-2,-1,-1
1511885079187441,-4,-1,0,-10,-2,0,0,-1
1511885079187441,0,0,1,-8,0,0,-1,-1
1511885079189597,-4,1,-1,24,-1,2,1,-3
1511885079189597,0,1,0,-5,0,-2,0,-1
1511885079201477,2,-3,-3,-10,0,2,3,2
1511885079201477,6,1,0,-13,-5,-4,0,0
1511885079210505,-6,-1,-5,-12,3,0,-3,0
1511885079210505,0,-1,1,7,-4,0,1,1
1511885079224578,-3,1,0,7,-1,0,-6,-4
1511885079224578,-3,-3,1,-3,-2,-4,2,-1
1511885079231559,3,-1,1,-3,0,1,4,0
1511885079231559,-2,-2,0,6,-1,-3,-4,1
1511885079247738,1,1,-1,-2,-4,-2,-1,-4
1511885079247738,3,-1,2,8,1,1,0,2
1511885079248692,-1,1,0,-5,-3,-2,7,0
1511885079248692,-5,-2,0,-4,2,2,-28,-4
1511885079261765,2,-1,0,3,3,-3,37,1
1511885079261765,-3,1,0,5,0,-1,-1,-1
1511885079269773,2,0,-2,-1,-1,2,0,2
1511885079269773,-3,-1,0,-5,-1,-1,2,0
1511885079284790,-2,0,-1,9,-2,-4,-16,-4
1511885079284790,-4,-2,-1,-19,-2,3,-2,-2
1511885079290845,-1,-4,-3,6,-3,-4,-1,0
1511885079290845,-2,0,0,24,3,-1,3,-2
1511885079307874,1,0,-4,-18,-2,-3,-8,-1
1511885079307874,-1,0,-2,12,-1,0,4,-3
1511885079308852,-2,-2,-3,-12,1,3,-9,-2
1511885079308852,-1,0,-1,-4,-5,-2,7,0
1511885079320928,-1,-2,-2,7,3,3,-4,0
1511885079320928,-1,1,-10,-23,-9,-3,-1,3
1511885079329908,0,-3,-1,-1,1,1,1,0
1511885079329908,-1,2,-7,11,1,5,4,-1
1511885079343987,-3,2,11,10,-1,-2,-4,3
1511885079343987,2,-5,4,22,0,-1,-3,-2
1511885079350966,-1,-1,-9,-7,-2,3,-2,-1
1511885079350966,-2,-4,2,-12,-1,3,5,0
1511885079367008,0,-2,-1,-11,-5,0,-5,-1
1511885079367008,1,-1,-3,-6,12,3,3,0
1511885079369011,-1,-1,4,33,-7,-1,-3,-1
1511885079369011,-1,-2,-1,-58,3,2,1,-3
1511885079381166,0,1,-1,49,-1,-3,-1,-1
1511885079381166,-2,-2,-5,-10,-13,1,-4,0
1511885079390335,0,2,2,-20,-9,-4,-5,-2
1511885079390335,1,4,-2,-19,-1,0,3,-1
1511885079404504,-5,-7,-9,0,3,-1,-4,-3
1511885079404504,5,10,-11,4,-8,-6,1,2
1511885079411544,2,-8,3,5,-3,-1,1,1
1511885079411544,-5,6,16,-13,-4,-7,-3,-4
1511885079427680,4,0,-12,9,-10,-6,-1,5
1511885079427680,-1,-3,-1,11,10,4,0,-1
1511885079428572,1,3,4,9,1,1,0,-2
1511885079428572,5,-1,-12,11,-1,0,1,11
1511885079441607,-12,8,15,-9,2,4,-2,-12
1511885079441607,-2,-3,8,-2,2,-3,0,0
1511885079449810,-1,1,-4,-14,5,7,0,0
1511885079449810,4,-1,5,23,2,-2,1,-2
1511885079464769,-1,-4,-1,3,-2,-2,-2,2
1511885079464769,13,5,1,-2,-2,-1,-2,3
1511885079470789,-11,2,1,-7,1,-2,1,0
1511885079470789,-13,-4,-5,8,0,0,0,-3
1511885079486873,2,-7,-1,-8,0,-1,-4,-1
1511885079486873,-6,-3,3,-7,2,-2,-3,-2
1511885079493873,10,4,0,-2,4,-3,0,-1
1511885079493873,-1,-4,4,8,-2,0,-1,1
1511885079500871,5,7,13,-12,-3,1,1,0
1511885079500871,-1,-7,-15,12,4,5,2,4
1511885079509891,4,4,5,-6,-3,-2,-1,2
1511885079509891,-5,-2,-6,5,0,0,1,-8
1511885079523930,0,2,14,-6,0,2,2,0
1511885079523930,-4,1,7,5,-3,-1,-3,-4
1511885079531137,4,-1,-6,-2,1,-1,-3,1
1511885079531137,-4,-4,2,-2,-1,-1,-1,-5
1511885079547171,3,0,-9,-4,2,-1,0,2
1511885079547171,-4,0,6,-8,0,-5,0,-1
1511885079554008,-5,-4,-3,16,3,3,-1,-4
1511885079554008,6,-2,-3,-10,-6,-3,1,1
1511885079561220,-4,-8,-12,-6,2,-2,-1,3
1511885079561220,4,3,2,5,1,-2,2,0
1511885079570049,-1,-6,-5,-10,2,-2,1,2
1511885079570049,4,3,-8,5,0,0,0,3
1511885079584087,0,1,-1,1,0,0,2,-1
1511885079584087,-3,3,1,-5,-2,2,-1,0
1511885079591294,1,-2,-3,-2,-3,-2,0,-3
1511885079591294,0,-1,-1,3,0,-1,0,0
1511885079607308,-4,-2,3,-3,2,0,-4,-2
1511885079607308,-5,-2,-2,7,1,-1,0,-2
1511885079613407,-5,3,4,1,0,0,-1,-2
1511885079613407,2,0,-3,0,0,-2,-2,2
1511885079629536,-1,-1,-2,-5,-2,0,0,-3
1511885079629536,-3,-3,0,3,0,-1,-2,-2
1511885079631360,1,-2,0,-2,3,-2,1,-1
1511885079631360,-4,5,-3,-4,1,2,-2,1
1511885079644572,2,-1,3,-1,-2,-3,-1,1
1511885079644572,-1,0,-6,1,-3,-1,-1,-3
1511885079651440,-2,2,8,-2,-4,-3,2,-1
1511885079651440,-1,-6,1,4,2,3,-2,-1
1511885079666547,-2,1,-4,-1,1,0,1,-4
1511885079666547,-4,-2,2,-1,-2,-1,-4,-2
1511885079673546,-2,-4,-2,-1,1,0,-2,2
1511885079673546,-3,1,3,1,-3,-1,0,-2
1511885079689607,1,-2,-3,-3,0,-2,0,1
1511885079689607,0,-4,6,-3,0,0,-1,-4
1511885079691520,-1,0,-7,-3,-5,-4,-4,-2
1511885079691520,1,2,-5,0,1,0,1,0
1511885079703785,-1,1,-3,-3,-2,3,-2,-1
1511885079703785,0,-2,-1,-1,0,-3,-2,0
1511885079712694,0,-1,0,-3,-2,-2,-1,1
1511885079712694,0,-1,-5,0,-3,-2,0,-3
1511885079726935,0,-1,2,-1,1,0,-3,-1
1511885079726935,-3,1,0,0,-1,1,-2,-1
1511885079733753,1,0,3,-2,1,-1,-1,0
1511885079733753,3,0,3,-1,1,-2,0,0
1511885079749795,1,-2,-2,1,-1,-1,5,1
1511885079749795,1,-6,-4,-2,0,-1,2,0
1511885079751800,-2,0,-1,-2,1,0,-1,-2
1511885079751800,1,-1,4,-1,-3,-1,1,-2
1511885079763945,0,1,-4,1,3,1,0,-1
1511885079763945,-1,1,0,-1,2,-4,-2,0
1511885079772884,-3,-1,-5,1,0,5,1,-1
1511885079772884,0,-2,2,-8,-2,-1,-4,0
1511885079786894,0,0,-4,6,-6,-4,-2,0
1511885079786894,2,0,0,3,-8,-3,2,2
1511885079794154,-2,-1,1,-3,-2,2,0,-2
1511885079794154,-2,0,-2,0,-1,-3,2,0
1511885079810234,1,-1,-1,-2,-1,2,-2,1
1511885079810234,0,1,0,-8,-7,0,-7,-2
1511885079811227,2,2,1,8,5,1,1,-2
1511885079811227,0,1,0,-6,-1,-6,-5,-1
1511885079823272,0,-8,-3,1,0,0,2,0
1511885079823272,2,3,2,5,-1,0,1,0
1511885079832180,-3,-4,-3,-7,-1,-3,-1,-2
1511885079832180,-2,-2,-2,6,2,5,-1,-3
1511885079847264,4,4,4,-2,1,-3,-5,-1
1511885079847264,-3,1,6,-2,2,0,1,-3
1511885079853233,1,-2,-8,-3,-4,-2,3,-2
1511885079853233,-2,2,6,5,2,2,0,-3
1511885079870278,1,1,-2,-9,4,-4,0,0
1511885079870278,-1,-1,-8,-1,-3,0,1,1
1511885079871280,-2,-1,0,-1,-1,-1,-3,0
1511885079871280,1,0,2,8,3,0,-1,0
1511885079883488,-2,-1,1,0,-2,1,6,0
1511885079883488,-4,-1,1,-17,7,0,1,-6
1511885079892339,0,-2,4,18,-8,-1,-2,3
1511885079892339,4,-1,-6,2,0,0,-1,2
1511885079906447,-1,-2,-2,12,1,0,-2,-2
1511885079906447,-1,-1,2,-3,-2,0,1,-2
1511885079913446,-3,-1,-7,-10,-3,-2,-2,-2
1511885079913446,-1,-1,1,-1,-5,0,0,-1
1511885079930456,-3,-2,-9,-24,-5,3,-2,-4
1511885079930456,-1,-2,-2,28,6,-1,0,-2
1511885079931441,-1,-1,6,-8,1,0,-3,0
1511885079931441,-2,-4,1,-7,0,-4,-1,1
1511885079943472,-4,-3,1,1,6,3,-3,-3
1511885079943472,-1,-2,-6,13,-4,-3,-1,0
1511885079952496,-2,1,4,-6,-7,-1,-1,-2
1511885079952496,1,-1,-4,0,-7,-2,0,-1
1511885079966534,-1,1,-2,-7,0,-1,0,-1
1511885079966534,1,0,0,-1,7,4,-3,0
1511885079973555,2,0,-2,2,-5,-6,-2,-1
1511885079973555,-3,-2,5,3,12,3,2,0
1511885079989830,0,0,-4,-5,-1,2,-3,-1
1511885079989830,-4,2,3,12,7,0,0,-1
1511885079991633,0,-6,-14,-3,1,-2,2,1
1511885079991633,-2,1,-1,-9,-5,-2,-1,-4
1511885080003737,-1,0,-4,-7,-1,-2,-1,1
1511885080003737,0,-1,1,-5,-4,1,2,-1
1511885080012690,-2,-5,-2,9,-2,-1,-1,-2
1511885080012690,2,1,1,-7,-3,-2,-1,-3
1511885080026770,1,-1,5,32,-4,-2,0,0
1511885080026770,-1,2,-1,-19,-7,1,0,0
1511885080033749,-2,-1,1,8,1,-1,-1,-2
1511885080033749,-3,-1,-2,11,6,2,1,-1
1511885080049791,3,2,-1,-7,-7,-4,1,-1
1511885080049791,1,-2,-3,-3,-7,-2,-1,2
1511885080051795,1,3,6,-4,3,-1,-3,0
1511885080051795,-3,0,-3,-11,-5,-1,-3,0
1511885080064002,0,-4,3,-2,-7,-2,-4,-1
1511885080064002,2,3,7,4,1,-2,-1,0
1511885080072848,-2,0,-11,1,2,4,3,0
1511885080072848,0,2,4,-10,-5,-1,-2,-1
1511885080086888,-3,-2,-9,2,6,-1,3,2
1511885080086888,-1,-2,-2,-5,-4,-4,1,-3
1511885080093907,-1,0,5,-4,2,0,-1,-2
1511885080093907,-2,2,-5,19,-1,0,0,0
1511885080110134,0,-2,9,5,3,-1,-2,-1
1511885080110134,-1,-1,-1,0,1,4,0,-2
1511885080111990,1,3,-2,8,0,-2,1,1
1511885080111990,1,1,3,-6,-3,-2,2,0
1511885080124110,-3,-2,-3,-3,-1,-3,-1,-2
1511885080124110,2,-2,-7,0,-1,-1,-3,1
1511885080132005,-1,0,3,-10,-1,2,-1,-3
1511885080132005,-2,-2,-3,1,1,2,1,0
1511885080147045,-4,2,3,0,-2,-3,0,-2
1511885080147045,3,1,-4,-4,-1,0,-2,0
1511885080154063,-1,-1,4,-2,2,1,-1,-1
1511885080154063,-1,-6,-10,1,-2,1,-1,-2
1511885080170109,-1,1,2,-3,1,-4,0,1
1511885080170109,-3,-5,-3,0,0,-1,0,-2
1511885080171274,-4,-2,2,-5,-2,1,-2,-4
1511885080171274,1,0,-1,1,-1,-2,0,0
1511885080183286,-2,2,-4,0,2,1,1,1
1511885080183286,-3,3,5,-2,-1,-2,0,-2
1511885080192312,0,-2,-5,-1,-1,-3,0,3
1511885080192312,-2,0,-2,-2,1,-1,-1,1
1511885080207376,1,1,0,-6,-2,2,-1,0
1511885080207376,0,0,-3,0,0,-5,-1,1
1511885080213442,-1,5,-2,-1,2,-1,2,0
1511885080213442,0,-2,0,-2,0,1,-2,-3
1511885080230441,0,0,2,0,1,2,-3,-3
1511885080230441,-1,-2,-4,-1,0,-1,0,1
1511885080231410,0,-3,-2,1,0,0,-2,-1
1511885080231410,1,0,1,-1,-2,-3,0,-1
1511885080243617,-1,2,-5,0,1,1,0,-3
1511885080243617,-1,-2,1,3,0,2,-1,-1
1511885080252466,-1,0,9,2,1,-3,-1,-1
1511885080252466,-2,0,-17,-7,-1,2,-3,-2
1511885080266599,2,-3,14,1,-3,0,0,0
1511885080266599,-1,2,-4,-2,-2,-1,-2,-1
1511885080273583,-1,-4,2,2,-2,1,-1,-2
1511885080273583,0,5,2,1,-2,-1,1,0
1511885080289568,1,-5,-1,0,1,-1,0,3
1511885080289568,-1,0,0,-2,-1,1,0,-1
1511885080291570,0,0,4,-2,0,-2,0,-1
1511885080291570,-1,-2,-3,0,4,-2,1,0
1511885080303606,2,-2,-1,-3,0,1,-1,0
1511885080303606,4,-2,1,-3,-3,-5,1,3
1511885080312628,-1,-2,-3,-1,0,-1,-1,-2
1511885080312628,0,0,2,2,-2,-1,0,2
1511885080326668,-2,-1,2,2,-1,-2,-3,1
1511885080326668,-1,1,0,1,3,-2,1,-3
1511885080333686,0,0,-7,-4,-2,2,1,0
1511885080333686,0,-2,2,1,-1,-2,1,-1
1511885080349725,-3,2,2,0,-1,-2,0,-4
1511885080349725,1,-4,1,-2,1,-4,-4,-2
1511885080351734,0,-2,-6,0,-1,-1,1,1
1511885080351734,-1,0,6,1,1,2,0,-2
1511885080363807,1,0,-2,1,-2,0,-2,-2
1511885080363807,0,1,-8,-4,-1,-5,-3,0
1511885080372787,0,1,-3,0,-1,1,-2,1
1511885080372787,-3,0,1,3,1,-2,0,0
1511885080386823,1,-2,1,3,2,1,-1,-4
1511885080386823,-2,0,-2,-2,-1,0,1,-3
1511885080393842,0,-3,4,-2,-2,7,0,2
1511885080393842,-1,-1,-2,-2,1,-4,-2,-2
1511885080408883,-2,0,-6,-4,-1,-4,1,2
1511885080408883,0,1,2,-2,-1,5,-1,-1
1511885080415904,1,1,-3,-3,-1,-7,0,0
1511885080415904,0,-2,3,-1,2,1,0,-1
1511885080423927,-1,1,-3,2,1,-1,2,2
1511885080423927,0,-3,3,-2,-3,2,-3,2
1511885080432950,1,3,1,-1,-2,-6,-1,-1
1511885080432950,0,-2,0,2,1,-3,-2,1
1511885080447095,1,-1,-3,-3,-5,-2,3,-1
1511885080447095,-2,0,1,1,1,-2,-2,0
1511885080454038,0,-2,-2,1,0,-4,-12,-4
1511885080454038,0,-2,-2,1,-6,-5,18,-1
1511885080469046,-4,0,-4,-3,1,9,13,-1
1511885080469046,-3,1,1,-1,0,1,16,-1
1511885080476065,-2,2,-2,-2,-4,-4,-6,-1
1511885080476065,-2,-1,2,7,1,1,-11,0
1511885080484085,-2,0,1,-1,-3,-1,-11,0
1511885080484085,-1,2,0,0,4,-2,1,-3
1511885080492104,-4,-1,-2,-3,-2,0,5,-2
1511885080492104,2,1,-4,-4,2,-1,-8,-2
1511885080507171,-1,-1,4,-1,0,1,0,-2
1511885080507171,-3,0,2,8,9,3,-2,-1
1511885080513203,1,0,0,-2,2,-2,-1,0
1511885080513203,-3,-3,-6,-4,-2,1,-1,0
1511885080529312,1,0,5,-9,-11,-3,-2,-2
1511885080529312,-1,1,-14,9,3,-3,-4,-1
1511885080536346,0,-1,5,-7,-15,1,3,0
1511885080536346,0,-5,0,7,1,1,8,0
1511885080552268,0,0,-7,1,6,-6,-5,-2
1511885080552268,-1,0,12,-5,-6,1,-7,-2
1511885080554269,-4,-7,-12,-3,1,-3,4,-1
1511885080554269,-5,1,-2,-5,3,1,-5,-3
1511885080566304,-1,1,5,-1,-8,1,-3,1
1511885080566304,2,-2,-23,-2,1,-2,-1,0
1511885080573449,0,-2,2,9,4,1,0,1
1511885080573449,2,1,1,-12,-6,-4,-1,2
1511885080589467,-3,-2,-2,9,14,4,-5,-1
1511885080589467,-1,1,2,-6,-8,-1,-1,-2
1511885080596498,-1,0,5,4,5,0,-3,-1
1511885080596498,1,0,-2,-1,-4,3,0,-1
1511885080612612,1,0,3,1,-3,0,-1,0
1511885080612612,-1,-5,-1,-6,2,1,0,1
1511885080614458,2,1,-6,-1,-2,-3,1,1
1511885080614458,-1,1,10,2,-3,-1,-8,-5
1511885080626467,2,-2,-11,-3,-4,-3,3,-1
1511885080626467,2,0,9,0,-1,-3,1,-2
1511885080635489,1,1,0,2,-3,1,-2,-2
1511885080635489,-2,2,2,0,3,4,-2,-2
1511885080649728,1,1,-1,0,-4,-2,-2,-3
1511885080649728,-3,0,3,-3,-4,-2,-3,0
1511885080656541,-1,-2,2,6,0,4,1,0
1511885080656541,1,-2,-6,-5,-7,-6,-2,0
1511885080672587,2,-1,-2,-2,1,-1,0,1
1511885080672587,1,-4,2,3,2,2,1,-2
1511885080673590,-3,0,3,-3,-1,-7,-2,0
1511885080673590,-2,2,-4,-2,-1,9,2,2
1511885080685621,-1,-6,0,-1,4,-7,-1,0
1511885080685621,-1,1,2,0,-4,-5,-5,-2
1511885080694835,-2,-2,-1,-3,2,-1,2,-3
1511885080694835,0,-2,-3,5,1,-2,1,0
1511885080709753,0,2,-2,-2,-2,0,-1,1
1511885080709753,-1,0,3,3,0,0,1,1
1511885080715775,0,2,-2,-1,1,-1,1,-4
1511885080715775,-3,0,0,-1,1,1,-2,0
1511885080732871,0,-2,-6,-1,-3,-3,1,0
1511885080732871,0,-2,-2,0,2,1,-2,0
1511885080733874,-1,1,1,-1,-2,-1,-3,-1
1511885080733874,-1,-1,-4,-1,-3,-2,0,-1
1511885080745927,-1,1,0,-7,-6,1,-2,1
1511885080745927,-1,-1,1,-1,-5,-3,0,-3
1511885080754926,3,1,0,3,-1,0,2,4
1511885080754926,1,2,-2,-4,2,-2,2,-2
1511885080769138,-4,-2,0,0,0,1,-3,-2
1511885080769138,3,-3,0,-5,-4,0,0,-1
1511885080776155,0,0,-3,0,2,2,-1,0
1511885080776155,2,-1,-2,-4,-5,-3,-1,0
1511885080792319,-1,0,0,2,-3,-1,-4,-1
1511885080792319,-2,2,2,-1,-5,-2,-3,-2
1511885080794324,0,-1,1,1,2,1,0,-3
1511885080794324,-2,-3,-2,-2,3,-2,2,0
1511885080806359,2,3,3,-1,7,4,0,-2
1511885080806359,-1,-2,-5,3,-3,-3,-3,1
1511885080815500,1,1,2,0,0,-2,2,2
1511885080815500,-1,-2,0,2,-3,-1,-2,1
1511885080829711,-1,-6,0,-2,-4,-3,1,0
1511885080829711,-1,1,7,4,6,1,2,-1
1511885080836552,-1,2,-8,-7,-4,6,1,-2
1511885080836552,1,-1,7,5,3,2,-3,-2
1511885080852598,-3,-2,-2,0,-1,1,0,0
1511885080852598,1,0,-3,-1,-1,2,-1,2
1511885080853602,-1,-2,-1,-5,-1,-4,0,0
1511885080853602,0,2,2,4,3,3,-2,-1
1511885080865643,3,2,-2,0,-1,-5,-1,-2
1511885080865643,-2,0,0,-3,1,-1,0,0
1511885080874850,-1,-2,-1,0,-2,0,-4,-1
1511885080874850,1,-3,4,2,1,-2,-1,0
1511885080889088,-3,0,-2,1,-6,1,1,0
1511885080889088,0,3,-1,1,1,1,3,1
1511885080895898,-1,-4,0,-3,-3,-5,0,-3
1511885080895898,-2,1,-4,-5,3,2,-1,-2
1511885080911941,1,-2,2,2,0,-1,-5,0
1511885080911941,-2,0,-1,-3,-1,-1,3,-1
1511885080913946,0,1,4,-1,-3,0,-3,2
1511885080913946,1,-1,-2,3,2,0,-1,1
1511885080926981,0,1,-1,1,-2,1,3,0
1511885080926981,1,-2,-4,-5,0,-2,-1,0
1511885080934003,-2,-1,2,2,0,-1,0,-2
1511885080934003,-1,0,-1,-3,-3,1,-1,-2
1511885080949039,-1,1,-4,-2,2,-4,0,-2
1511885080949039,2,2,-2,2,-3,0,-3,-1
1511885080956060,2,1,-2,1,-4,0,0,-1
1511885080956060,-2,-2,0,-2,1,-3,-1,-4
1511885080972268,-1,0,-1,-1,2,2,1,-1
1511885080972268,-3,-3,0,-1,-2,0,0,0
1511885080974270,0,0,-4,-3,1,-1,0,-2
1511885080974270,-1,2,-2,-1,-10,-2,1,1
1511885080986305,1,1,-1,6,4,-3,3,1
1511885080986305,1,-4,-1,2,2,3,0,-3
1511885080993323,0,1,-1,-2,0,-1,-1,-1
1511885080993323,-3,-1,0,-3,-1,1,1,-1
1511885081009517,-4,-1,0,-9,-6,1,-2,-1
1511885081009517,0,2,-4,1,4,-4,-1,0
1511885081016385,0,-2,-3,0,-2,2,0,1
1511885081016385,0,-3,3,0,-2,-4,-2,0
1511885081032429,-1,-3,-6,3,6,1,-1,-3
1511885081032429,-1,-2,2,1,-3,0,-2,0
1511885081034434,0,-2,0,0,4,-1,-8,-3
1511885081034434,-1,0,-2,-7,2,-3,2,1
1511885081046598,4,-1,0,3,1,-1,-2,-1
1511885081046598,-1,-1,1,-2,2,-3,-3,1
1511885081055487,-5,-1,-1,1,2,0,-3,-3
1511885081055487,2,-3,-2,0,-5,5,-1,-1
1511885081069561,-2,1,-2,-2,-3,-6,0,0
1511885081069561,-1,-1,-4,-2,-1,-3,-1,0
1511885081076552,-1,1,1,1,0,5,1,-2
1511885081076552,-1,0,-3,-1,0,-9,0,1
1511885081092594,-1,-4,0,2,4,4,1,-1
1511885081092594,2,2,-1,-3,-3,3,0,2
1511885081094595,-1,-2,-2,-3,1,-2,2,1
1511885081094595,-1,-1,-1,1,-3,-2,-7,-2
1511885081105657,2,1,-1,-3,-3,-2,9,0
1511885081105657,1,3,3,2,5,-2,-2,-1
1511885081114687,1,-2,-1,-1,-4,2,-1,-1
1511885081114687,-3,-4,-2,3,0,2,-2,1
1511885081129708,-3,0,4,-3,1,4,-1,-1
1511885081129708,1,3,2,-2,-7,-3,2,0
1511885081135704,2,2,2,2,-2,-1,2,0
1511885081135704,0,1,6,0,4,0,-4,-4
1511885081152840,0,-4,-9,0,1,-1,-3,-3
1511885081152840,-2,-3,-4,-1,1,-1,0,1
1511885081153840,-1,-1,-1,4,3,-3,0,-1
1511885081153840,0,0,-1,1,-3,-2,-1,1
1511885081165876,-1,0,2,-1,-1,0,-1,-1
1511885081165876,-1,-2,-4,-2,-1,1,-1,-2
1511885081175023,-2,-2,0,-6,-4,-5,-1,-1
1511885081175023,1,0,2,-9,1,1,-1,-4
1511885081189252,-1,-3,1,8,4,0,-1,-1
1511885081189252,-3,0,-1,1,-2,0,2,-4
1511885081196259,2,1,2,2,0,2,-1,0
1511885081196259,1,0,0,0,4,0,-1,0
1511885081212250,-1,0,0,-4,-5,-1,0,-2
1511885081212250,-2,-1,-1,-4,-3,-2,-3,-1
1511885081214135,-2,2,-3,0,3,2,0,-2
1511885081214135,-1,3,-1,2,-4,1,1,0
1511885081234424,1,0,0,-4,-2,-4,-5,1
1511885081234424,-1,-1,0,0,2,-1,-2,-2
1511885081235420,0,-2,-1,-3,-2,-2,3,-1
1511885081235420,-3,-4,-5,1,-1,2,-1,-3
1511885081250355,3,3,-1,-1,-6,-5,-1,1
1511885081250355,0,-1,1,-6,-3,1,-1,0
1511885081256370,-4,-3,-3,2,0,2,-1,0
1511885081256370,1,0,-3,-1,-3,-4,1,-3
1511885081271411,-2,-1,-1,0,-1,-3,-3,-1
1511885081271411,0,-2,-2,-2,-3,1,-1,0
1511885081272410,-1,-2,-1,-2,-2,4,-2,0
1511885081272410,3,-2,3,-5,-3,-3,1,0
1511885081294735,-1,1,-1,2,1,3,1,1
1511885081294735,-1,0,-2,0,1,-1,-1,-1
1511885081294735,-1,-3,-1,0,-2,3,1,-2
1511885081294735,-2,-3,-2,8,3,0,-4,-1
1511885081309847,-1,-1,1,-6,-1,-6,-8,-1
1511885081309847,-1,-1,-1,-2,-3,-3,2,1
1511885081315762,0,-2,-2,2,-1,-3,1,-2
1511885081315762,1,1,2,-3,-9,-2,0,-1
1511885081331804,-1,-4,-1,-2,-2,3,-2,-2
1511885081331804,-1,2,3,1,-2,-4,-1,-3
1511885081332799,-2,-1,-2,-3,0,3,0,-1
1511885081332799,0,1,-2,0,1,-1,-2,3
1511885081353855,0,-2,-2,1,-3,-3,1,1
1511885081353855,1,-1,0,-3,-3,0,0,-2
1511885081354855,0,2,-2,-2,2,-5,-1,-2
1511885081354855,-1,-3,-3,5,2,4,0,1
1511885081369931,-3,-2,5,0,1,1,2,-1
1511885081369931,0,-2,-5,1,1,2,-2,-2
1511885081375952,-1,2,-5,-3,-1,-4,-2,-2
1511885081375952,-1,0,1,0,4,0,-6,-1
1511885081391041,-1,0,-3,0,0,0,3,0
1511885081391041,0,0,-3,2,0,-2,-2,-1
1511885081399012,0,-1,-2,-5,-2,-4,0,0
1511885081399012,-1,-5,-3,-4,-2,5,1,1
1511885081414344,-1,3,0,0,-4,-1,1,-1
1511885081414344,1,-5,0,0,0,-2,-2,2
1511885081415350,-1,-1,2,-3,-2,-1,0,1
1511885081415350,-2,3,0,4,-1,-2,1,-3
1511885081430415,2,0,-2,-2,2,0,-1,-1
1511885081430415,-4,0,-3,2,0,1,-1,1
1511885081436405,-1,0,3,2,3,-3,-3,-1
1511885081436405,-1,-2,0,-1,-3,-1,4,-2
1511885081451445,0,-1,-1,0,-3,2,-2,0
1511885081451445,-1,2,0,-2,0,-3,-3,-2
1511885081458516,-1,-1,-1,1,-1,0,-5,0
1511885081458516,1,-3,0,-3,-1,-4,0,-1
1511885081474598,-1,-1,-1,0,3,2,-1,1
1511885081474598,1,1,1,1,0,0,1,-1
1511885081474598,2,0,-1,3,0,1,-2,1
1511885081474598,-6,-4,-1,-5,-1,-2,-1,-1
1511885081489637,-1,2,5,2,7,-2,-3,0
1511885081489637,-1,-4,-4,-2,-4,-3,-1,-2
1511885081495654,-3,-2,2,1,3,5,3,-1
1511885081495654,2,-3,-1,-3,-3,0,0,-2
1511885081511721,-3,-5,-1,-5,-4,0,-2,-1
1511885081511721,2,0,4,1,2,3,-2,0
1511885081518972,-2,3,-3,0,4,3,-1,-1
1511885081518972,-1,0,0,0,-4,-2,-1,-1
1511885081533991,-1,-3,-1,0,-2,1,1,0
1511885081533991,-5,-4,0,0,0,3,2,0
1511885081534990,1,-5,-3,-1,-3,0,0,-2
1511885081534990,2,5,-1,1,0,1,2,-1
1511885081550036,-2,-1,-1,-4,-2,-4,-1,-2
1511885081550036,-3,-3,-2,3,1,0,-3,-3
1511885081556171,1,0,2,-1,-3,-3,1,3
1511885081556171,-2,-2,-4,0,-2,1,6,-2
1511885081571249,-1,2,1,-1,-4,-3,-2,-1
1511885081571249,-2,0,-1,0,4,1,3,-3
1511885081578268,-2,-5,5,-1,-4,1,1,-2
1511885081578268,-1,0,-1,3,6,2,-4,3
1511885081594545,0,-1,0,-2,-2,1,1,1
1511885081594545,-5,0,3,0,1,-5,2,0
1511885081594545,-1,-1,-7,-1,-2,2,-2,-4
1511885081594545,-2,-3,3,-1,0,-3,-2,-2
1511885081609683,-1,-2,1,-2,0,5,-1,0
1511885081609683,0,-2,-1,0,-5,-3,-6,0
1511885081615646,-3,1,-2,-1,5,0,-2,0
1511885081615646,-2,1,2,-1,-7,-2,1,0
1511885081630755,1,-3,-3,4,8,-1,0,1
1511885081630755,-1,2,3,0,-4,0,1,-1
1511885081638834,-3,-1,0,-3,-3,0,-5,0
1511885081638834,1,-3,1,-2,1,1,3,-1
1511885081653818,-1,0,-2,2,7,-2,1,0
1511885081653818,1,-1,2,-1,-5,1,0,-2
1511885081654817,2,-1,-3,1,-3,-3,-1,2
1511885081654817,-2,2,1,-1,1,3,-6,0
1511885081669856,-1,-6,-5,-2,-3,-2,2,-3
1511885081669856,0,-1,1,-4,-2,-4,-2,-1
1511885081675874,-1,0,1,-4,-4,3,3,-2
1511885081675874,-1,0,-1,-2,5,1,-1,1
1511885081691109,-1,-2,2,2,-2,-2,0,-3
1511885081691109,-2,2,-6,1,4,1,-4,0
1511885081698967,-2,-3,2,0,-1,-3,-2,0
1511885081698967,-1,-2,-5,0,0,-1,-2,2
1511885081714281,-2,3,1,-2,-5,1,-3,-1
1511885081714281,2,-4,-5,-1,3,-4,1,0
1511885081715288,-3,0,4,3,4,-2,-1,0
1511885081715288,-2,2,-2,-1,-3,2,1,-3
1511885081730324,1,2,-6,-6,-7,-5,-2,2
1511885081730324,-2,-1,-5,-3,-6,4,2,-4
1511885081736343,0,0,1,7,12,2,-3,-3
1511885081736343,3,-3,-1,-4,-2,-1,-3,-1
1511885081751524,0,-1,2,-1,-3,1,-1,-1
1511885081751524,1,-2,0,1,2,4,2,-1
1511885081758537,-3,-4,0,-4,-7,-4,0,1
1511885081758537,-1,-2,1,-1,2,-5,-2,-2
1511885081774796,2,0,-3,6,4,2,1,0
1511885081774796,-1,0,0,-4,-3,1,-3,-1
1511885081774796,0,-3,-3,-2,-5,-1,1,-3
1511885081774796,-1,0,-1,-2,0,-4,-1,-1
1511885081789762,0,-2,1,3,-1,3,2,0
1511885081789762,0,1,-2,-1,-1,-6,-3,-1
1511885081795811,-1,4,-4,-1,2,0,1,-1
1511885081795811,2,-2,-2,-10,-8,1,1,-2
1511885081810732,-3,0,0,6,6,1,-4,-3
1511885081810732,3,0,-4,2,1,2,2,2
1511885081818751,2,0,1,-7,-6,-3,-2,1
1511885081818751,-2,0,-3,3,-1,-2,-1,-2
1511885081833791,0,1,-3,-2,-6,0,-1,-1
1511885081833791,-5,-2,1,0,-1,-5,0,-1
1511885081834790,0,-1,-2,1,-5,-1,-1,1
1511885081834790,-4,0,1,1,-3,-1,0,-2
1511885081849830,5,-2,-2,-6,-4,-6,1,-2
1511885081849830,-1,-1,0,-3,-1,4,1,-2
1511885081855849,1,-3,1,0,-2,-1,1,1
1511885081855849,-2,0,2,4,3,-1,-1,1
1511885081870890,0,0,-5,-2,-1,0,0,0
1511885081870890,0,1,2,-1,-1,1,-2,2
1511885081878911,-1,3,0,0,-1,-5,1,0
1511885081878911,0,0,-1,2,9,-2,0,0
1511885081894095,-2,-3,5,2,-1,2,0,-2
1511885081894095,0,-2,-1,-4,-8,-3,-2,2
1511885081895095,-1,0,-3,-5,0,3,-3,-3
1511885081895095,1,2,0,0,-3,-3,-2,2
1511885081910135,-2,-3,-3,-2,1,1,1,-2
1511885081910135,3,-1,0,-3,-1,-1,-2,-3
1511885081916391,-3,0,2,4,6,-4,-3,-2
1511885081916391,0,0,-3,-3,-5,3,-3,-2
1511885081931437,1,-2,1,-2,0,-5,-1,-1
1511885081931437,-1,-2,2,1,1,2,0,0
1511885081938353,2,-1,2,0,-1,1,0,1
1511885081938353,-1,0,-4,0,4,0,-2,-4
1511885081954396,-3,-1,2,-2,-1,1,-3,-3
1511885081954396,-4,-2,2,0,2,1,0,0
1511885081955399,-1,1,3,8,7,-1,0,-3
1511885081955399,-2,0,-1,-2,5,3,2,0
1511885081970438,-1,1,2,-1,-3,1,-1,-2
1511885081970438,-1,-4,-4,-2,-4,-1,2,-2
1511885081976477,-3,4,-2,-4,-1,0,-2,-4
1511885081976477,1,-4,0,-1,-4,2,2,0
1511885081991495,0,-2,-4,1,4,-1,1,0
1511885081991495,0,0,-1,3,-1,-2,-2,-2
1511885081998514,-1,-2,-4,-1,-2,1,1,1
1511885081998514,-1,-1,-1,1,-1,-1,-2,-1
1511885082014581,-1,-2,-2,-3,-1,0,-1,-2
1511885082014581,-2,1,-1,2,1,-1,-1,0
1511885082014581,2,-2,-2,2,-1,-2,0,0
1511885082014581,2,0,-2,-3,-5,-1,0,-2
1511885082036848,1,4,2,-3,-1,0,-2,3
1511885082036848,1,0,-2,1,-1,-2,-1,0
1511885082037811,-1,-2,-2,0,-1,-1,0,-3
1511885082037811,0,5,8,4,-1,-4,-1,2
1511885082052065,12,-2,-7,0,1,-5,-12,-6
1511885082052065,-13,-4,-4,-6,0,0,-14,0
1511885082059047,4,-1,-3,-1,-3,-3,17,6
1511885082059047,6,-2,2,-2,1,-10,-31,-2
1511885082074129,-4,-2,-1,3,0,4,36,3
1511885082074129,12,-3,2,-3,3,-6,-30,6
1511885082075108,-14,1,-2,-1,-2,5,11,-20
1511885082075108,13,-4,-8,-3,-1,1,-3,10
1511885082090125,23,7,-1,0,0,-10,-19,-11
1511885082090125,-38,-7,-2,3,1,6,19,-3
1511885082096183,-4,1,1,-1,-1,-4,-2,4
1511885082096183,5,1,-3,1,0,1,2,-5
1511885082111466,0,-1,0,-2,-1,2,-7,3
1511885082111466,11,3,-1,0,-4,2,8,3
1511885082118499,4,0,2,-3,-1,-1,-12,-2
1511885082118499,-10,-5,-2,1,-2,0,12,-3
1511885082134681,-11,-4,-4,0,2,-1,-7,1
1511885082134681,7,2,4,3,2,-3,5,-5
1511885082134681,-5,-2,-2,-1,-2,4,-3,3
1511885082134681,2,-2,1,-1,2,1,4,2
1511885082149718,-7,-2,-1,-1,-3,-1,-1,2
1511885082149718,4,1,-3,-3,-2,-1,3,-2
1511885082155929,9,-1,0,1,-1,-1,-2,1
1511885082155929,-11,0,2,-2,0,2,1,-4
1511885082171093,-6,1,0,-7,-8,-3,0,0
1511885082171093,2,0,-2,4,-1,-2,2,-1
1511885082178363,5,-5,3,-5,-9,-4,-5,6
1511885082178363,-6,1,0,-1,-2,0,4,-5
1511885082194571,-6,-1,-1,1,0,3,2,0
1511885082194571,6,-2,-1,-11,-11,-5,-2,-5
1511885082195470,-3,-1,-3,12,12,2,-2,0
1511885082195470,1,0,5,6,-9,-6,1,0
1511885082216529,-1,1,-3,-3,-5,-2,0,0
1511885082216529,2,-3,-8,-15,-4,2,-2,-2
1511885082217552,-3,-2,0,-7,0,5,-2,-4
1511885082217552,-3,1,1,13,4,4,1,-1
1511885082232568,-3,0,-7,-6,1,-1,0,1
1511885082232568,-2,0,4,6,13,3,2,0
1511885082238625,-2,0,-5,6,-1,0,-2,-2
1511885082238625,-2,-4,-2,3,2,2,6,-1
1511885082254627,2,-1,0,-9,-4,2,2,0
1511885082254627,2,1,6,5,2,1,-2,0
1511885082254627,4,3,-2,-5,-1,-2,2,1
1511885082254627,-3,-2,3,-5,-5,1,-2,1
1511885082276710,-2,-1,-6,7,-1,-3,0,-2
1511885082276710,2,-2,-2,-23,-7,-1,0,1
1511885082277691,-1,0,1,34,-4,-2,-2,0
1511885082277691,-3,0,-4,-12,5,-1,3,-1
1511885082292729,-4,0,-2,5,-1,0,-3,-2
1511885082292729,-2,-1,-1,-4,-3,-2,-2,-3
1511885082298785,-4,0,-1,5,1,-3,-1,1
1511885082298785,-5,-6,-10,2,0,2,-2,-2
1511885082313925,1,2,9,-7,4,3,-4,-2
1511885082313925,-1,2,3,41,4,2,1,0
1511885082320933,0,2,12,-38,-1,-2,-3,1
1511885082320933,-1,-5,-30,20,0,-3,0,-3
1511885082337152,0,-2,0,-1,-2,-2,1,2
1511885082337152,-1,2,7,2,-4,-1,0,-1
1511885082338031,1,0,9,7,-3,-1,-3,-1
1511885082338031,0,0,-8,-13,-4,-5,0,0
1511885082352275,-4,-2,0,-12,7,-3,0,-1
1511885082352275,0,6,10,45,0,-3,-2,-1
1511885082358416,0,-10,-17,-47,-7,-3,-2,0
1511885082358416,-2,-1,8,-13,-1,0,-1,2
1511885082373497,3,-1,4,11,-1,1,0,-3
1511885082373497,-25,-2,0,-11,-4,-5,2,-3
1511885082381515,12,0,-3,8,7,2,0,5
1511885082381515,-10,-1,8,-10,1,-1,0,-3
1511885082396667,-10,0,1,-8,-1,-1,-3,0
1511885082396667,14,0,-6,-19,1,2,6,2
1511885082397557,-15,-4,-6,20,-2,-6,-3,4
1511885082397557,2,0,3,-9,-3,1,-2,-2
1511885082412599,5,-5,-1,12,-3,0,0,-1
1511885082412599,-3,-1,-8,-9,4,-2,-3,0
1511885082418612,0,2,3,-3,2,0,-6,-5
1511885082418612,14,2,10,6,-4,0,16,8
1511885082433798,-3,1,-1,4,1,1,0,-11
1511885082433798,4,-9,-10,-22,-2,-2,-3,2
1511885082440817,0,1,2,17,-2,1,-5,-2
1511885082440817,0,2,6,2,1,-4,-4,-2
1511885082456982,3,3,-4,-6,-1,1,5,5
1511885082456982,4,-10,-21,2,2,-1,1,-1
1511885082457902,-3,0,19,-10,2,0,2,-4
1511885082457902,-1,0,-1,4,0,-3,-6,-2
1511885082472904,-1,1,1,0,-1,-2,1,2
1511885082472904,4,-1,-1,-7,-2,1,-4,-2
1511885082478919,-3,2,-11,0,2,-1,2,2
1511885082478919,2,-3,4,3,-1,-1,-6,-3
1511885082493959,-1,0,6,-8,-1,1,5,2
1511885082493959,-1,6,-5,4,0,-2,1,0
1511885082500977,1,-2,-4,2,-3,1,2,-3
1511885082500977,-6,1,1,-6,2,2,-5,-1
1511885082517158,0,-4,-3,4,3,0,-2,-4
1511885082517158,1,1,5,6,-3,1,-1,1
1511885082517158,-2,-2,0,-1,1,-1,7,-1
1511885082517158,-3,-1,-9,-1,-1,3,-6,-4
1511885082532195,4,-5,1,3,2,1,-3,7
1511885082532195,-4,0,1,-3,1,0,0,-4
1511885082538346,-14,-2,2,2,2,4,-7,-7
1511885082538346,2,1,-5,-4,-5,-1,2,0
1511885082553389,-12,-1,-2,0,-3,-1,8,0
1511885082553389,7,4,4,-2,3,0,-3,3
1511885082561604,5,1,-4,1,-4,1,13,1
1511885082561604,-1,3,-7,1,2,1,4,1
1511885082576448,-4,-1,-5,-3,-2,-4,-7,-4
1511885082576448,-5,-5,-1,0,2,-2,0,-3
1511885082577452,4,2,-1,-4,-2,-5,-5,-1
1511885082577452,1,-5,-8,2,2,1,-1,3
1511885082592494,3,3,12,-1,-2,-3,-2,2
1511885082592494,-1,0,-1,2,-1,2,-3,2
1511885082598507,3,-3,-1,-4,-5,-1,6,1
1511885082598507,-1,4,8,3,1,-3,-10,-3
1511885082613855,-1,2,-5,0,-1,-1,18,2
1511885082613855,-2,-3,-3,0,0,2,-5,-5
1511885082620783,-2,-1,7,-3,-1,1,-6,-3
1511885082620783,-2,2,1,2,-2,0,-4,1
1511885082636734,-5,-1,2,2,-2,-3,-9,-3
1511885082636734,3,4,-3,1,-5,-1,-14,-2
1511885082637906,3,-1,-4,-9,0,-3,1,3
1511885082637906,2,-1,3,2,2,5,-1,-4
1511885082652776,3,-2,-5,-2,-3,-3,-3,2
1511885082652776,-4,-1,3,-8,-1,-1,3,0
1511885082658788,-2,-1,-4,-5,-2,-3,-4,-1
1511885082658788,2,1,1,5,9,1,5,1
1511885082673395,5,-1,-4,-3,-3,-1,-11,0
1511885082673395,3,-4,4,0,1,-5,5,2
1511885082681385,-4,-3,0,3,5,2,-3,-1
1511885082681385,1,0,-8,2,-4,-7,-9,-2
1511885082696581,2,0,2,-5,-1,4,-4,-2
1511885082696581,-2,0,0,6,2,0,-2,-1
1511885082697486,2,1,-2,7,-5,-2,4,-2
1511885082697486,-6,-6,2,-7,0,-3,-5,0
1511885082712525,1,-2,-2,3,-4,-1,-1,-3
1511885082712525,1,-2,0,3,10,2,6,3
1511885082718539,2,5,4,4,-2,-6,-8,1
1511885082718539,4,-3,1,-11,-1,3,-63,0
1511885082733665,1,3,0,-2,0,-7,21,1
1511885082733665,-1,-3,1,-10,-7,0,-3,-1
1511885082740781,0,0,-1,17,7,3,4,-3
1511885082740781,1,5,7,-7,-6,-6,-5,3
1511885082756853,-1,-4,-4,-4,-3,5,-4,-1
1511885082756853,1,4,15,3,5,4,0,-1
1511885082757766,-2,-9,-29,-16,9,0,-1,-1
1511885082757766,0,-1,0,22,-16,0,25,-1
1511885082772785,0,2,-6,3,5,-1,-9,3
1511885082772785,-5,-2,7,-3,-5,-3,10,-5
1511885082778827,-3,1,-8,-12,-3,4,-5,0
1511885082778827,0,1,8,-1,6,1,15,-2
1511885082793844,-1,0,-2,-2,0,0,-21,-1
1511885082793844,2,1,-9,15,-5,-4,-2,-2
1511885082800843,2,-2,7,-3,-1,-6,4,1
1511885082800843,-5,0,1,0,-4,0,8,0
1511885082816971,0,1,-9,5,0,-2,-7,1
1511885082816971,-1,-2,7,-9,-3,-3,1,1
1511885082816971,0,3,13,-15,-3,4,-1,0
1511885082816971,-1,-8,-10,20,2,0,15,-2
1511885082833016,-2,1,0,-18,1,5,5,-3
1511885082833016,0,3,0,4,-5,5,-1,0
1511885082839033,-3,-6,-11,1,7,-1,1,0
1511885082839033,0,0,5,-5,6,0,-3,-2
1511885082854073,-3,-3,13,25,-8,-2,2,-2
1511885082854073,-3,1,-16,-20,-8,-2,-2,-4
1511885082861398,5,0,19,11,-5,-2,-4,0
1511885082861398,-4,-1,-17,-18,1,1,3,-3
1511885082877348,-5,-2,4,3,5,-1,0,-1
1511885082877348,1,0,-8,5,0,-1,0,-2
1511885082877348,-3,-6,2,2,-4,-1,0,-6
1511885082877348,0,1,8,-10,-4,-1,-1,0
1511885082892363,-6,4,16,0,2,3,3,0
1511885082892363,-1,-2,-22,0,2,3,-9,0
1511885082898376,-1,2,-1,-4,-2,2,-3,-4
1511885082898376,-2,-8,-5,-2,1,2,8,-1
1511885082913514,-4,-3,2,0,-3,4,-2,-1
1511885082913514,1,7,15,-6,3,-5,0,-2
1511885082921511,3,-4,-3,9,4,3,-3,5
1511885082921511,-6,-5,-18,4,-3,-4,0,-6
1511885082936482,1,-4,-15,-7,3,-4,1,-1
1511885082936482,-5,-6,-8,3,-2,0,-2,-2
1511885082937480,2,1,-1,-4,-2,-2,-1,2
1511885082937480,-7,4,12,-4,2,-1,-1,-4
1511885082952520,9,-2,-15,-1,1,-1,0,3
1511885082952520,-1,-7,7,1,2,2,3,1
1511885082958540,-8,-3,-7,-1,-2,-6,1,-3
1511885082958540,6,1,-2,-4,-1,1,-3,-1
1511885082975592,-1,7,6,2,0,-2,-4,-1
1511885082975592,8,-2,-4,-3,-1,-4,0,3
1511885082980597,-4,3,-7,1,-1,-4,-3,-2
1511885082980597,1,2,2,-2,1,-2,-3,2
1511885082996756,-2,1,-4,0,0,6,4,-6
1511885082996756,8,-1,2,3,-2,1,0,-1
1511885082997644,-3,8,13,1,0,3,-1,0
1511885082997644,6,-9,-26,-4,0,1,3,1
1511885083012686,-3,-2,-6,0,0,-4,2,3
1511885083012686,-3,-2,3,0,2,0,-4,1
1511885083018812,-3,3,1,3,-4,2,-1,-4
1511885083018812,1,-1,-6,-3,1,-1,0,1
1511885083033845,-3,-1,7,-3,1,0,-5,1
1511885083033845,-8,-3,1,0,0,-2,1,-3
1511885083040860,2,-2,-10,-6,-2,-2,-3,-2
1511885083040860,-2,6,10,23,-1,-1,2,0
1511885083056998,0,-4,-9,-9,-5,-3,-1,-2
1511885083056998,0,0,4,3,2,1,0,-1
1511885083056998,-3,-2,-4,0,-1,2,-6,-1
1511885083056998,-1,2,6,-8,-1,0,3,-2
1511885083073000,-1,-2,23,1,-4,-1,-2,-2
1511885083073000,-6,-4,-15,-4,-4,3,-4,0
1511885083079050,2,-1,-8,0,4,3,1,-1
1511885083079050,-4,4,30,2,-2,-1,0,-1
1511885083093054,1,-6,-19,1,-2,-1,-2,-2
1511885083093054,3,5,4,-4,0,1,-1,0
1511885083101079,1,1,-6,0,-3,1,-4,-1
1511885083101079,-5,-8,5,-2,-1,0,7,0
1511885083117118,1,0,4,3,3,0,1,-1
1511885083117118,-3,-1,-8,-2,1,-1,-2,0
1511885083117118,0,-7,12,0,-2,-3,0,-1
1511885083117118,-2,-1,-9,-5,2,4,-1,-1
1511885083132189,5,-3,-9,-2,-3,-1,-1,2
1511885083132189,-6,-2,7,1,-3,-3,1,-3
1511885083138204,3,1,-3,-2,0,-5,-2,2
1511885083138204,-1,-2,-6,-3,-1,-3,1,2
1511885083153263,0,1,-1,0,-1,2,-1,-2
1511885083153263,0,3,6,-2,1,0,-1,1
1511885083161284,-2,3,0,0,-1,0,11,-4
1511885083161284,-1,1,3,-2,1,1,-1,-1
1511885083177317,-2,1,3,1,3,-1,0,-2
1511885083177317,2,-2,-1,1,-3,-2,-1,-1
1511885083177317,0,0,3,1,-1,1,0,1
1511885083177317,2,-4,-5,1,-2,-2,-2,-3
1511885083192374,-3,2,0,-1,2,2,1,-1
1511885083192374,-5,0,3,-3,-1,-3,37,-2
1511885083198376,-1,-9,-9,0,-2,-2,-2,2
1511885083198376,2,3,2,-1,-6,-3,-3,2
1511885083213535,-5,0,-6,-3,3,1,7,0
1511885083213535,3,0,-5,0,1,-1,-7,2
1511885083221436,1,3,-4,-3,-2,-4,-2,-1
1511885083221436,1,0,0,-4,-1,2,1,-2
1511885083236480,-2,-5,7,-1,-7,-6,-4,2
1511885083236480,0,-1,-6,-1,2,0,19,-1
1511885083237478,1,-2,2,3,5,9,2,0
1511885083237478,-1,3,-7,-5,-3,-5,-8,-3
1511885083252519,-2,0,-4,2,-2,-1,0,2
1511885083252519,0,-2,-1,-1,-7,-6,-12,-3
1511885083258538,-2,-1,2,0,8,-2,-1,0
1511885083258538,-1,-3,6,-2,-3,-1,2,1
1511885083273696,-2,-2,-9,5,10,0,-3,-3
1511885083273696,-1,0,7,-1,-5,5,-11,1
1511885083281642,2,-1,3,-3,-1,-1,-1,-1
1511885083281642,0,1,0,4,5,-4,-9,-1
1511885083296677,-3,-2,-1,-5,-1,-2,5,-1
1511885083296677,-3,1,-2,-4,-1,3,-14,-2
1511885083303787,-5,-7,-6,-3,-7,-7,-3,-4
1511885083303787,1,1,3,-2,-1,6,4,-2
1511885083312718,0,4,-1,4,-3,0,-11,-2
1511885083312718,2,0,-6,7,12,2,5,0
1511885083318780,-3,1,2,3,-8,-3,1,3
1511885083318780,-1,-3,-3,-9,-7,-2,-2,-1
1511885083333743,3,1,1,3,2,3,-9,-2
1511885083333743,1,-2,1,5,5,0,-10,0
1511885083340882,0,-1,0,-3,-1,-3,5,-2
1511885083340882,-1,0,10,2,3,3,0,-1
1511885083355917,-1,-1,-7,-8,-3,-3,4,1
1511885083355917,-1,-1,0,-3,-8,-4,-5,1
1511885083363942,2,-4,-1,0,2,0,-6,1
1511885083363942,0,0,-3,0,0,-5,2,-1
1511885083378970,0,1,6,5,0,2,1,-2
1511885083378970,0,4,5,-1,6,0,-16,-2
1511885083379859,2,3,-2,8,8,-6,9,-2
1511885083379859,-1,0,-6,-13,-9,-5,-1,-1
1511885083393973,-2,-1,-9,2,1,6,2,-2
1511885083393973,1,-3,10,1,0,-6,-5,3
1511885083400975,-7,5,0,-8,-7,2,-5,-5
1511885083400975,-2,-3,-20,7,8,-1,1,-2
1511885083415999,0,-2,-1,-2,-3,1,-1,-3
1511885083415999,-1,1,1,12,20,-1,4,-3
1511885083424049,-3,1,11,-6,-7,0,-4,-1
1511885083424049,-2,-4,-6,2,-4,1,4,0
1511885083439060,0,-3,-2,-3,-8,-3,-1,2
1511885083439060,-1,1,16,-8,-9,1,1,-2
1511885083440059,-3,2,-2,5,12,3,-1,-1
1511885083440059,2,-4,-7,-3,-1,-1,-8,-1
1511885083453094,-1,-2,1,0,1,0,-7,-3
1511885083453094,0,0,-1,-2,-4,1,4,-2
1511885083461300,3,-5,-12,-4,-6,0,-2,1
1511885083461300,0,3,2,4,4,0,0,0
1511885083476535,-2,-11,7,-3,-1,-2,-2,-1
1511885083476535,-1,5,-13,-1,-5,1,1,-1
1511885083483583,-2,-4,1,-2,-2,1,-3,-3
1511885083483583,-3,-1,-5,6,-1,6,0,-2
1511885083499454,1,-2,3,1,4,-4,1,-1
1511885083499454,-2,-3,-3,-4,-3,1,-1,-2
1511885083500458,-1,0,-3,-1,1,1,-1,-4
1511885083500458,-2,3,10,1,2,1,-1,-1
1511885083513657,1,4,-1,-1,-2,-4,0,-1
1511885083513657,0,-4,-3,0,-2,4,-1,-2
1511885083521558,1,1,-2,2,-4,-1,1,1
1511885083521558,1,-1,1,-2,3,-4,-1,2
1511885083535551,0,4,0,-1,0,-2,2,3
1511885083535551,2,1,-2,-3,-7,-5,0,7
1511885083543754,5,0,0,0,3,0,3,3
1511885083543754,1,4,10,-1,-3,-4,3,-1
1511885083559636,-2,0,3,-2,0,-1,-2,-2
1511885083559636,-7,-1,-1,1,-3,2,-4,-7
1511885083559636,-4,-2,-5,1,-2,5,0,-3
1511885083559636,-5,0,1,1,0,-6,-6,-5
1511885083573845,-3,0,-4,4,4,11,-1,-6
1511885083573845,-2,-3,-5,-1,-4,-5,1,-2
1511885083580841,-2,1,3,7,9,0,-3,-2
1511885083580841,1,1,-1,1,2,1,-3,-1
1511885083596095,1,0,-2,-4,-2,-1,1,2
1511885083596095,1,0,-2,-3,0,-6,-1,1
1511885083604023,0,-5,-1,-6,-3,-2,0,4
1511885083604023,2,0,2,1,3,-3,3,0
1511885083619067,0,2,3,-3,0,-3,2,0
1511885083619067,0,1,1,2,-5,4,2,0
1511885083620065,2,-2,1,0,1,-1,-6,1
1511885083620065,0,-2,-3,0,0,-3,7,-4
1511885083633103,0,1,-1,-1,-3,-3,-2,-1
1511885083633103,-4,-3,-3,-3,0,0,-1,-2
1511885083641134,-2,-2,2,5,-1,-5,0,-1
1511885083641134,-1,-2,-1,-1,-3,4,-1,3
1511885083656376,2,1,-2,-1,1,3,2,-2
1511885083656376,0,-3,-3,-2,1,-2,1,-2
1511885083663493,0,1,1,1,-3,-4,-1,-1
1511885083663493,-1,-2,-2,-6,-2,5,-2,-1
1511885083679518,0,-1,-1,3,-2,-2,-1,-1
1511885083679518,1,-3,-3,-1,-1,-2,-2,0
1511885083680464,-1,1,-3,-2,-2,-4,1,-1
1511885083680464,-4,0,-1,0,-2,2,0,-1
1511885083693640,-1,0,2,-4,-1,0,-2,1
1511885083693640,0,1,-2,2,0,-3,0,1
1511885083701519,0,-3,-1,0,-2,1,2,2
1511885083701519,1,1,-2,-2,-1,-2,-1,-1
1511885083715535,-2,-1,-2,-1,1,-5,0,-4
1511885083715535,-2,-1,1,1,2,1,-4,-2
1511885083723620,1,1,3,-3,-1,-1,-1,-1
1511885083723620,-1,0,-4,-2,0,0,0,0
1511885083739622,1,-1,0,-1,0,-3,-4,2
1511885083739622,2,-1,-4,-2,-1,1,5,1
1511885083739622,-3,0,-2,0,-1,1,-3,-1
1511885083739622,0,-4,1,-1,-7,2,-4,-1
1511885083753677,-4,1,-2,-1,-1,-3,-2,1
1511885083753677,-2,-1,3,-1,-4,0,-4,0
1511885083760696,1,1,-4,-5,-3,-2,-3,-3
1511885083760696,1,0,10,3,-4,-5,-2,2
1511885083775694,-1,0,-2,0,0,-1,1,1
1511885083775694,0,0,-5,1,-3,0,0,-2
1511885083783837,-1,0,2,-2,-2,3,0,2
1511885083783837,-3,0,-6,-2,0,1,1,-3
1511885083798855,0,-4,3,3,1,1,0,-2
1511885083798855,-2,2,0,4,5,3,-1,1
1511885083799859,3,0,-1,-6,-2,2,-1,0
1511885083799859,0,0,-2,0,2,0,2,-3
1511885083813213,-1,-4,2,3,-5,0,2,1
1511885083813213,-2,0,0,0,0,-2,2,-1
1511885083821047,-3,2,0,-3,-7,0,-1,-2
1511885083821047,1,-3,-1,3,0,4,-3,-1
1511885083836090,1,-2,1,-7,-6,-3,-3,0
1511885083836090,-2,1,5,-2,-3,0,-3,-2
1511885083851362,-1,-1,-2,-2,-1,-2,-1,2
1511885083851362,-3,-3,-5,3,7,-1,-1,-1
1511885083859492,-1,-1,-3,-1,3,3,0,0
1511885083859492,-1,-3,-3,-1,-3,-1,-1,-3
1511885083860472,-3,-3,3,1,3,-4,-1,-1
1511885083860472,0,0,1,-2,5,-1,-1,-1
1511885083873423,-2,3,-3,6,0,-5,-1,0
1511885083873423,1,-1,1,-2,-1,0,9,1
1511885083881483,0,-4,-3,-2,0,0,3,-1
1511885083881483,-1,-2,-2,0,2,1,0,0
1511885083896541,0,0,0,-5,-2,0,-1,-2
1511885083896541,-3,-4,-1,-2,-2,-1,-2,-1
1511885083903565,-2,0,-1,3,3,-4,-2,-3
1511885083903565,-3,-1,1,0,-2,-4,1,2
1511885083919630,1,-3,-1,-1,4,5,3,1
1511885083919630,0,0,-3,-1,-4,-2,-3,1
1511885083919630,-1,0,-1,2,1,0,1,-2
1511885083919630,-1,0,-3,-1,-1,-2,-3,1
1511885083933642,-2,3,-1,-5,-1,1,0,-2
1511885083933642,0,-1,0,-3,1,-1,-7,0
1511885083940664,-1,-1,-2,-2,-4,1,8,-3
1511885083940664,0,1,5,4,-1,-2,-2,-2
1511885083955837,-2,-2,-1,4,-3,3,3,0
1511885083955837,1,0,-3,3,7,2,-1,-2
1511885083963727,1,0,-2,-2,-2,-2,-4,0
1511885083963727,-1,-2,-1,-4,-2,3,-1,1
1511885083979803,-2,-4,-1,-3,-2,-2,-2,-2
1511885083979803,-1,1,1,-8,-2,0,-3,3
1511885083979803,1,-2,0,6,-3,-3,-2,0
1511885083979803,1,-2,0,-3,-6,-4,-1,-1
1511885083993803,-2,1,1,-1,-3,-5,-1,-2
1511885083993803,0,0,-2,1,5,3,-1,-1
1511885084000825,2,-4,3,-1,-2,2,-3,-1
1511885084000825,-1,0,-1,0,0,4,3,-1
1511885084015953,-2,-2,-5,-2,0,-1,-1,-4
1511885084015953,-1,3,8,-3,-2,-2,-3,-1
1511885084023970,3,-2,-4,-2,1,-2,-1,0
1511885084023970,-1,-4,-1,2,-3,-1,-2,-2
1511885084039051,1,2,-2,0,1,1,0,3
1511885084039051,-1,-4,-3,3,0,3,0,-2
1511885084040046,-4,0,0,-4,1,2,0,0
1511885084040046,0,2,-1,-5,-3,-2,-4,0
1511885084053046,1,-3,2,-1,0,2,-4,-3
1511885084053046,0,-2,-1,-4,0,-6,2,-1
1511885084061263,-2,2,-1,1,0,0,-2,0
1511885084061263,-2,1,-2,-4,0,2,-1,-2
1511885084076220,-1,0,-2,5,-3,-3,3,-2
1511885084076220,3,2,-4,4,7,3,2,-1
1511885084083269,-3,1,3,-1,-2,-2,-1,0
1511885084083269,1,1,-1,-2,3,-2,-3,1
1511885084099554,-1,-1,2,-3,-1,0,0,1
1511885084099554,1,-3,0,0,-2,-3,-3,-1
1511885084099554,-1,0,1,0,-2,1,-2,-2
1511885084099554,-3,0,-2,0,1,4,8,0
1511885084113660,0,0,-3,0,1,0,-4,0
1511885084113660,-1,1,-2,-3,0,1,-2,-2
1511885084120586,-1,2,0,3,1,1,-3,-2
1511885084120586,3,0,-2,-2,-2,-4,-2,-2
1511885084135745,1,-2,-1,-3,-2,3,3,-2
1511885084135745,-5,0,-2,2,-1,-2,1,2
1511885084143766,1,-1,-1,2,-3,2,0,0
1511885084143766,-1,-1,0,0,1,1,0,-1
1511885084158840,-3,1,0,1,4,1,0,-1
1511885084158840,2,-5,0,0,-2,-1,-2,-2
1511885084159807,0,0,-1,-4,0,-6,0,0
1511885084159807,-1,-3,-1,-1,0,1,0,0
1511885084174008,1,1,-1,-3,-3,0,-1,-1
1511885084174008,0,-1,1,1,-5,0,2,-1
1511885084181071,0,-1,0,-3,2,3,2,1
1511885084181071,-2,-2,0,7,3,-4,-1,-2
1511885084196162,-4,1,-2,-3,-1,2,-2,0
1511885084196162,-4,1,-1,-1,-5,-2,-3,1
1511885084203081,1,-1,-2,-1,-2,1,-1,-1
1511885084203081,1,2,-1,-1,3,-3,-1,-2
1511885084219140,-3,-3,0,1,0,-3,-7,0
1511885084219140,2,-2,-2,0,2,3,-1,-1
1511885084227145,0,0,0,1,-3,-2,-3,1
1511885084227145,0,0,-2,-1,-5,-1,-1,-1
1511885084233160,1,0,0,0,0,0,2,-2
1511885084233160,-2,0,-3,-2,-2,-3,-4,0
1511885084241379,-3,-3,-2,2,-2,0,1,1
1511885084241379,-2,1,3,-1,-1,1,-5,2
1511885084256331,-1,1,-1,1,6,0,2,0
1511885084256331,1,-3,-3,0,-2,2,3,0
1511885084263557,0,-1,1,-3,-3,-6,2,-1
1511885084263557,-1,-1,-2,-4,-4,1,0,1
1511885084278427,-2,-3,-1,-2,-1,-1,0,-2
1511885084278427,1,0,3,-5,-1,0,1,0
1511885084286452,-1,-1,1,3,4,-3,-5,-3
1511885084286452,0,-1,-6,-2,-3,0,-1,-1
1511885084293574,1,1,0,0,-2,1,0,-2
1511885084293574,1,1,0,2,-1,-2,-1,-2
1511885084301569,-1,-1,-3,-2,1,-2,-6,-2
1511885084301569,0,-2,-5,0,-1,-1,0,0
1511885084315708,0,-1,0,3,3,1,1,0
1511885084315708,-3,-1,1,2,3,-2,2,-3
1511885084323729,1,1,-1,2,-2,3,-2,1
1511885084323729,-2,-2,-1,-2,3,-4,-2,-3
1511885084338771,2,2,3,-3,-5,-2,-2,0
1511885084338771,-4,-2,-3,-2,1,0,0,-2
1511885084346792,-1,0,-2,-1,-1,1,3,-1
1511885084346792,-2,-2,-1,3,0,3,3,0
1511885084361912,2,-5,-2,-1,-2,1,0,0
1511885084361912,-3,-2,4,0,1,1,-1,-2
1511885084362804,1,0,-2,-4,-5,0,0,-2
1511885084362804,1,-1,0,2,-1,2,0,-1
1511885084375846,-1,-1,-4,-5,-7,-8,-2,2
1511885084375846,-2,0,-3,1,-3,0,0,0
1511885084383851,-3,0,-1,-3,3,1,1,-1
1511885084383851,0,0,2,2,0,0,0,-1
1511885084398923,-1,3,1,-2,-3,4,0,-1
1511885084398923,0,0,-4,-2,1,0,-4,-2
1511885084407021,-1,-2,0,-1,-1,-2,0,0
1511885084407021,1,-2,2,-2,-1,-6,1,-3
1511885084421953,-1,0,-2,4,1,-1,0,-1
1511885084421953,1,-5,0,-3,-3,-3,0,-1
1511885084423076,0,0,1,0,2,3,-1,0
1511885084423076,0,2,-2,-2,-4,-3,-2,0
1511885084435989,-2,-3,-4,0,0,-1,-2,-2
1511885084435989,-2,3,0,-2,-3,-3,2,-1
1511885084444011,0,-3,-2,-2,0,1,1,0
1511885084444011,0,-4,7,2,6,-3,-2,-1
1511885084458045,-2,0,-5,-1,-5,3,-1,0
1511885084458045,-1,-4,1,0,-1,-1,-3,1
1511885084467214,1,2,-10,-2,0,-8,1,-1
1511885084467214,-1,2,0,-1,1,2,-5,-3
1511885084481248,-4,-6,-9,0,8,-3,-1,-1
1511885084481248,0,9,-2,6,6,13,0,-1
1511885084482251,-2,-11,-14,-5,-7,-9,0,2
1511885084482251,-4,-3,15,2,-1,-1,-1,-2
1511885084496461,1,-1,-11,0,2,-2,-1,0
1511885084496461,-1,2,-2,-1,-5,-2,-1,1
1511885084503428,1,-3,8,-2,-1,6,-2,-1
1511885084503428,-1,1,-8,-15,-15,-6,-2,2
1511885084518563,-4,-2,-2,10,0,0,-3,-3
1511885084518563,5,-1,6,-6,-15,-1,4,3
1511885084526568,-1,0,1,-1,0,5,-1,-5
1511885084526568,-2,-1,-3,3,-3,4,3,0
1511885084541606,1,5,6,9,5,-2,-1,0
1511885084541606,-2,-1,-3,-8,2,-4,-5,-2
1511885084542582,-3,2,2,1,1,-1,0,0
1511885084542582,3,-1,-6,-6,-7,-1,-4,0
1511885084555644,-3,-5,2,-4,3,2,4,-2
1511885084555644,-1,0,0,6,2,-5,-1,0
1511885084563718,-1,1,3,0,-2,3,1,0
1511885084563718,-4,-4,0,1,10,-1,-3,-1
1511885084578811,-1,1,4,-9,-2,0,-2,1
1511885084578811,-1,-6,-2,6,2,2,1,-2
1511885084586813,0,1,3,1,-2,2,-1,1
1511885084586813,1,-1,-4,3,2,3,2,-1
1511885084601859,0,-3,0,-1,-1,1,-3,0
1511885084601859,-1,0,-2,-10,-5,-5,0,1
1511885084602826,-4,4,-2,6,1,1,-4,-1
1511885084602826,0,-2,-2,3,3,3,1,-2
1511885084615880,-1,-2,-1,-7,-1,-2,0,-2
1511885084615880,-2,0,0,4,-1,-1,0,-3
1511885084624002,0,1,-2,2,2,-2,-2,-1
1511885084624002,0,0,3,-1,0,1,-1,0
1511885084639116,0,1,8,-4,-4,-3,0,0
1511885084639116,3,-3,-5,-2,-2,0,2,-2
1511885084646130,-1,-1,-1,5,2,-3,0,-1
1511885084646130,-3,-1,-2,-13,-2,-3,-1,1
1511885084662064,0,-1,1,10,-3,0,-1,-1
1511885084662064,1,-2,0,2,-3,1,-2,1
1511885084662064,1,-4,2,-6,-3,-3,0,-1
1511885084662064,1,-2,-4,0,2,-3,-1,0
1511885084676015,1,-1,-3,-13,-2,0,0,3
1511885084676015,-2,-3,-7,-5,-2,-6,-3,-1
1511885084683035,0,2,10,8,2,-1,1,1
1511885084683035,-1,0,-6,-9,0,0,-2,0
1511885084699078,-1,-1,3,27,-1,-3,1,-5
1511885084699078,1,-1,5,15,-1,0,1,1
1511885084707207,0,-4,-10,-13,1,3,1,0
1511885084707207,-2,0,5,-8,2,0,2,1
1511885084722136,-5,0,-4,3,1,-2,-3,1
1511885084722136,3,0,2,3,1,0,0,-3
1511885084722136,-3,0,-4,-28,-1,-4,0,-4
1511885084722136,5,2,-5,9,-3,-1,0,3
1511885084736539,-1,2,5,-5,2,5,1,-1
1511885084736539,-6,0,1,0,3,0,1,-4
1511885084743714,0,0,0,9,-7,-3,-2,-2
1511885084743714,0,3,4,-1,-1,2,4,0
1511885084758708,4,-1,-2,-10,-5,1,-3,-2
1511885084758708,-3,0,-1,1,2,0,-4,0
1511885084765713,2,1,-1,3,-2,-1,9,0
1511885084765713,-6,-2,-2,4,1,0,0,-4
1511885084781757,3,3,5,3,-2,0,2,2
1511885084781757,-1,-1,-5,-12,1,-3,-2,-2
1511885084782641,3,-1,0,0,-1,-1,-3,1
1511885084782641,-3,-2,1,7,-3,-4,-4,-1
1511885084795801,-2,-1,-1,-8,2,2,-10,1
1511885084795801,2,-1,-2,-4,-2,-2,11,0
1511885084803737,-2,0,1,3,2,2,0,2
1511885084803737,1,-3,-3,4,-1,0,-2,-1
1511885084818862,-2,-1,-1,-5,0,-3,-1,0
1511885084818862,-2,-1,-1,1,-1,-2,-6,1
1511885084826932,-3,-1,-3,9,1,6,24,-1
1511885084826932,-1,2,0,-2,-1,-1,-1,0
1511885084842048,-3,-3,-2,-10,-7,-4,1,-4
1511885084842048,-3,-1,-1,13,7,3,2,1
1511885084842982,2,-1,3,0,-5,-3,-9,-1
1511885084842982,-3,-2,-3,-8,-3,-2,-7,0
1511885084864236,-1,-1,4,3,3,1,12,0
1511885084864236,-1,3,-3,-8,1,-3,-2,2
1511885084865160,-1,-5,-5,-7,-2,-1,-9,0
1511885084865160,0,1,0,3,-3,2,-21,-1
1511885084878299,2,-2,1,8,8,0,-5,1
1511885084878299,3,0,-2,-4,-2,-2,-5,1
1511885084886407,1,3,1,-3,0,-2,0,0
1511885084886407,0,-2,0,-4,-7,-2,-1,-1
1511885084901308,-4,-2,-5,1,-3,1,2,-4
1511885084901308,0,3,3,2,-4,1,-3,1
1511885084902307,2,-4,-4,-2,1,-6,-7,2
1511885084902307,0,1,1,7,6,2,8,0
1511885084916464,1,1,-3,-9,-10,0,0,1
1511885084916464,-1,-5,-4,-1,-11,-1,3,-1
1511885084923657,0,1,3,-3,-1,0,-5,0
1511885084923657,0,2,0,5,-8,-2,4,2
1511885084938523,0,-3,2,-5,-11,-2,1,2
1511885084938523,0,0,1,-8,5,0,-4,-3
1511885084945543,-1,-1,0,11,-2,2,0,-2
1511885084945543,3,0,-1,1,1,-1,3,-2
1511885084961583,-3,2,0,3,6,3,-1,1
1511885084961583,2,-4,-2,-5,3,-1,-1,-1
1511885084962583,-2,1,4,4,-2,0,-1,-3
1511885084962583,-3,-3,-1,-5,3,0,2,0
1511885084975765,-2,0,-6,6,1,-2,-2,-2
1511885084975765,-3,-2,1,2,2,3,0,-1
1511885084983802,-3,2,2,2,5,3,-1,-5
1511885084983802,-2,-2,-5,-5,-6,0,1,-1
1511885084998821,-1,4,-3,-6,-1,-4,0,-2
1511885084998821,-1,1,2,-7,-2,3,0,-1
1511885085005883,2,-1,-3,5,0,-2,-1,1
1511885085005883,-1,0,3,14,0,-1,-1,0
1511885085021921,-3,-2,6,-14,-1,-1,-3,-2
1511885085021921,-1,-4,-21,-15,1,3,2,1
1511885085022907,-3,5,2,22,1,1,-4,0
1511885085022907,-1,-4,-4,-17,1,0,2,-2
1511885085035963,-2,-2,-4,22,-1,1,0,-2
1511885085035963,-3,1,5,-8,-2,-1,0,-3
1511885085044072,-4,-4,-8,-35,0,1,-2,-3
1511885085044072,1,0,3,16,4,0,0,-2
1511885085058120,2,-6,-2,-1,-1,-4,0,3
1511885085058120,-4,3,3,-24,-5,1,-3,-1
1511885085066133,-2,-2,-3,5,-6,-2,1,2
1511885085066133,0,0,-1,6,-4,-3,-1,-5
1511885085082161,-1,-6,-3,-43,3,3,-2,-1
1511885085082161,1,3,9,54,0,0,-2,-2
1511885085082161,0,-9,-3,-20,2,-4,3,3
1511885085082161,-3,-1,-2,-1,-1,0,-3,-1
1511885085096392,-6,-1,9,4,-2,1,-3,-4
1511885085096392,-2,-5,-32,-17,-1,-1,-1,-3
1511885085103283,3,2,6,6,1,1,-23,-2
1511885085103283,3,5,1,26,1,-5,-1,3
1511885085118323,-1,-5,-9,-3,1,-3,-3,-1
1511885085118323,-6,-2,9,-11,6,6,0,-7
1511885085126493,3,-8,15,-2,-5,0,-36,3
1511885085126493,23,8,13,-38,-1,-3,-2,6
1511885085141525,-5,10,-7,87,1,4,13,2
1511885085141525,6,-2,0,-31,-11,-6,-6,2
1511885085149548,-4,-8,-6,-1,3,2,6,3
1511885085149548,-14,-5,21,22,-6,-4,-1,-4
1511885085156565,7,0,-22,-10,-4,3,8,1
1511885085156565,-4,5,12,14,3,-2,-3,-9
1511885085163587,-1,13,-21,-26,-7,0,-5,-1
1511885085163587,-2,-4,6,18,1,1,-1,3
1511885085178663,0,4,6,7,1,0,-5,-5
1511885085178663,-1,-8,0,2,5,-1,9,5
1511885085185682,-14,3,0,2,-1,0,9,-3
1511885085185682,-2,-7,-23,-1,3,1,0,-1
1511885085200723,-5,-3,6,-19,-1,-4,-5,5
1511885085200723,7,4,15,-1,-4,1,-4,0
1511885085208702,1,-3,5,18,-1,-8,12,-4
1511885085208702,-5,3,-12,-9,2,4,0,-3
1511885085215720,0,0,8,-28,-4,-3,-4,-5
1511885085215720,-1,0,-11,10,-5,1,2,4
1511885085223895,16,-7,-15,7,3,2,16,1
1511885085223895,-16,-3,-6,-17,1,2,1,-3
1511885085238962,7,4,4,-12,1,0,-7,-3
1511885085238962,0,2,3,5,1,-3,-7,4
1511885085246104,0,0,-3,3,-3,2,9,-1
1511885085246104,7,3,-6,1,1,-4,-5,0
1511885085261092,0,-10,2,-9,-1,-4,-2,-2
1511885085261092,6,6,-19,1,-1,3,3,8
1511885085269152,-7,-4,21,10,3,1,36,-5
1511885085269152,-6,-2,-11,-18,-1,-1,-3,1
1511885085284192,7,9,15,6,0,4,8,3
1511885085284192,-8,-6,-5,-1,-3,-7,5,-6
1511885085285187,-1,0,-15,-8,-5,2,-8,-1
1511885085285187,-5,-3,-2,4,0,2,-2,-6
1511885085298191,1,2,12,-1,-1,0,3,2
1511885085298191,-1,-7,3,12,1,-2,-5,-1
1511885085306251,0,1,-2,-1,3,4,-13,-5
1511885085306251,-1,-3,5,-8,-2,-2,15,8
1511885085321290,1,-3,-17,1,-1,3,-7,-1
1511885085321290,-8,-4,11,0,-1,0,0,0
1511885085329312,-1,-1,-22,-1,0,-9,-6,0
1511885085329312,-2,1,0,-1,4,5,8,-6
1511885085344353,9,3,8,-6,-3,-3,-62,6
1511885085344353,5,5,26,2,2,-3,-19,4
1511885085345314,-1,4,-12,-2,-2,-7,-16,-4
1511885085345314,3,2,4,2,-3,2,-79,-2
1511885085358401,3,-2,-6,-8,2,-11,-85,10
1511885085358401,-1,2,-1,-1,3,-3,70,-11
1511885085366368,-3,-3,7,-8,-2,2,-78,5
1511885085366368,12,3,6,2,5,-11,-51,-3
1511885085381413,-8,0,6,2,-1,-2,43,-6
1511885085381413,-5,-1,-8,2,-6,-3,-39,-8
1511885085389433,-2,1,11,-2,3,-3,63,3
1511885085389433,-10,-3,-4,-14,-7,4,4,-10
1511885085404474,-9,2,-10,52,2,11,80,-5
1511885085404474,8,-8,-4,-35,-3,-5,-15,3
1511885085404474,-6,3,4,9,2,-2,21,-6
1511885085404474,-1,1,5,-11,-6,11,15,2
1511885085418510,2,2,-9,-17,13,-9,-3,1
1511885085418510,3,-5,-15,66,18,-6,29,7
1511885085426605,-1,-1,19,-2,1,8,0,1
1511885085426605,3,-2,-3,-6,-10,-21,3,5
1511885085441569,3,4,-1,-23,-16,20,-26,-2
1511885085441569,6,5,-4,-35,-23,-16,-82,8
1511885085448711,2,4,12,27,55,4,-44,-3
1511885085448711,11,-4,-28,-3,-19,-2,-53,4
1511885085463925,-3,-1,3,-23,-11,-10,-6,-5
1511885085463925,-9,-7,2,27,25,4,-30,-2
1511885085464754,-5,-5,-3,-31,-24,5,24,-5
1511885085464754,-2,-2,-31,-1,7,1,21,-3
1511885085478987,-3,2,26,0,10,-4,0,-2
1511885085478987,-2,-1,2,2,-18,8,-2,-4
1511885085485811,8,0,-1,2,-2,-10,-35,2
1511885085485811,-2,-5,5,12,12,4,30,-1
1511885085500955,-2,-9,-7,-3,-6,-1,5,0
1511885085500955,-2,7,11,-12,2,4,17,-2
1511885085508872,-9,-3,-19,9,-9,10,63,-2
1511885085508872,6,5,3,4,-4,-2,-15,6
1511885085524020,-2,-3,-25,14,18,3,-3,0
1511885085524020,0,3,21,-14,-7,1,11,-2
1511885085524914,-1,-2,1,15,-8,-1,-11,-2
1511885085524914,3,1,5,-10,3,-1,25,-1
1511885085538955,-5,-10,-19,1,-4,0,4,-2
1511885085538955,-2,0,-5,6,2,3,-31,0
1511885085546227,3,1,0,-6,-8,-8,14,-1
1511885085546227,-10,2,15,13,6,10,24,1
1511885085561357,-1,-3,3,6,-4,-1,-7,-1
1511885085561357,0,0,-8,-11,-2,-1,-12,-1
1511885085569216,-3,1,-6,-5,-6,-3,-9,0
1511885085569216,-5,-2,14,7,2,0,7,-3
1511885085584254,-2,0,-4,-13,-5,-3,12,-2
1511885085584254,-2,-3,-33,-4,-1,3,21,-3
1511885085585259,1,-3,14,2,-3,-1,-24,0
1511885085585259,-2,1,11,-2,0,-2,5,-2
1511885085598270,-1,3,0,9,-3,-4,-2,0
1511885085598270,-3,-4,14,-1,-2,2,9,-3
1511885085606554,-3,6,4,2,-4,-2,-7,-3
1511885085606554,5,-4,-8,-12,-1,-1,-13,-1
1511885085621460,-8,-2,9,-2,-2,2,-15,0
1511885085621460,4,5,7,3,-1,-1,-2,0
1511885085629602,-1,-3,-4,-6,1,0,0,-2
1511885085629602,-3,-5,-1,2,0,1,10,0
1511885085644653,-1,0,1,-4,-1,-1,-9,-2
1511885085644653,-4,-2,-3,1,-1,-4,6,-2
1511885085644653,4,0,-9,-12,-2,-3,-6,2
1511885085644653,-2,1,1,10,-3,-3,-2,-5
1511885085658773,1,-4,2,-5,-1,1,3,3
1511885085658773,1,0,3,-3,-4,-2,-3,-1
1511885085665880,0,2,2,-3,-1,0,-4,0
1511885085665880,-3,-5,-1,-1,3,2,2,2
1511885085680791,-1,0,-5,-7,-6,-2,3,-3
1511885085680791,-4,1,-1,6,1,1,3,-1
1511885085688855,1,-1,-11,3,0,1,-7,1
1511885085688855,-1,1,5,-5,1,-1,-1,-1
1511885085703893,0,0,-10,-3,-1,-1,-1,-1
1511885085703893,0,1,10,-6,0,1,1,-1
1511885085704881,-1,-2,-10,1,-1,-6,-2,-1
1511885085704881,-2,-5,-23,-7,-4,-6,-2,-1
1511885085718940,4,-3,9,4,-3,0,3,-2
1511885085718940,-4,-1,-10,5,-1,3,13,-1
1511885085725912,2,-4,1,-12,-2,1,-1,3
1511885085725912,-5,3,7,13,-1,1,0,-4
1511885085741099,2,0,10,-3,0,0,-6,-2
1511885085741099,-7,-5,-19,-1,-1,0,25,0
1511885085749105,2,3,9,1,-2,2,-4,-1
1511885085749105,3,4,4,-2,-2,0,1,-1
1511885085764225,-1,-1,-8,5,1,-2,-3,-4
1511885085764225,3,1,6,-1,-2,1,-1,3
1511885085765147,-5,-5,-10,-1,-1,1,0,0
1511885085765147,-1,-2,5,-2,-2,2,8,0
1511885085778147,1,-4,1,0,3,-4,5,1
1511885085778147,9,2,-8,-6,-3,-2,-7,4
1511885085786435,-13,-1,2,0,-3,-2,-4,1
1511885085786435,10,3,-3,-2,-3,-2,-10,-1
1511885085801435,-4,1,-4,0,0,-5,6,3
1511885085801435,1,-3,3,-5,-1,-2,-2,-2
1511885085809595,4,2,8,2,4,-2,0,1
1511885085809595,-2,1,8,-4,0,-4,-2,2
1511885085824724,3,5,-4,-2,-2,-1,1,2
1511885085824724,2,-1,4,3,3,0,-6,-1
1511885085825569,-5,-4,-18,-1,-2,-1,5,-4
1511885085825569,-1,4,8,-2,0,-3,2,-2
1511885085838821,-1,-2,4,-3,-3,-4,-4,1
1511885085838821,-2,-1,-2,4,-1,1,-4,0
1511885085846041,5,0,7,-1,-1,0,-5,0
1511885085846041,0,-4,-3,-4,1,3,-5,2
1511885085861005,0,-2,-1,4,0,0,1,-2
1511885085861005,0,2,8,1,2,-1,-5,3
1511885085868901,0,2,2,0,-4,-2,0,-1
1511885085868901,-2,-2,-8,-1,2,1,1,2
1511885085884143,2,-1,9,1,0,1,-16,0
1511885085884143,0,0,-2,-4,2,-3,-6,-3
1511885085884943,2,-1,8,2,1,3,1,-1
1511885085884943,-3,0,0,0,-2,-4,3,1
1511885085898225,-2,-1,-3,-6,-5,-2,-9,-1
1511885085898225,-5,-4,1,2,-5,3,37,-6
1511885085906262,1,1,2,3,-1,3,-4,0
1511885085906262,1,0,-6,-5,-6,-1,-6,-3
1511885085921308,-3,3,-1,-1,-4,0,5,0
1511885085921308,0,-2,-2,-7,-4,-1,-7,0
1511885085929467,0,3,2,1,2,-1,2,0
1511885085929467,-2,-3,1,2,7,5,5,1
1511885085944691,-2,0,-1,-1,-4,-1,-4,0
1511885085944691,-2,-3,-2,2,-2,-6,-7,-2
1511885085945536,4,2,-2,-4,0,0,1,1
1511885085945536,-2,0,-2,0,-3,3,6,2
1511885085958724,2,-3,-3,-6,-1,-2,4,-1
1511885085958724,-5,-2,-2,4,6,3,22,-3
1511885085965694,2,-1,1,6,-2,-5,-6,-1
1511885085965694,-1,0,-1,1,3,2,0,1
1511885085980844,-4,-2,-2,-1,4,-1,4,-3
1511885085980844,-1,0,0,0,1,0,-6,-1
1511885085988803,-4,0,-3,1,-2,-1,-6,0
1511885085988803,-5,-1,0,2,-3,0,7,-7
1511885086003837,-3,2,0,0,4,8,-1,-3
1511885086003837,-3,-3,0,-2,5,6,-14,-1
1511885086004796,-2,2,-5,2,7,2,-6,-1
1511885086004796,2,-3,-1,4,-10,-10,0,3
1511885086017998,2,2,-3,-13,0,-4,2,2
1511885086017998,0,-2,1,4,-1,4,-6,-1
1511885086026016,0,-3,5,-3,0,-1,-2,3
1511885086026016,-1,2,1,2,8,-5,-1,0
1511885086041350,1,2,-2,8,-3,0,2,-2
1511885086041350,0,3,3,-7,-3,-2,6,0
1511885086049254,0,-6,-6,-9,-7,-3,6,1
1511885086049254,1,2,-3,3,-3,-7,-8,-3
1511885086064292,0,-1,1,3,3,2,-1,-2
1511885086064292,-2,-3,2,1,3,10,-7,1
1511885086065298,-3,0,0,10,10,-7,-1,-4
1511885086065298,-3,0,1,-11,0,2,22,-2
1511885086078646,-3,1,-2,6,-2,-2,-5,-2
1511885086078646,-1,1,-4,-7,-13,-2,-9,-4
1511885086085485,-3,-1,-3,-1,1,2,-1,0
1511885086085485,-2,1,0,-2,-4,2,-9,-1
1511885086100528,2,-1,1,10,5,-2,4,0
1511885086100528,-3,-1,-2,0,1,-3,0,0
1511885086109729,0,-2,0,-4,-5,4,7,-2
1511885086109729,0,-2,0,-4,-2,-2,-15,0
1511885086123733,-2,-3,-1,4,6,-1,4,-1
1511885086123733,2,0,-1,0,0,-5,-7,0
1511885086131755,-1,-2,-1,-19,-3,2,-3,-1
1511885086131755,-2,-2,-3,11,-2,2,-4,-2
1511885086138774,-1,0,-1,-1,-3,3,-2,0
1511885086138774,2,-2,5,-3,-3,-4,-3,-2
1511885086146108,-3,3,-6,-1,3,4,-9,0
1511885086146108,1,-4,6,-2,1,-5,-7,1
1511885086161028,1,-3,-3,-4,0,-2,-1,1
1511885086161028,-3,-3,-6,-2,-4,-2,1,0
1511885086169088,0,-1,4,-6,-6,-2,1,-2
1511885086169088,-2,1,11,1,-2,0,-2,-1
1511885086183089,0,-5,-16,0,-4,-4,-2,1
1511885086183089,0,-2,0,-1,0,-2,-10,0
1511885086192120,-2,-2,1,2,-3,-3,2,-1
1511885086192120,1,-3,-7,1,6,4,-2,-1
1511885086198128,-1,1,9,0,5,4,8,0
1511885086198128,-1,1,-6,0,-3,-3,0,1
1511885086206147,3,-2,0,3,-3,-1,5,1
1511885086206147,3,2,-3,-1,3,1,4,2
1511885086221380,5,-3,3,-4,-4,-8,-3,4
1511885086221380,11,0,5,-3,1,-10,2,5
1511885086229399,9,2,4,-5,1,-5,7,11
1511885086229399,13,0,3,-9,-1,-7,3,9
1511885086243355,5,1,1,-7,-8,-6,4,6
1511885086243355,0,4,2,6,3,0,1,5
1511885086251360,-2,2,1,7,3,0,0,-3
1511885086251360,-10,-2,-5,2,-6,4,-2,-9
1511885086266342,-15,-5,-4,6,4,11,-7,-13
1511885086266342,-15,-4,-6,4,-4,10,-8,-16
1511885086267341,-12,-4,-2,-1,-10,5,-7,-15
1511885086267341,-8,-3,-5,2,-4,3,-5,-8
1511885086281538,-6,0,3,-3,-2,3,-2,-2
1511885086281538,-5,-1,-3,3,1,4,-5,-4
1511885086289527,-4,0,-2,1,1,-4,-8,-4
1511885086289527,-1,-1,0,1,3,-1,1,0
1511885086303441,2,-1,2,-2,-3,-3,-1,4
1511885086303441,3,-1,-2,-1,0,-2,2,3
1511885086311542,4,1,-1,1,2,-3,1,2
1511885086311542,1,-2,-2,-3,1,-1,0,2
1511885086326504,-1,-2,5,-2,-5,1,-1,3
1511885086326504,1,1,0,-2,0,-7,0,1
1511885086327504,0,-4,-1,-2,0,7,3,3
1511885086327504,3,3,-3,-1,-4,-3,-1,-1
1511885086340579,1,-2,-2,-1,3,0,0,0
1511885086340579,-1,-4,-2,-2,-1,-2,5,-1
1511885086349566,1,0,2,0,-3,-1,1,0
1511885086349566,-2,-1,-1,-1,2,8,-1,1
1511885086363717,0,0,-1,1,-3,-5,0,-1
1511885086363717,0,2,-1,0,-4,-2,-2,3
1511885086371662,-1,0,-2,0,6,0,0,0
1511885086371662,0,0,-1,-2,-3,-3,0,-3
1511885086386682,4,2,0,1,4,-1,-1,-3
1511885086386682,1,-4,-1,0,0,5,-1,1
1511885086387663,0,-3,-1,0,-3,1,1,1
1511885086387663,0,0,1,-2,-3,-7,-2,0
1511885086400740,0,-2,1,5,3,0,2,2
1511885086400740,0,-1,0,-2,3,0,2,-2
1511885086409722,-3,0,-1,0,-6,1,1,-2
1511885086409722,-2,-5,-1,-5,0,-1,0,-2
1511885086423801,-1,0,-1,-4,-6,-1,-2,-4
1511885086423801,-2,0,-2,1,0,4,5,-3
1511885086431782,-1,-1,-1,-3,-3,-7,-5,0
1511885086431782,-1,1,0,7,10,6,1,1
1511885086446931,-2,-2,-1,-5,-8,-7,-1,1
1511885086446931,-1,-1,-2,3,7,-1,-2,-1
1511885086447824,-2,-3,2,-6,-3,3,-1,1
1511885086447824,-1,2,-3,-2,-4,-1,1,-2
1511885086460857,-2,-1,-3,0,5,3,-2,1
1511885086460857,1,2,2,-2,-2,-2,-2,0
1511885086468881,2,-1,-3,-2,1,-1,0,0
1511885086468881,0,-2,-1,4,-2,1,1,-1
1511885086483922,-1,-1,3,-1,-4,4,0,-1
1511885086483922,0,-3,1,-4,-4,0,0,1
1511885086492076,1,2,-4,4,0,-2,-1,0
1511885086492076,0,0,0,-4,-4,2,-1,-3
1511885086506983,0,0,-5,-2,2,-2,-2,-6
1511885086506983,-1,0,-1,1,-1,0,-1,-1
1511885086508053,1,0,2,-4,-2,-2,2,2
1511885086508053,-2,0,-3,-2,2,-1,0,-1
1511885086521128,1,-1,1,0,-2,-1,1,0
1511885086521128,1,1,-2,-2,-1,-2,-2,-1
1511885086529142,-1,1,1,2,0,-5,-2,1
1511885086529142,-2,-1,-1,-1,0,-3,-3,1
1511885086544106,-1,2,3,-1,-1,0,-2,-3
1511885086544106,0,-1,-2,0,-2,1,-1,1
1511885086552181,1,-1,1,3,0,-4,1,-2
1511885086552181,2,0,-1,-2,-1,0,-1,3
1511885086566296,1,1,-1,-2,-3,0,-2,-1
1511885086566296,0,0,-1,0,-2,-3,-3,0
1511885086567296,0,1,-2,-3,1,4,-2,-2
1511885086567296,-2,-5,1,-2,-6,-3,-3,0
1511885086581334,0,-1,-1,9,9,-1,2,-1
1511885086581334,-1,1,0,1,-3,-1,1,-2
1511885086589524,0,-1,-2,1,-1,5,-1,-3
1511885086589524,-2,-1,2,-2,-1,1,2,-2
1511885086603668,-2,-2,-2,-6,-3,3,1,-1
1511885086603668,-2,-2,-1,0,3,-1,-4,-2
1511885086611811,0,-1,-3,1,1,-1,0,-2
1511885086611811,0,0,0,1,2,-6,-7,-2
1511885086626733,-2,-2,-5,0,-6,0,8,-2
1511885086626733,0,0,1,1,0,0,0,0
1511885086627730,1,1,-1,-1,3,-3,-2,1
1511885086627730,0,0,-3,-1,-1,0,0,-1
1511885086640768,-3,-1,-4,0,1,-1,0,0
1511885086640768,1,-1,4,-3,-2,-2,-2,0
1511885086648788,0,0,0,-1,0,1,0,-4
1511885086648788,0,-3,-3,2,-1,1,5,3
1511885086663824,-1,2,0,-4,-7,-4,-2,1
1511885086663824,-3,-1,0,4,7,0,2,-2
1511885086671846,2,-3,-2,-2,-3,-4,0,-2
1511885086671846,0,0,-3,-1,-1,-2,-3,-1
1511885086686889,2,0,0,-4,-4,3,-2,1
1511885086686889,2,0,-2,-3,-3,2,-1,1
1511885086687889,-2,-2,-1,3,1,1,2,-1
1511885086687889,-1,2,2,-1,1,3,0,-2
1511885086700927,0,-3,3,3,2,-3,-1,-1
1511885086700927,-1,-1,0,-2,-1,0,-4,-2
1511885086708946,-3,-2,-4,0,-1,1,-1,-1
1511885086708946,-1,2,-2,-2,-2,0,-1,-2
1511885086724012,-1,-1,-3,-2,2,0,-5,1
1511885086724012,-1,-1,-1,-1,-4,0,1,-2
1511885086732048,0,-3,1,-1,-1,2,1,1
1511885086732048,-1,2,1,-1,0,-1,-1,-3
1511885086747073,-1,1,-3,-1,-5,-5,-1,-1
1511885086747073,0,-2,-2,0,-3,2,0,1
1511885086747073,0,2,0,0,0,-3,-1,-1
1511885086747073,0,-2,3,1,1,0,1,-2
1511885086761126,-1,-1,2,1,5,-1,3,-2
1511885086761126,0,-2,-4,-3,-2,-5,-3,-2
1511885086769151,-7,-2,-1,-2,-1,-1,-2,-3
1511885086769151,-1,-2,-2,-2,-1,0,0,-1
1511885086783148,-1,0,0,2,-2,4,-3,-1
1511885086783148,0,0,-3,3,-1,1,1,1
1511885086792166,-1,-2,-2,-1,-2,-3,1,-1
1511885086792166,-3,-1,-1,0,-3,-3,0,-1
1511885086806246,-1,-3,-1,-4,-3,3,-5,-3
1511885086806246,-3,-1,-3,-3,1,-1,1,-2
1511885086807231,0,1,2,2,-1,-2,-3,-1
1511885086807231,-2,-1,1,-2,-1,0,1,3
1511885086821287,-1,-2,1,3,0,-1,1,0
1511885086821287,-1,-1,1,-2,-2,-2,-1,0
1511885086829308,2,-1,1,-4,3,3,-3,1
1511885086829308,-2,-1,-2,4,-3,-3,-3,-1
1511885086843306,-2,1,1,-4,0,-3,-2,-1
1511885086843306,-1,0,-2,1,0,0,0,-1
1511885086851326,-1,-1,-1,0,-2,1,0,1
1511885086851326,-1,0,-5,-3,0,-2,-2,0
1511885086866363,0,1,-2,1,-1,-1,1,-1
1511885086866363,0,-1,-1,-2,-5,-2,-1,-1
1511885086867366,-3,-1,1,0,-1,0,-2,0
1511885086867366,1,1,0,0,4,2,-1,0
1511885086881411,0,2,-2,-1,-9,-3,8,-1
1511885086881411,-2,-2,-1,3,9,2,-1,-2
1511885086889736,0,-2,-4,3,-4,3,-2,-2
1511885086889736,0,-2,0,-3,3,1,-3,-1
1511885086903759,-1,-2,0,1,0,1,-2,0
1511885086903759,-2,-1,2,-2,-3,-1,-2,-2
1511885086911966,0,0,-2,-1,1,-4,2,1
1511885086911966,-1,2,-4,4,1,2,3,1
1511885086927003,-2,-1,-1,0,1,-3,-3,0
1511885086927003,-2,2,-1,-1,-1,2,0,-1
1511885086927919,0,-2,-1,-1,-2,-1,-3,-2
1511885086927919,0,-4,-1,-4,-2,-5,-1,1
1511885086940957,0,1,3,-1,2,5,1,-3
1511885086940957,-1,-2,-1,1,-3,-1,1,0
1511885086948990,-2,-1,0,1,-1,0,3,0
1511885086948990,0,1,2,0,-1,-1,-2,1
1511885086963921,-3,-3,-1,-2,-2,-2,-2,-2
1511885086963921,4,-1,-1,0,0,-2,-2,1
1511885086971937,-1,1,3,-3,1,1,-6,-3
1511885086971937,-2,0,-3,-5,0,-4,1,-2
1511885086987183,0,-1,1,1,1,-2,-2,0
1511885086987183,1,-3,-2,0,-4,-2,1,1
1511885086988031,3,1,-3,1,-4,2,-1,0
1511885086988031,2,-2,-2,1,-5,-1,-3,-1
1511885087001206,1,-3,2,-2,4,6,-3,2
1511885087001206,-3,1,-4,-1,0,-2,-3,0
1511885087009036,1,1,2,0,-2,-4,0,-1
1511885087009036,-1,-2,0,-3,-2,1,2,-2
1511885087023077,0,0,-2,4,7,-2,-1,-1
1511885087023077,-2,-1,1,-1,-3,4,-1,-1
1511885087032168,0,1,-1,-2,-2,-2,0,-1
1511885087032168,0,-1,0,-3,-1,4,-1,0
1511885087046247,-1,1,0,0,-1,-3,-3,-1
1511885087046247,1,-3,-2,-1,0,-1,1,-1
1511885087054395,-2,-5,-1,-2,-2,-5,1,1
1511885087054395,-1,-2,2,3,-2,1,-1,-1
1511885087061545,2,-1,-2,-2,-4,4,-1,1
1511885087061545,3,1,2,-2,-2,-2,-1,0
1511885087069572,0,-2,-2,-3,-2,-3,2,-1
1511885087069572,-3,-3,-1,5,2,-4,-1,-2
1511885087083641,1,0,-1,-3,-2,-4,-6,-2
1511885087083641,0,0,-1,1,1,0,0,0
1511885087092635,0,0,1,-2,-1,4,-2,-2
1511885087092635,1,1,-3,3,-1,2,-2,-2
1511885087105664,-1,-2,0,-3,-5,-3,1,0
1511885087105664,-3,-1,3,0,0,-1,-1,-1
1511885087114686,-1,1,-5,-3,3,-3,8,0
1511885087114686,-1,-4,0,0,-3,-6,-5,-1
1511885087120729,-3,-2,-1,2,2,3,2,-1
1511885087120729,0,1,0,-1,1,0,-1,-1
1511885087129726,-2,-1,2,2,1,-2,-3,1
1511885087129726,0,2,3,-1,-1,-1,1,-3
1511885087143793,-1,-2,-4,-1,-1,-4,2,-3
1511885087143793,-2,3,-3,-2,-4,-1,0,1
1511885087152792,-2,1,-1,-1,2,0,-4,0
1511885087152792,0,1,-2,-1,1,0,1,-1
1511885087165839,-2,-4,0,-1,-2,-1,-2,0
1511885087165839,0,-1,1,1,2,1,1,-2
1511885087174850,-1,-1,2,0,-1,-2,-2,0
1511885087174850,-1,-4,0,-2,-1,-1,1,-1
