timestamp,emg1,emg2,emg3,emg4,emg5,emg6,emg7,emg8
1511883765715478,3,-1,1,-5,2,6,-2,-3
1511883765715478,-6,-11,-1,-1,12,10,0,-1
1511883765716520,-9,-7,-7,-7,-5,-10,-8,-2
1511883765716520,-2,0,-2,1,3,-2,-2,1
1511883765716982,-7,-2,-5,-2,0,-4,-1,-3
1511883765716982,-4,0,-2,2,5,-3,-2,-5
1511883765718485,-4,2,3,9,5,6,3,-1
1511883765718485,-2,3,2,3,-7,-1,-2,4
1511883765718986,-9,2,0,4,1,0,-6,-2
1511883765718986,7,10,5,2,4,4,-4,2
1511883765734028,3,-1,-3,2,7,0,-4,1
1511883765734028,5,-8,-11,-7,2,-3,0,2
1511883765741046,0,-6,-3,-2,10,2,1,-1
1511883765741046,-4,-9,-1,-4,10,-1,3,0
1511883765749068,-1,-11,0,-3,-7,-6,0,-5
1511883765749068,2,3,5,-1,-3,-1,4,3
1511883765762102,3,1,3,5,-13,-9,7,9
1511883765762102,1,8,7,-4,-1,0,5,0
1511883765778145,-4,-1,2,2,6,5,-1,-8
1511883765778145,0,-5,-2,1,8,0,-1,-9
1511883765779148,-3,-11,-7,-3,-1,-4,-7,-6
1511883765779148,4,3,-9,-1,-15,-4,-3,1
1511883765826803,3,6,10,2,3,2,-1,2
1511883765826803,-3,5,6,2,4,-2,-2,-3
1511883765827806,-7,-14,0,-1,2,-5,-5,-2
1511883765827806,-3,-25,-12,-4,-3,-1,0,-5
1511883765830830,1,-2,-6,-13,-16,-7,-1,-3
1511883765830830,5,1,-1,5,6,8,4,-1
1511883765831831,3,17,7,-4,2,7,1,-5
1511883765831831,1,-7,6,0,-7,-6,4,1
1511883765836845,-2,12,-2,-12,-10,2,3,0
1511883765836845,-6,0,-8,-2,-9,3,-3,0
1511883765844866,-2,-5,5,4,-9,4,0,0
1511883765844866,2,13,4,10,8,0,-6,4
1511883765853890,-5,-25,-7,-15,-26,-20,-6,3
1511883765853890,-1,-4,0,1,-9,-13,0,6
1511883765867927,0,0,-4,3,7,3,-5,-1
1511883765867927,7,8,0,-3,-11,-12,-2,2
1511883765874945,2,-10,4,16,16,14,6,7
1511883765874945,-6,-15,0,-6,6,12,-2,-6
1511883765889985,2,19,0,5,8,3,-8,-4
1511883765889985,-3,-1,-1,-8,9,7,-7,-7
1511883765899011,2,4,-4,2,-3,-10,-1,-3
1511883765899011,3,-9,-8,-6,-6,-4,6,-7
1511883765913047,-6,-13,-9,-15,-12,-13,8,1
1511883765913047,-7,-1,5,5,-2,5,6,8
1511883765920067,2,-3,3,2,7,10,1,1
1511883765920067,5,24,15,9,12,9,-5,-7
1511883765936214,3,-15,0,-6,-19,-14,1,-6
1511883765936214,3,-4,7,6,11,9,4,-3
1511883765937217,-2,-16,-7,2,-6,-6,-4,-2
1511883765937217,7,18,6,6,10,3,0,7
1511883765958304,-4,2,-2,7,5,3,-7,6
1511883765958304,-3,5,-5,-6,-14,-7,-11,3
1511883765960280,0,17,3,2,2,1,-5,0
1511883765960280,-2,-2,-8,-4,10,-1,0,2
1511883765972312,-1,12,2,1,0,-3,7,3
1511883765972312,-5,-3,-2,-1,5,5,6,-5
1511883765981335,-5,-4,-2,3,14,6,-3,-5
1511883765981335,2,-3,-5,-7,-18,-8,-4,-4
1511883765996375,4,5,-5,-3,-9,-2,-1,-5
1511883765996375,0,5,-7,0,-2,5,1,-6
1511883765997378,-4,8,-1,-5,2,3,1,-3
1511883765997378,-3,-14,-3,-6,-6,-6,-5,-9
1511883766018943,-9,6,3,-1,3,3,-2,13
1511883766018943,4,7,5,-4,-3,0,-7,6
1511883766020445,3,1,1,1,1,-1,-5,-2
1511883766020445,-9,-17,-5,3,-1,-5,8,5
1511883766032073,10,12,0,5,9,-1,4,-1
1511883766032073,-4,-5,-16,-6,-5,-7,-2,-4
1511883766049147,5,9,9,5,0,1,0,3
1511883766049147,-3,-1,3,0,-7,0,-6,-11
1511883766056234,-8,-13,8,4,-5,1,-4,-4
1511883766056234,-1,-8,-2,6,-3,-3,0,1
1511883766058145,6,9,9,-1,5,-3,-4,-9
1511883766058145,-2,-3,0,-3,4,2,0,-2
1511883766078197,1,5,-2,-9,4,2,2,-7
1511883766078197,0,-4,-8,-9,3,1,-4,-5
1511883766080198,-2,1,-6,-5,4,1,0,4
1511883766080198,0,5,-2,-3,-3,-8,-4,8
1511883766092234,3,-7,-8,0,-4,-6,3,5
1511883766092234,11,4,7,4,-1,-3,6,4
1511883766101254,-3,-4,-6,2,0,0,6,0
1511883766101254,-4,3,5,1,-4,0,4,5
1511883766116568,0,-10,-2,-2,-3,3,-3,-7
1511883766116568,4,20,14,-1,1,-2,1,-9
1511883766117919,-4,-4,1,4,4,-1,-1,-7
1511883766117919,1,3,-6,-3,-2,-5,-4,-1
1511883766139074,-1,-16,-9,-2,0,-5,-2,0
1511883766139074,1,-2,0,1,-8,1,-1,3
1511883766140069,-6,-1,-1,6,-5,9,0,2
1511883766140069,-3,0,0,7,0,5,-3,1
1511883766152102,-10,-15,-2,-3,3,2,-6,1
1511883766152102,-8,17,3,-5,-1,-7,-4,0
1511883766161126,-2,-7,-11,-8,-1,-7,-1,-2
1511883766161126,4,-1,-5,-2,3,-4,1,1
1511883766176289,4,5,8,3,3,6,2,0
1511883766176289,-1,-10,-4,1,4,5,1,-1
1511883766178214,-2,7,5,2,-4,-2,-2,-8
1511883766178214,-5,2,-7,-5,-5,2,-3,-6
1511883766199228,0,6,-4,-5,-7,2,0,1
1511883766199228,6,2,8,1,2,5,0,-1
1511883766200231,-1,-7,-3,-2,3,-4,-1,-3
1511883766200231,6,4,8,-3,4,0,0,0
1511883766212261,-1,-4,-1,-1,2,-3,-1,-2
1511883766212261,-7,-8,15,1,0,-1,0,3
1511883766221788,0,-2,-4,6,-3,-6,3,8
1511883766221788,-4,-5,9,-9,-8,-8,4,5
1511883766236012,0,-6,-10,-8,-1,-4,5,2
1511883766236012,3,-10,-8,1,4,-3,-1,2
1511883766238014,8,5,8,-1,-1,3,-3,4
1511883766238014,-4,-10,-10,-6,-9,4,-1,3
1511883766258068,-4,2,1,3,2,4,-4,-7
1511883766258068,-6,-12,-5,-3,1,-6,1,-10
1511883766260073,-6,4,0,-2,1,-5,1,-9
1511883766260073,4,1,0,1,-1,-7,1,-1
1511883766272105,1,5,0,0,3,-5,-1,6
1511883766272105,-4,-1,-9,4,1,-2,-4,0
1511883766281129,-1,-16,-12,-1,-2,3,-1,2
1511883766281129,-2,-9,-6,5,4,1,0,3
1511883766296169,11,12,5,1,-4,-1,2,4
1511883766296169,-5,-2,-8,-1,1,2,1,-1
1511883766297172,-4,-7,-6,-5,-1,2,4,-3
1511883766297172,-3,-1,5,2,2,2,0,-6
1511883766318731,-2,-12,-15,-3,-10,0,-3,-4
1511883766318731,-2,9,5,1,-12,-3,-7,-1
1511883766320235,6,10,7,-1,-3,3,-4,-1
1511883766320235,1,8,23,12,3,0,-6,-6
1511883766332059,-11,-8,8,-1,1,1,-4,-2
1511883766332059,-6,-14,-2,-3,1,3,-2,2
1511883766341083,-5,17,-1,-5,1,-1,-2,-1
1511883766341083,2,13,-14,-8,-1,3,-3,-3
1511883766356145,2,4,0,-1,-7,-2,4,0
1511883766356145,-1,-9,-7,-3,-2,0,7,0
1511883766358128,8,-16,-6,-1,0,2,1,3
1511883766358128,-2,-3,-1,1,-4,-2,-2,4
1511883766378208,-10,-14,-1,3,0,2,-5,2
1511883766378208,-8,21,-4,-4,-5,-5,-1,-1
1511883766380187,-7,-21,-3,-1,1,-4,4,1
1511883766380187,2,-8,2,0,5,-5,0,-6
1511883766392218,5,0,7,-1,4,-6,-3,-3
1511883766392218,10,4,-3,-2,0,-2,-4,0
1511883766401244,1,6,-2,-3,-5,-3,-4,1
1511883766401244,-5,-2,-3,1,2,3,6,2
1511883766416314,6,0,0,0,5,0,1,-2
1511883766416314,-4,-7,6,3,-2,-1,0,-2
1511883766417820,-5,-3,4,5,-4,0,-5,-1
1511883766417820,-2,-2,-2,0,-4,4,-2,-1
1511883766438404,2,-4,-7,-5,0,1,-1,-3
1511883766438404,7,-11,-6,-7,6,1,4,-6
1511883766440410,-1,1,-3,-3,2,-4,4,-6
1511883766440410,8,12,-1,-1,2,-6,2,-1
1511883766452467,3,9,5,6,-3,-2,-1,1
1511883766452467,6,6,9,4,4,-3,-3,3
1511883766461466,2,7,9,0,0,-1,-7,1
1511883766461466,-10,-9,-1,3,-1,0,-3,-2
1511883766475501,-2,15,3,4,-1,-1,-1,-3
1511883766475501,4,-4,-3,8,-10,0,-1,1
1511883766482521,1,-6,-3,14,2,5,0,6
1511883766482521,0,1,-11,-7,-6,-1,-3,6
1511883766498595,-3,3,0,-9,-2,-1,3,-1
1511883766498595,-8,-7,-4,-8,0,-3,4,-3
1511883766500595,-1,13,3,-4,-1,-4,3,-6
1511883766500595,5,8,-1,-2,2,0,0,-4
1511883766512610,-2,-4,-5,0,0,0,0,0
1511883766512610,0,13,-3,-5,-1,3,-3,2
1511883766521627,-6,5,1,-3,-14,-7,-5,0
1511883766521627,3,2,3,6,6,0,-1,5
1511883766535667,7,1,-5,2,7,0,-1,3
1511883766535667,0,-11,-4,-6,7,2,0,2
1511883766537672,1,12,8,-5,5,2,3,2
1511883766537672,7,8,9,-6,-6,2,0,-1
1511883766558729,-5,-11,5,3,-1,5,-5,-5
1511883766558729,0,8,4,4,-7,0,-4,-7
1511883766559730,0,-2,3,5,2,4,-4,-3
1511883766559730,-7,-11,-3,4,1,-5,-5,-2
1511883766571763,-1,-12,1,1,-4,-5,-4,-1
1511883766571763,-3,-7,-8,-1,-2,-5,1,1
1511883766580786,1,-4,-8,-6,0,-5,2,3
1511883766580786,3,4,-6,-3,-3,-2,3,-2
1511883766594824,-3,-13,-15,-3,-7,0,1,-4
1511883766594824,-3,10,9,1,-2,1,-3,-2
1511883766601843,-3,-6,4,2,2,-1,-3,-3
1511883766601843,1,-2,7,-1,4,2,4,2
1511883766618890,2,7,2,-7,2,1,8,-1
1511883766618890,5,-1,-6,3,6,3,7,-1
1511883766620394,11,-16,-5,-2,4,-1,1,0
1511883766620394,-8,-6,-1,-2,-2,-1,-1,-5
1511883766632569,-1,6,5,3,6,-2,-4,2
1511883766632569,-4,0,1,-4,-3,-3,-4,2
1511883766641594,-4,-12,-12,0,-3,0,-2,2
1511883766641594,-8,-6,-2,4,-2,-2,-4,4
1511883766655632,0,-4,-6,6,2,0,-6,-2
1511883766655632,4,4,5,4,6,2,-6,1
1511883766662649,0,4,-1,-4,-2,1,-4,-1
1511883766662649,1,-12,-5,-5,-6,-2,4,0
1511883766678692,-3,6,1,-2,-6,-3,5,3
1511883766678692,17,1,-7,-2,-4,-4,-5,-37
1511883766679695,-12,-8,1,-4,-4,1,17,47
1511883766679695,-20,-5,-12,-1,-3,3,-2,-7
1511883766691728,-4,0,-8,-5,2,6,1,4
1511883766691728,6,-5,24,12,4,3,0,-8
1511883766700778,-18,-3,-15,-5,-5,1,-2,-22
1511883766700778,10,-2,1,-3,-7,1,-3,-2
1511883766715792,2,3,5,3,-5,1,-1,19
1511883766715792,-9,-2,-17,-7,-1,-3,-3,10
1511883766722311,7,-3,4,-2,6,-2,-2,-5
1511883766722311,0,-32,0,-1,3,-7,-3,7
1511883766738856,-3,5,0,-4,0,-6,-5,-23
1511883766738856,7,0,-5,-2,2,-5,3,7
1511883766739859,-27,-4,1,-3,-4,-9,-4,-5
1511883766739859,16,-1,-15,-8,-2,-1,-4,-6
1511883766751891,8,3,19,1,-1,-1,-4,-16
1511883766751891,-7,-3,17,-2,-4,4,4,21
1511883766760915,8,-1,-23,4,0,4,-8,5
1511883766760915,-4,15,13,3,-1,5,-6,-2
1511883766774951,6,12,5,4,-3,0,2,18
1511883766774951,-1,-3,-12,-4,-3,-1,7,15
1511883766781996,33,10,27,5,-2,-4,-1,-26
1511883766781996,-25,-8,-13,3,-5,-1,1,-16
1511883766797011,2,-3,5,7,-4,-1,-2,2
1511883766797011,-36,-16,-20,-2,-6,-2,-13,-32
1511883766806035,-5,4,-8,1,2,4,7,24
1511883766806035,30,9,1,-2,2,2,-1,9
1511883766821097,-15,13,6,-1,2,-6,-3,-13
1511883766821097,0,-8,-10,-2,4,0,1,5
1511883766823102,-7,15,15,-2,1,-7,-9,-12
1511883766823102,1,-1,-11,-4,4,-1,1,16
1511883766843189,0,7,16,-3,0,-2,-3,-10
1511883766843189,10,-10,-9,-6,-1,-5,6,16
1511883766845167,10,-4,-5,-1,-5,-1,7,9
1511883766845167,-7,14,18,0,-1,-3,2,-13
1511883766857217,9,-12,-14,1,-1,1,3,4
1511883766857217,-10,3,8,1,0,3,-1,-8
1511883766866223,5,1,6,-1,1,5,-4,-1
1511883766866223,-9,-2,-8,-7,-2,-3,-2,-9
1511883766881263,-33,-9,-11,-3,3,-2,-3,-2
1511883766881263,11,11,14,1,0,-4,-3,6
1511883766882266,-9,-9,-9,0,-1,-2,-6,-11
1511883766882266,3,23,11,11,-5,-5,-2,2
1511883766903323,9,2,-9,4,-7,1,5,3
1511883766903323,9,2,5,4,-8,0,1,9
1511883766905327,19,-7,-10,3,-5,5,3,-11
1511883766905327,-16,-1,0,-14,-9,1,3,-3
1511883766917392,3,-6,-12,-11,2,3,4,1
1511883766917392,-4,-2,6,-3,5,0,2,2
1511883766926385,-8,6,-4,-2,4,-4,-4,-4
1511883766926385,14,-12,4,7,8,-1,-4,4
1511883766940433,-2,-13,-9,-1,-3,-4,-3,1
1511883766940433,7,23,5,8,0,-1,-1,1
1511883766947454,-5,-8,5,-3,-2,1,-9,-15
1511883766947454,2,-11,-15,2,6,3,8,27
1511883766963495,2,-5,7,-6,-3,-2,0,3
1511883766963495,2,-6,-11,3,11,0,-3,-11
1511883766965502,20,1,13,-7,-4,-7,0,2
1511883766965502,-32,-13,-12,-2,-1,-7,-4,-6
1511883766977533,14,19,5,0,3,-4,-5,-4
1511883766977533,-9,-20,-9,-3,-4,-4,-2,1
1511883766986556,-9,5,-9,-2,-4,0,1,-9
1511883766986556,17,4,-5,1,-3,2,-4,0
1511883767000594,17,8,7,8,-2,4,2,8
1511883767000594,-53,-14,-11,0,-5,2,-3,-20
1511883767007801,-9,19,23,3,-2,3,1,-8
1511883767007801,9,-1,6,2,-3,-3,2,9
1511883767024160,-4,-16,-34,-2,1,-5,0,-5
1511883767024160,6,11,20,-1,1,1,3,8
1511883767025708,-3,-8,1,16,4,3,-4,-2
1511883767025708,-6,7,13,-9,-3,4,6,-6
1511883767036902,-5,12,14,6,4,5,1,-2
1511883767036902,10,-11,10,2,-6,-4,-1,2
1511883767045926,-2,-14,-24,-5,6,1,6,12
1511883767045926,15,10,7,0,3,-6,-3,-9
1511883767060966,-4,-5,-20,-10,0,0,0,4
1511883767060966,17,6,2,2,5,1,0,3
1511883767066985,-6,6,5,-2,-3,-3,-4,2
1511883767066985,-2,-7,11,4,1,-3,2,-2
1511883767084184,11,-5,-12,-6,-4,-5,0,-7
1511883767084184,3,15,12,-10,-7,0,1,9
1511883767085032,5,-10,-13,3,1,-2,-1,18
1511883767085032,12,6,10,4,-1,1,-4,-5
1511883767097062,-6,-10,0,2,3,1,1,2
1511883767097062,4,0,-3,-7,0,-1,-2,-14
1511883767106086,-5,-6,-8,-7,-1,-6,3,-6
1511883767106086,-6,-3,-23,0,-2,-1,0,-18
1511883767120628,-17,-3,-1,1,-5,-1,-2,10
1511883767120628,13,-4,1,2,-6,0,-6,-1
1511883767127647,-3,4,-6,-6,-3,4,-5,3
1511883767127647,16,8,-4,9,1,1,-4,-14
1511883767143724,-30,0,3,4,-3,-3,-5,-12
1511883767143724,0,2,-13,-1,1,-1,5,4
1511883767144724,11,-15,4,-1,-1,-4,4,-4
1511883767144724,25,22,8,-4,-4,2,-3,6
1511883767156759,0,-16,-6,-8,-5,1,0,12
1511883767156759,0,5,5,-5,0,1,-2,1
1511883767165783,-33,-10,1,2,-2,-1,-2,-5
1511883767165783,-31,-2,-4,-2,5,0,5,5
1511883767180849,6,-1,8,2,2,-1,5,-6
1511883767180849,35,-2,-12,-2,1,7,9,13
1511883767186837,-50,5,-4,-1,-3,1,2,-25
1511883767186837,4,-13,-8,-1,-6,-1,1,-2
1511883767203985,0,4,0,2,-3,-7,-3,8
1511883767203985,-3,3,18,-1,-2,-11,-8,-13
1511883767204924,11,9,-8,4,3,7,2,31
1511883767204924,-10,-11,-14,-2,2,3,-1,5
1511883767217423,21,5,9,0,3,-3,-6,-5
1511883767217423,-4,-1,-2,2,4,2,-2,-3
1511883767226444,-2,-5,0,-1,-1,-4,-9,-27
1511883767226444,2,2,-2,-3,2,4,12,34
1511883767240040,2,-4,6,-3,9,1,2,-2
1511883767240040,-4,1,-5,-8,-1,-10,1,-1
1511883767248063,13,9,9,3,6,-3,8,8
1511883767248063,1,-10,1,-5,-7,0,2,-9
1511883767263104,17,19,27,1,-2,9,3,-10
1511883767263104,-16,-10,-13,-2,-1,3,-2,-5
1511883767263104,41,8,2,-2,-2,-1,-5,-3
1511883767263104,-3,0,-7,4,5,-3,-2,4
1511883767285160,-19,-2,7,5,-2,0,-3,-9
1511883767285160,-11,-5,-9,0,-5,6,-6,-3
1511883767286165,3,0,4,-2,-3,2,-7,5
1511883767286165,-17,-7,7,-3,-9,5,-11,-15
1511883767299198,-4,-8,-18,-2,-5,1,-5,5
1511883767299198,21,11,11,1,-2,1,-5,-2
1511883767308222,-19,-9,-19,-7,-1,-9,-3,13
1511883767308222,7,6,-5,-4,1,-9,1,2
1511883767323273,2,-16,-15,-5,1,-3,4,-6
1511883767323273,-9,-5,-3,4,3,4,6,-18
1511883767323775,5,8,9,1,3,1,9,27
1511883767323775,0,-5,-8,-1,2,2,-7,-2
1511883767345463,-3,6,12,2,-3,2,1,14
1511883767345463,-1,-13,-2,3,-2,-1,1,1
1511883767346466,-2,-1,3,-2,-6,0,-3,-21
1511883767346466,13,6,22,14,11,-1,4,8
1511883767359501,-7,-8,-14,-12,-4,-5,3,-6
1511883767359501,-1,-4,-6,-5,2,-1,-4,1
1511883767367549,7,3,-13,0,-3,4,-3,-5
1511883767367549,-32,-14,-7,-3,-6,-4,-1,2
1511883767382589,4,4,-6,-4,-2,0,0,1
1511883767382589,-8,8,5,0,-5,-8,6,9
1511883767383565,24,-1,-5,-1,-2,-4,-4,-1
1511883767383565,-27,2,-2,6,-2,-2,-8,-18
1511883767405650,2,-4,-7,5,0,-1,-5,4
1511883767405650,-9,0,10,1,-6,-1,3,3
1511883767406627,0,-3,6,4,3,1,5,2
1511883767406627,11,-6,7,-2,2,-1,0,-7
1511883767419664,-5,0,-4,0,3,-4,-6,-3
1511883767419664,-11,1,-7,0,0,-4,-9,-4
1511883767428187,0,4,3,3,3,1,-6,-9
1511883767428187,9,13,3,1,0,4,1,6
1511883767442755,6,0,-4,-1,0,0,-1,6
1511883767442755,9,2,-5,-1,0,-1,3,8
1511883767443757,-14,-1,5,-3,-4,0,2,-2
1511883767443757,33,6,-3,-12,-4,-4,4,10
1511883767465803,-7,2,5,-4,-3,-4,7,-4
1511883767465803,-6,-2,-8,-3,-1,-1,2,-11
1511883767465803,-4,-1,3,-1,1,3,14,26
1511883767465803,3,-1,3,-2,-4,0,0,-3
1511883767480829,6,0,0,3,-2,3,-6,-4
1511883767480829,-5,-7,-4,1,-2,1,-8,1
1511883767487848,-1,-3,-2,-2,-1,-1,-7,-11
1511883767487848,-4,1,10,0,2,-4,-2,-1
1511883767502889,-1,0,-6,-4,3,-5,1,-1
1511883767502889,-4,-6,-3,-6,2,-2,-4,-6
1511883767503892,1,-1,0,-1,-2,-9,-5,-2
1511883767503892,-5,-4,-3,5,2,-6,-1,-2
1511883767525449,-8,4,7,2,-2,0,3,-1
1511883767525449,-3,3,-3,6,4,1,1,6
1511883767526452,-2,-4,1,6,4,4,-5,-2
1511883767526452,-6,1,1,-1,-3,1,-6,-5
1511883767539990,1,-6,1,0,1,2,-2,1
1511883767539990,-1,-2,-4,-7,-1,2,2,3
1511883767548011,1,2,7,-4,-3,-7,2,-8
1511883767548011,-11,-3,-10,-8,-2,-2,3,-9
1511883767563051,0,1,0,-6,2,3,2,-5
1511883767563051,0,-4,-7,-2,4,2,2,1
1511883767564054,-1,-1,-10,-6,-10,0,-6,-3
1511883767564054,1,4,-14,-3,-7,2,-1,1
1511883767585110,0,-2,-9,-1,1,4,2,-1
1511883767585110,-2,3,13,9,8,3,-3,4
1511883767586113,-6,-5,-5,-2,-1,-9,-6,-1
1511883767586113,-12,-3,5,-3,-1,-2,-5,0
1511883767600150,2,-5,1,-2,-5,-1,-1,-2
1511883767600150,3,-1,4,-4,-7,-5,-5,0
1511883767608171,9,-5,1,-3,2,2,-2,-7
1511883767608171,4,-2,-2,-1,0,-6,-6,1
1511883767623213,1,4,6,3,2,-8,-4,0
1511883767623213,-3,-3,0,-1,-1,-6,3,-5
1511883767623715,2,-3,-3,-2,0,1,9,0
1511883767623715,0,-2,0,2,1,6,7,-2
1511883767644924,-8,-4,-11,2,-2,3,-5,-2
1511883767644924,-6,0,-2,-4,-16,1,-6,0
1511883767645927,-3,2,-10,-2,-5,4,-1,3
1511883767645927,2,4,6,1,2,-1,-1,-2
1511883767668988,-2,2,11,8,7,1,4,3
1511883767668988,-3,0,1,0,2,1,4,0
1511883767668988,-4,-3,-1,1,0,-3,-1,1
1511883767668988,2,-8,0,-7,-3,-4,-4,2
1511883767683025,6,0,8,-7,-6,-5,-2,0
1511883767683025,4,0,-4,0,3,6,-1,-4
1511883767684028,-1,4,-8,4,8,-1,-4,-8
1511883767684028,-4,3,-12,0,1,10,-1,-4
1511883767705084,20,5,0,3,4,-8,-8,10
1511883767705084,6,-3,10,-1,-7,-11,3,2
1511883767706097,53,3,9,6,2,0,5,-7
1511883767706097,30,-5,-7,0,-3,-3,-3,-4
1511883767720126,19,5,-6,7,1,11,15,25
1511883767720126,-12,-6,-8,-3,4,7,-4,1
1511883767728147,-30,2,11,-5,0,1,-3,-1
1511883767728147,-19,2,3,-6,-1,-5,-8,-7
1511883767743118,-33,-2,2,-6,-7,0,-5,-9
1511883767743118,-16,4,-2,3,-1,-7,-2,0
1511883767744121,6,3,0,3,-2,1,4,13
1511883767744121,-6,-5,-1,-2,-8,-2,1,-4
1511883767765177,-9,-11,2,1,-1,-6,1,-11
1511883767765177,-6,-8,-1,7,4,-4,2,6
1511883767766179,-7,-4,-10,-22,-18,-4,-3,-3
1511883767766179,-7,5,11,12,8,9,3,7
1511883767788238,-12,-2,7,-1,-1,7,-7,2
1511883767788238,2,6,-8,0,5,2,-7,-5
1511883767789241,-20,-2,-3,6,6,-2,1,-3
1511883767789241,-13,-1,-9,-6,-3,-11,1,-6
1511883767803278,-7,-5,-7,-1,1,-5,-1,-12
1511883767803278,4,-2,-3,-1,7,5,5,-3
1511883767803278,-9,-2,-3,-3,5,1,1,-1
1511883767803278,6,1,1,-4,8,5,4,1
1511883767825339,10,4,0,-5,8,-4,-6,-4
1511883767825339,5,0,2,-1,-7,-9,-1,2
1511883767826341,-3,-6,7,2,-2,1,0,3
1511883767826341,1,-7,-10,3,-5,-6,0,-1
1511883767848990,1,1,-8,3,-3,-1,-2,-5
1511883767848990,4,-4,-12,2,-7,-1,-4,-3
1511883767848990,5,6,5,2,-4,5,0,2
1511883767848990,0,4,6,0,-4,-2,2,-1
1511883767863028,-5,3,0,-18,-10,-4,-5,0
1511883767863028,-2,4,7,-7,2,-1,-1,2
1511883767864030,-1,4,7,-5,-6,-5,-6,-2
1511883767864030,-2,4,7,4,4,1,-5,3
1511883767885086,0,-1,-2,2,-1,4,-1,-6
1511883767885086,0,-1,-1,-1,-3,11,2,-7
1511883767886089,-1,-1,1,-1,-9,0,3,-5
1511883767886089,5,6,17,8,4,1,4,-2
1511883767908147,3,-5,-18,-3,-4,-1,6,-1
1511883767908147,4,-4,10,4,6,1,5,0
1511883767909150,-6,-7,-6,-5,8,-2,2,7
1511883767909150,-6,-5,1,-8,-2,-3,-3,8
1511883767923190,-1,-3,-1,3,4,-4,-2,1
1511883767923190,1,1,0,-2,-1,0,-1,-2
1511883767923692,6,0,-2,3,-3,-3,-3,-9
1511883767923692,1,-4,-13,-4,-9,-2,2,-1
1511883767945251,1,2,3,7,-3,4,4,2
1511883767945251,-6,0,-10,-1,-1,-6,-3,0
1511883767946254,-5,3,4,6,4,3,2,-1
1511883767946254,-2,-1,2,0,-3,-6,-6,-2
1511883767968312,2,-2,-4,-6,-2,-2,-6,-3
1511883767968312,-3,0,-1,-6,-1,-1,-7,-4
1511883767969315,-2,-5,-2,2,6,5,-4,0
1511883767969315,6,1,-8,-1,4,4,1,-4
1511883767982350,2,-1,4,0,-1,3,4,1
1511883767982350,4,7,14,8,-6,3,6,3
1511883767983352,1,-2,6,0,-4,-1,4,0
1511883767983352,1,-3,-5,-2,-2,0,1,-3
1511883768005411,-3,2,11,1,8,-4,2,-1
1511883768005411,-3,-4,-2,-2,2,-6,0,0
1511883768006414,-4,0,9,0,-2,-3,-6,1
1511883768006414,-3,-8,-15,3,-2,-2,-4,1
1511883768028979,0,0,-6,-1,-3,-2,-5,1
1511883768028979,7,1,-1,2,-1,-6,-3,-1
1511883768029608,-1,0,-6,-1,3,-3,-6,3
1511883768029608,-7,-3,2,-4,1,-2,-4,1
1511883768043246,-3,-1,5,-2,-1,4,-5,-1
1511883768043246,-2,-2,-8,-7,0,2,-2,-3
1511883768044201,0,5,-1,6,6,1,3,-4
1511883768044201,0,3,0,-1,1,1,3,-3
1511883768065281,1,-3,-11,-6,-8,-2,2,-5
1511883768065281,1,-1,-1,-5,-6,1,2,-2
1511883768066180,2,-4,-1,-2,-4,1,1,2
1511883768066180,1,-3,1,-2,-3,1,-3,11
1511883768088241,3,2,10,5,-3,-6,-4,-2
1511883768088241,-2,-4,-5,0,0,-2,-2,0
1511883768088241,-5,-1,-12,-5,0,-3,2,1
1511883768088241,-5,2,1,5,1,0,4,1
1511883768103279,-3,2,7,4,2,-5,-3,1
1511883768103279,0,-4,-9,-2,0,1,-4,-3
1511883768103279,0,-3,2,-1,1,3,-4,-6
1511883768103279,4,-3,4,-6,-6,0,1,-6
1511883768125879,6,3,-3,0,4,0,6,0
1511883768125879,3,4,7,2,0,-9,-2,1
1511883768126379,0,-5,-3,0,1,-5,-5,-1
1511883768126379,-2,1,1,-2,0,-2,-2,-1
1511883768148109,-6,-5,1,-5,-2,1,-1,1
1511883768148109,-5,0,-14,-5,0,-2,2,3
1511883768149111,1,-3,-6,-5,-1,-1,-2,-1
1511883768149111,0,-4,4,1,0,2,-4,-2
1511883768163149,-2,-1,3,7,0,5,0,0
1511883768163149,-2,0,5,9,0,1,2,0
1511883768163149,0,0,-3,6,1,0,9,1
1511883768163149,6,-1,-2,1,3,-3,4,4
1511883768185208,3,-4,-2,-3,-1,-2,4,0
1511883768185208,1,-3,3,-2,1,2,1,-3
1511883768186207,-3,0,-2,-4,0,-3,-2,-1
1511883768186207,-2,1,1,-5,1,2,-2,-3
1511883768208267,-1,1,-1,0,0,-2,-3,2
1511883768208267,1,0,1,-1,-6,-1,1,-5
1511883768209270,2,-3,-2,-4,-6,1,3,-4
1511883768209270,3,-2,3,4,0,3,1,-3
1511883768223332,-1,2,-4,-5,-7,-4,-3,-1
1511883768223332,-3,2,-1,-2,-3,-1,-3,6
1511883768223833,-3,7,3,-1,-4,0,-8,2
1511883768223833,-6,-2,0,8,6,3,-3,-2
1511883768245927,-5,-5,3,2,-1,5,-1,-1
1511883768245927,-3,-9,-14,-3,2,1,-1,0
1511883768245927,0,-1,7,3,4,-4,-5,0
1511883768245927,1,2,-6,-3,-1,-4,-2,2
1511883768268013,0,1,2,2,4,-3,-4,2
1511883768268013,3,-1,0,-1,-4,-3,2,-1
1511883768269012,0,-1,-6,1,-4,2,7,0
1511883768269012,1,0,-5,1,-7,-6,5,-7
1511883768283052,-1,-2,-4,-5,-3,-3,2,-3
1511883768283052,-4,0,0,-4,-2,-1,-2,4
1511883768284028,-3,2,10,-2,1,-1,-2,-1
1511883768284028,-5,0,-4,-8,-1,-3,-2,-3
1511883768305111,-3,-2,-3,-2,-3,3,1,3
1511883768305111,2,-2,3,-2,4,1,-3,-3
1511883768306086,3,-4,-1,-1,0,9,5,5
1511883768306086,5,0,1,1,2,-1,0,7
1511883768328648,-1,0,-7,-4,-2,-3,1,2
1511883768328648,-2,0,-1,3,3,-1,0,-3
1511883768329688,-5,-1,-3,1,-2,-2,0,-5
1511883768329688,-2,-2,0,-6,-7,-2,-1,-4
1511883768342750,0,3,1,3,3,-2,-3,-5
1511883768342750,0,5,6,1,-2,-1,-3,-3
1511883768343726,1,5,-4,-4,-1,-2,-1,-6
1511883768343726,-1,0,2,7,4,5,-2,-1
1511883768365785,-3,-6,-3,1,-4,-2,-6,-2
1511883768365785,0,-4,1,-1,-9,2,0,2
1511883768365785,1,-10,-5,-2,-5,3,-4,6
1511883768365785,0,-1,-2,-3,0,-2,-1,3
1511883768388847,-1,0,3,-3,9,4,1,2
1511883768388847,-1,-2,-5,-9,1,-1,-3,-2
1511883768388847,1,-1,3,-2,-1,-2,-3,-4
1511883768388847,3,0,0,0,0,5,3,0
1511883768402883,1,1,5,8,2,-6,2,-2
1511883768402883,-2,7,5,9,5,-2,2,1
1511883768403886,-10,-2,-6,2,-2,-12,-1,0
1511883768403886,-1,1,-6,-1,-3,-5,-2,1
1511883768425446,3,-3,-8,-3,1,3,-3,-8
1511883768425446,3,-2,-6,-1,-4,-2,-4,-3
1511883768426481,3,-1,-2,-4,-7,-5,-2,0
1511883768426481,-4,-7,3,-8,-4,-4,3,1
1511883768448006,-6,-5,2,2,4,-2,7,2
1511883768448006,-3,0,6,-2,6,2,1,1
1511883768449009,0,-1,2,0,9,1,1,-3
1511883768449009,1,2,2,0,-6,1,3,-2
1511883768463047,2,5,-2,6,1,4,1,-5
1511883768463047,-3,1,-8,-2,-4,3,-3,-1
1511883768464049,-5,-10,-4,0,1,0,-7,0
1511883768464049,-5,-1,2,-1,-12,-7,-9,-3
1511883768485105,3,-14,-7,-6,-12,-5,-2,1
1511883768485105,7,11,5,3,-1,0,-1,1
1511883768486121,3,-4,-1,6,5,7,-4,-4
1511883768486121,15,7,3,0,-3,-2,8,6
1511883768508167,-9,-10,-1,-5,-7,-1,-4,-3
1511883768508167,0,2,-3,0,1,2,5,1
1511883768508167,-2,1,-1,0,2,0,6,5
1511883768508167,-8,-14,-4,0,9,9,-2,3
1511883768523209,6,9,-2,3,3,4,5,5
1511883768523209,3,-1,3,-11,-6,-5,-2,-1
1511883768523709,-2,-2,0,-6,-3,-7,0,-4
1511883768523709,-8,-7,-2,-7,-3,-8,-7,-9
1511883768545300,-5,-3,1,10,1,1,2,4
1511883768545300,-10,-33,-9,2,6,0,-2,-3
1511883768546302,11,59,10,-8,-3,-4,-4,0
1511883768546302,3,-5,2,-3,1,2,7,4
1511883768567382,-1,-16,3,-9,-2,-1,-4,-3
1511883768567382,4,-20,3,-1,-4,-1,1,-4
1511883768568373,-15,-44,-13,1,-7,3,9,-4
1511883768568373,21,50,8,15,9,2,-1,-2
1511883768582398,-6,-2,0,-4,-2,-6,0,-5
1511883768582398,-2,-11,-10,6,7,0,-2,1
1511883768583411,8,26,17,2,-5,-7,-10,2
1511883768583411,-17,-39,-14,-5,-6,-7,-6,-5
1511883768605458,2,4,2,1,0,-1,5,4
1511883768605458,2,21,-3,-2,-6,-5,-2,0
1511883768606461,-2,-17,-11,4,1,4,1,-3
1511883768606461,-7,0,-6,-6,-6,-2,-1,0
1511883768628020,9,21,7,2,-4,-2,-2,1
1511883768628020,-4,-4,7,3,14,12,0,-6
1511883768629023,-4,-4,-4,-6,-3,0,-3,-4
1511883768629023,3,11,6,4,1,5,4,2
1511883768643206,-2,-7,-4,-4,0,3,-4,-2
1511883768643206,3,1,1,2,-1,-1,-5,6
1511883768643206,5,16,0,-4,-5,-9,-3,4
1511883768643206,2,-3,-10,3,6,6,0,-2
1511883768665265,-8,-2,6,0,12,-4,-1,-10
1511883768665265,1,3,-2,-5,-16,-8,7,8
1511883768666268,2,-11,-3,7,18,7,0,0
1511883768666268,-5,-8,-7,-15,-24,-13,-5,4
1511883768687323,7,4,-3,8,-14,-8,-5,6
1511883768687323,-2,4,5,-8,-1,7,-5,-6
1511883768688326,-6,-15,-9,-5,4,12,-7,-6
1511883768688326,6,4,2,-15,-1,0,-5,-9
1511883768702363,-10,-1,-9,-2,3,10,1,-1
1511883768702363,-2,9,0,0,-10,-4,5,0
1511883768703366,-2,1,2,3,-16,-8,8,-6
1511883768703366,5,11,9,13,16,9,4,7
1511883768725426,5,1,0,0,8,-5,-4,-8
1511883768725426,-2,-3,5,-3,-4,-8,0,-4
1511883768726429,-2,-10,-4,3,13,8,3,-4
1511883768726429,-6,-5,3,0,-3,-6,0,-12
1511883768747486,16,-7,-12,-1,-1,5,3,-4
1511883768747486,-15,-1,-1,5,6,5,-2,4
1511883768748489,-10,15,-5,-6,-11,-5,-4,8
1511883768748489,-12,-9,-11,-6,-6,-2,-2,4
1511883768762526,-3,4,2,-9,-1,-1,0,8
1511883768762526,6,-14,-15,-10,-9,-8,-9,-9
1511883768763528,8,4,12,3,-3,0,-4,0
1511883768763528,7,3,13,8,3,0,-1,6
1511883768785587,-11,0,-6,1,3,-2,-1,-15
1511883768785587,1,-4,0,1,3,-7,1,-3
1511883768786590,-9,3,-6,-4,1,-10,-2,2
1511883768786590,5,8,6,7,10,0,-3,-3
1511883768807646,10,-1,-2,-6,0,-1,-1,8
1511883768807646,-1,3,-13,-4,-4,2,0,-5
1511883768808648,8,-10,8,5,-4,0,1,4
1511883768808648,14,-3,2,2,-2,2,0,-2
1511883768823189,-11,-2,4,-2,-4,1,-1,2
1511883768823189,-7,3,7,3,4,2,2,4
1511883768823690,-3,-1,2,-4,0,-3,6,2
1511883768823690,-3,-1,-6,2,0,-4,1,2
1511883768845749,-7,-1,-4,0,-4,-2,-1,-3
1511883768845749,8,3,-8,0,3,3,-1,-2
1511883768845749,-1,-4,-14,1,2,3,-4,-6
1511883768845749,-10,-1,-1,-6,0,1,1,-2
1511883768867808,4,6,14,6,1,-1,0,-5
1511883768867808,-2,2,4,4,4,0,0,3
1511883768868811,1,2,11,3,-1,-1,2,7
1511883768868811,-1,-15,-12,-4,-2,2,-2,0
1511883768882848,2,-1,-8,-4,-4,-2,-4,7
1511883768882848,3,0,4,-4,-3,-5,0,-1
1511883768883851,-4,-12,0,-3,1,-3,2,-9
1511883768883851,-1,-2,-11,3,3,2,1,-3
1511883768904907,2,1,7,7,-3,-1,0,-7
1511883768904907,4,2,2,7,0,0,1,-1
1511883768905910,8,2,-9,-10,-11,-4,-2,5
1511883768905910,-9,-3,-5,-3,-5,-4,0,-3
1511883768927969,1,9,4,-1,2,-2,-2,2
1511883768927969,-3,-1,4,-5,4,1,-3,2
1511883768928973,-1,-4,-4,-4,8,0,2,1
1511883768928973,2,-3,6,-3,6,-2,-2,-1
1511883768942008,-1,-3,-4,-5,-6,-2,0,5
1511883768942008,-1,-1,0,1,-4,-2,-2,5
1511883768950030,-4,-5,-7,-2,-4,0,-4,-2
1511883768950030,-3,-1,3,4,-3,3,-2,-4
1511883768965070,11,5,1,0,-3,3,1,-4
1511883768965070,-19,2,10,3,0,0,-5,-11
1511883768966073,1,4,2,-3,0,2,1,-1
1511883768966073,-2,5,1,-3,-1,2,2,2
1511883768988158,-3,-1,-10,-3,2,-2,-2,-3
1511883768988158,3,-3,1,-4,-1,-3,-1,-7
1511883768988158,-3,0,0,2,1,-6,-4,-6
1511883768988158,2,-1,-6,2,2,-1,-2,-5
1511883769002168,-10,-5,4,1,-8,-3,2,8
1511883769002168,18,-2,-3,0,-8,-2,3,7
1511883769010213,1,-8,-7,-3,-3,0,2,5
1511883769010213,-5,4,-3,-5,-1,-1,2,7
1511883769025771,-2,-4,1,1,1,2,-1,-2
1511883769025771,-6,-4,-8,-3,0,2,-4,0
1511883769026262,4,0,-4,3,1,1,-1,-4
1511883769026262,-2,2,10,9,8,-6,0,-8
1511883769048017,-2,2,8,0,6,-1,0,-5
1511883769048017,-2,-6,-10,0,2,-3,-2,0
1511883769049036,0,2,-5,-7,-7,-3,2,-2
1511883769049036,1,7,-1,-6,-8,-6,-1,0
1511883769062071,3,-7,-10,-4,-7,-3,-1,2
1511883769062071,7,3,12,-3,-2,2,-5,-6
1511883769070092,10,6,6,5,1,7,-2,-7
1511883769070092,-28,-7,-13,-2,-2,6,-2,-4
1511883769085132,-2,4,0,0,-2,-1,-1,1
1511883769085132,4,4,2,-1,-4,-2,1,16
1511883769086109,-2,-2,-2,6,0,-6,0,2
1511883769086109,5,2,9,3,-3,-1,3,1
1511883769108194,7,-3,-6,-3,1,-3,-2,0
1511883769108194,-2,-2,-6,-7,1,-7,-3,-1
1511883769108194,-2,-2,13,-1,7,1,0,0
1511883769108194,6,-1,-19,2,9,3,4,1
1511883769122205,-4,-4,-2,1,-1,2,1,-4
1511883769122205,-4,2,-8,-1,-4,2,3,-5
1511883769130728,-1,9,9,8,-2,0,-3,-8
1511883769130728,0,-6,0,-5,-7,0,-7,-7
1511883769145268,-3,-4,3,5,0,4,-1,0
1511883769145268,-2,-3,1,0,1,0,0,-3
1511883769146271,-1,3,17,-2,-5,0,-2,4
1511883769146271,9,-3,-3,0,0,-3,-4,0
1511883769168333,6,10,16,-1,3,-4,1,-4
1511883769168333,0,-9,-22,-10,-1,-3,1,-2
1511883769168333,-6,-1,-1,2,-2,-3,0,6
1511883769168333,15,-3,-7,0,3,-1,1,6
1511883769182367,-20,-9,-4,-2,1,1,0,-1
1511883769182367,0,1,5,-1,4,4,1,0
1511883769190409,-4,2,0,-3,3,0,-4,1
1511883769190409,5,0,5,-2,-3,-5,-2,3
1511883769205429,-7,5,5,4,-4,-4,1,4
1511883769205429,-3,-5,-2,2,-1,-3,2,1
1511883769206432,-3,-7,-8,3,-4,1,2,-7
1511883769206432,-8,-3,2,4,-1,2,0,-7
1511883769227990,1,-1,-11,-4,-2,2,-2,-5
1511883769227990,-3,3,4,-2,2,1,-5,-11
1511883769228992,8,5,-9,-10,-1,-8,-6,-4
1511883769228992,-3,-8,3,-6,-3,1,-1,3
1511883769251125,6,-1,-5,-2,0,0,-1,3
1511883769251125,-3,8,5,3,-4,-2,1,5
1511883769252129,-7,0,-9,-3,-2,0,4,3
1511883769252129,-7,-1,6,2,3,0,-3,5
1511883769265163,2,-2,-2,2,2,4,-2,4
1511883769265163,4,-1,-4,4,4,-1,3,-2
1511883769266166,3,-2,8,3,2,3,6,-1
1511883769266166,-3,1,3,-2,-1,-1,4,-3
1511883769288224,-4,-5,-2,-9,-7,-2,-3,-1
1511883769288224,16,1,-8,0,-6,0,-4,1
1511883769288224,-32,-14,-1,-2,-8,0,-7,-11
1511883769288224,0,-1,-16,1,-1,3,2,-3
1511883769311285,-2,4,-1,3,-6,-10,3,-4
1511883769311285,1,5,5,5,2,0,4,-1
1511883769312288,4,0,0,3,6,5,-7,0
1511883769312288,0,8,18,1,4,1,-6,0
1511883769325324,-4,-5,-3,-2,3,-1,-6,-1
1511883769325324,-2,-13,-4,-6,-6,-3,0,0
1511883769326355,11,1,1,-2,-2,-2,3,9
1511883769326355,5,-3,3,-1,0,-1,1,1
1511883769347385,3,-9,4,-5,1,-2,5,4
1511883769347385,1,7,4,-2,-1,-4,-3,3
1511883769348388,1,0,-11,4,5,-3,-2,-10
1511883769348388,2,13,1,3,0,-2,5,-3
1511883769371449,4,1,-2,1,2,-1,1,-2
1511883769371449,-11,-2,3,-7,-4,-1,-6,-2
1511883769371449,12,7,0,1,-6,-2,-6,2
1511883769371449,-6,-5,-5,-2,-6,-4,-7,-1
1511883769385486,2,-6,-2,8,1,5,0,-1
1511883769385486,0,11,4,0,7,5,1,0
1511883769386489,2,1,0,-1,5,4,4,7
1511883769386489,4,5,7,-6,-6,2,-1,2
1511883769407545,1,0,-14,-10,-9,2,0,-5
1511883769407545,-3,-8,-3,10,9,2,2,-2
1511883769408548,-1,0,3,-1,0,-1,2,-2
1511883769408548,17,2,-7,-6,-1,-5,2,5
1511883769431110,-4,2,1,-3,-2,-3,3,-2
1511883769431110,0,-3,-4,1,-3,-6,2,-5
1511883769432112,-7,-5,6,4,3,-2,2,-5
1511883769432112,3,2,14,6,4,3,2,1
1511883769445229,-4,0,0,2,4,2,-4,1
1511883769445229,2,-7,2,-1,-8,0,-4,-4
1511883769453251,-1,7,9,0,-7,1,-2,14
1511883769453251,-6,0,-4,-4,-8,0,-3,-3
1511883769467288,2,-5,-7,-8,0,-3,-6,1
1511883769467288,3,1,2,-5,-2,-1,-3,2
1511883769468290,-2,-12,-12,0,8,-5,-4,-5
1511883769468290,-6,-1,-1,4,4,3,-2,-6
1511883769491352,1,9,-8,5,-5,1,3,-3
1511883769491352,1,13,11,13,0,1,4,-3
1511883769491352,1,-11,-6,1,-5,1,1,-1
1511883769491352,-13,-10,-14,-1,0,1,5,5
1511883769505390,9,24,10,4,1,-3,-5,7
1511883769505390,-8,-11,11,-10,-7,-4,-5,6
1511883769506393,-1,11,-14,-8,-1,-3,-3,0
1511883769506393,12,1,9,4,7,1,-2,0
1511883769527952,-11,0,10,-3,-3,-2,1,-9
1511883769527952,-7,-6,-3,4,-1,2,4,-4
1511883769528955,7,-6,6,-6,-10,1,-3,-15
1511883769528955,1,5,-9,-9,0,1,-3,3
1511883769550514,-4,-5,1,-6,4,5,-4,0
1511883769550514,0,1,-8,-7,4,3,-3,-3
1511883769551517,-17,-2,2,3,1,5,3,7
1511883769551517,-12,-10,-1,1,-8,-4,-2,-7
1511883769565554,2,-9,3,-1,-2,-9,-1,0
1511883769565554,2,-1,-1,-1,0,-9,1,-4
1511883769566556,-2,-14,-11,-1,6,-2,5,-6
1511883769566556,8,22,-5,0,1,-6,3,2
1511883769587613,-13,-7,-12,0,3,2,-1,-20
1511883769587613,6,-2,10,0,0,3,4,25
1511883769588615,9,9,-7,-7,-4,2,-4,3
1511883769588615,-9,-3,-2,-8,-3,-3,-6,1
1511883769610674,20,1,3,2,3,2,8,7
1511883769610674,-5,2,-14,-4,-5,-1,-1,-6
1511883769611677,3,7,10,5,-6,1,0,5
1511883769611677,-3,-2,-3,1,-6,-5,-4,-10
1511883769625715,-1,-12,-3,2,-6,-4,-6,3
1511883769625715,-4,-12,-4,-3,-6,-1,1,-5
1511883769626217,5,1,8,-5,-2,-3,0,-1
1511883769626217,0,-13,6,6,4,3,-1,-3
1511883769647775,-1,3,11,0,1,2,-5,-5
1511883769647775,1,7,-11,5,1,0,-4,-3
1511883769648778,2,7,-8,2,-3,0,1,-3
1511883769648778,1,-2,-5,-2,-3,-2,1,1
1511883769670836,-4,-11,-1,-1,5,0,6,8
1511883769670836,-4,16,16,3,3,0,-5,1
1511883769671839,-4,-1,-3,-1,0,-3,-5,-2
1511883769671839,-14,-7,8,-1,-4,-5,-5,3
1511883769684901,-13,-3,-9,-5,-5,-3,-5,0
1511883769684901,-2,-4,-10,-3,1,-2,-1,-24
1511883769685882,-6,-9,4,2,4,0,0,6
1511883769685882,10,-1,-7,-4,3,2,1,-2
1511883769707935,10,-4,-2,-5,-4,1,3,0
1511883769707935,-3,-5,-5,-8,-3,-2,2,-7
1511883769708938,-1,0,-4,-5,6,-3,2,2
1511883769708938,-1,-4,3,-1,3,-5,-5,0
1511883769731499,-1,4,-3,3,6,-2,-6,5
1511883769731499,5,-1,-5,7,-2,-5,3,8
1511883769732000,7,6,6,7,-5,2,7,4
1511883769732000,-1,2,-3,1,-8,4,7,5
1511883769745037,8,12,3,5,-3,5,1,0
1511883769745037,-2,-6,-8,-1,-1,3,-2,4
1511883769746040,-4,8,-3,-2,0,-1,-3,-4
1511883769746040,-9,-7,-7,-2,5,-3,-4,-5
1511883769768099,-2,5,-5,-3,-5,-5,-9,-8
1511883769768099,-4,-9,11,2,-4,-3,-6,-4
1511883769768099,-1,8,14,2,-4,0,-1,-8
1511883769768099,-2,-2,13,3,-4,3,3,7
1511883769791159,1,-3,-14,-4,0,-3,7,3
1511883769791159,-1,-5,3,9,12,2,1,4
1511883769792162,0,-14,-8,-8,0,-4,0,1
1511883769792162,2,-1,-4,-8,-5,-3,4,-4
1511883769805197,-6,-3,12,4,-5,1,0,5
1511883769805197,0,-6,-19,-1,-9,2,-2,0
1511883769806199,3,2,-4,0,-9,-2,-3,-6
1511883769806199,3,2,-2,7,6,3,-1,-2
1511883769828260,0,0,6,-2,6,5,-2,0
1511883769828260,1,4,10,-4,1,1,-1,-5
1511883769828761,-10,-6,1,-4,-3,-1,-4,2
1511883769828761,1,-2,-2,1,8,-2,-6,3
1511883769851322,4,0,1,2,1,-5,4,-7
1511883769851322,-1,-13,-4,-8,-2,0,4,-4
1511883769851322,3,5,-8,-3,-2,-4,-3,-4
1511883769851322,-9,-3,-6,-2,-6,0,0,0
1511883769864357,-4,15,14,4,4,4,-1,9
1511883769864357,-6,-6,-1,-13,-4,6,0,5
1511883769872379,2,1,0,6,10,8,1,2
1511883769872379,-2,-13,-13,-1,3,-2,-4,-6
1511883769887418,2,3,-6,-2,-8,-4,3,2
1511883769887418,4,3,-3,-7,-9,-6,3,0
1511883769888421,2,-10,-2,-11,-10,-10,-3,-4
1511883769888421,5,4,4,-1,-6,-3,-3,0
1511883769911482,-4,-10,-1,-9,-7,-5,-2,0
1511883769911482,1,13,14,10,5,1,2,3
1511883769911482,-2,-2,-11,4,7,4,2,-3
1511883769911482,5,11,7,1,5,-2,3,-2
1511883769925020,-5,-9,-19,0,2,-1,-5,-14
1511883769925020,-2,3,9,6,7,4,0,-7
1511883769933041,5,-8,0,-6,4,5,9,-5
1511883769933041,6,6,1,16,9,7,2,-5
1511883769948121,4,12,21,-10,-3,4,-3,1
1511883769948121,1,2,3,-1,0,-2,-6,3
1511883769948121,-9,-11,-20,2,-6,-5,-4,4
1511883769948121,-1,4,8,-2,-11,-2,1,5
1511883769971181,2,-1,-7,-3,-5,-4,-2,9
1511883769971181,-5,-11,-9,-1,2,-3,-1,3
1511883769972184,-3,-3,0,-4,-3,1,-6,3
1511883769972184,-4,-1,13,-6,-1,0,-2,1
1511883769984216,-5,-2,-6,3,-1,3,1,1
1511883769984216,-2,5,3,-4,-5,0,1,2
1511883769993240,0,0,-1,6,-6,-3,2,-2
1511883769993240,-1,-3,-12,-6,-8,-3,0,-2
1511883770008280,-3,-6,-8,-2,1,-2,4,-8
1511883770008280,3,10,-4,5,9,-1,2,-6
1511883770008280,7,2,-1,3,11,1,1,-7
1511883770008280,13,11,11,2,4,-1,-1,-3
1511883770031348,-15,-18,-6,-2,-6,-6,-4,0
1511883770031348,3,0,3,-6,-7,-2,0,8
1511883770031848,3,-4,1,6,-1,5,2,12
1511883770031848,1,1,0,-6,-8,1,2,1
1511883770044497,-2,-10,1,2,1,0,3,3
1511883770044497,-3,-4,-1,-3,-3,-1,-6,-1
1511883770052519,-8,-4,-11,-7,4,-4,-6,-5
1511883770052519,-4,2,3,1,5,-1,-3,-1
1511883770067619,2,5,1,1,2,5,-5,-8
1511883770067619,-3,-2,-17,-1,2,0,0,-5
1511883770068566,1,-2,7,-3,-7,-2,-3,1
1511883770068566,-9,-13,-11,-5,-2,-4,-3,-2
1511883770090659,-1,-1,-7,0,1,-3,-1,-4
1511883770090659,-4,-2,0,2,-3,0,-5,0
1511883770091622,4,4,1,4,-3,1,-2,-7
1511883770091622,11,0,8,-2,-3,-7,4,-1
1511883770104675,-13,-5,-9,-3,3,-4,3,-5
1511883770104675,-8,4,-6,1,7,2,9,-2
1511883770112795,-2,-6,13,-3,-2,-1,5,-1
1511883770112795,-10,-11,-4,-2,-5,2,-3,-6
1511883770127906,8,-4,-9,1,-3,1,1,5
1511883770127906,-10,-7,3,3,-8,0,-5,-16
1511883770128819,12,19,-4,-2,-2,5,-1,17
1511883770128819,9,-1,13,4,-1,1,1,1
1511883770151551,-1,2,-2,1,2,-7,1,3
1511883770151551,0,-3,-5,-5,-2,-7,-7,-11
1511883770151551,2,4,2,-2,0,-3,5,10
1511883770151551,-5,3,-3,1,3,-1,2,-3
1511883770164568,5,2,16,1,-4,-2,-3,1
1511883770164568,9,5,-7,-2,-5,-7,0,3
1511883770172589,-33,-2,4,0,6,-5,0,-8
1511883770172589,-8,-4,-13,-4,2,1,0,2
1511883770187632,1,-5,2,-3,1,10,-3,-2
1511883770187632,-3,-1,4,-3,-4,7,-3,-8
1511883770188632,5,-2,3,0,-3,0,-3,6
1511883770188632,11,-4,-11,0,1,-4,2,13
1511883770210774,3,4,-8,1,3,0,1,-1
1511883770210774,7,7,10,5,3,0,-3,6
1511883770211693,-4,-1,-13,-2,1,1,-7,-5
1511883770211693,-2,-7,-15,-3,0,3,-3,3
1511883770233758,3,1,9,-1,5,-3,1,-9
1511883770233758,-3,-11,9,-1,0,-1,11,16
1511883770234256,-8,0,14,2,-4,1,2,-12
1511883770234256,3,12,6,-1,-9,-1,-2,0
1511883770248326,-10,2,-1,0,-4,-4,-10,-10
1511883770248326,0,3,-7,5,5,-2,-4,-7
1511883770248326,10,-2,-2,1,8,-2,-1,-7
1511883770248326,-24,-5,-3,-4,2,2,0,-5
1511883770278433,-1,-1,-3,-4,1,2,-2,15
1511883770278433,7,-1,6,-4,0,-1,-7,11
1511883770279408,7,-5,-6,2,1,0,-2,5
1511883770279408,-3,-1,10,3,1,2,0,-1
1511883770293472,4,-8,-7,-3,-2,7,4,8
1511883770293472,0,5,14,3,-4,4,6,0
1511883770294448,0,0,-4,0,2,2,8,-3
1511883770294448,3,0,-4,-4,-6,-2,8,0
1511883770307483,-1,2,-6,-5,-4,3,0,-9
1511883770307483,-4,-2,-2,-2,-4,0,-1,6
1511883770308485,-10,3,1,-1,-4,-5,-4,-6
1511883770308485,-5,5,-3,3,4,-7,-5,-9
1511883770331047,7,1,-6,2,3,1,-6,1
1511883770331047,0,-6,-5,3,4,6,-7,-2
1511883770332049,3,-5,-1,-3,-2,4,-1,-2
1511883770332049,1,-9,-6,-4,-1,0,2,1
1511883770353132,2,7,6,0,1,1,1,-2
1511883770353132,-2,3,-15,-9,-2,-2,-1,-1
1511883770354135,-9,-5,0,-1,-1,-4,-8,1
1511883770354135,11,0,2,0,-4,-2,-6,-3
1511883770368174,-7,-9,7,-2,-11,-10,2,-1
1511883770368174,2,-5,3,-9,-11,-7,2,0
1511883770368174,8,5,-10,0,-1,-4,-5,1
1511883770368174,5,5,-3,8,6,-3,1,9
1511883770391234,0,-1,-4,1,-6,-7,-1,-7
1511883770391234,7,-4,5,1,6,2,8,12
1511883770392237,-9,-10,13,-6,-3,1,6,2
1511883770392237,-6,-7,-12,-3,5,3,0,-2
1511883770413321,-4,3,6,0,8,1,-3,6
1511883770413321,-5,6,-3,-5,4,0,-6,-7
1511883770414295,-3,0,3,0,2,1,-5,-1
1511883770414295,3,3,9,1,-7,-4,-1,1
1511883770427833,2,4,9,1,-6,-10,2,-8
1511883770427833,-1,1,-5,5,0,-5,-2,-9
1511883770428836,1,-2,1,0,0,1,2,-6
1511883770428836,-5,-3,-3,2,-3,8,1,-5
1511883770450395,0,-4,-7,6,1,4,-4,4
1511883770450395,-3,1,-5,3,-5,-2,-1,-1
1511883770451398,-2,-2,2,5,1,-2,-3,1
1511883770451398,-2,-7,0,1,2,-1,-6,-3
1511883770473458,3,-4,-5,1,4,-4,2,4
1511883770473458,3,3,-1,1,7,-7,3,1
1511883770474459,1,2,0,0,1,-4,6,3
1511883770474459,2,3,1,-7,-7,-1,3,2
1511883770487493,-16,-2,-1,2,6,0,-1,1
1511883770487493,5,-4,-2,-5,-6,0,-3,5
1511883770488496,7,-1,-5,0,-3,0,-1,3
1511883770488496,-5,-2,-6,-3,2,0,-2,0
1511883770510555,-6,-7,0,-10,-3,0,3,-3
1511883770510555,-2,3,4,-5,1,-2,-3,-5
1511883770510555,-3,0,5,-7,-9,4,3,-3
1511883770510555,1,1,7,2,3,3,2,0
1511883770533619,3,5,5,-4,-2,-4,-2,-4
1511883770533619,-2,-1,-11,-4,-2,-4,0,1
1511883770534622,4,9,8,5,6,4,-2,3
1511883770534622,-4,0,-7,-2,-2,1,0,-2
1511883770547415,6,1,-7,1,5,12,5,5
1511883770547415,-1,-4,-3,5,-1,6,-5,-3
1511883770555436,0,-6,-10,-6,-13,-4,-9,0
1511883770555436,-2,-6,-5,-7,-11,-4,-5,-3
1511883770570476,2,4,-1,2,-3,-3,-3,-4
1511883770570476,-1,1,3,5,-2,-1,4,-2
1511883770571479,-8,0,0,-1,0,-2,0,-1
1511883770571479,-4,6,7,-5,4,1,-3,-2
1511883770593538,3,3,3,-5,-3,1,2,1
1511883770593538,6,4,5,1,5,4,3,-3
1511883770594540,4,-7,2,-1,4,-3,-2,1
1511883770594540,-2,-7,-8,3,1,-3,-3,1
1511883770607574,-1,2,-6,4,-3,-2,-2,1
1511883770607574,-5,2,2,0,-3,-2,1,-9
1511883770608577,-1,6,6,9,3,-4,1,-5
1511883770608577,3,2,-12,-1,1,-9,-4,3
1511883770630639,5,-6,-1,-3,1,-4,-1,1
1511883770630639,0,-3,-1,-14,-12,-1,1,3
1511883770631153,3,-5,-6,-1,4,4,4,1
1511883770631153,-7,0,4,1,-2,-1,1,-2
1511883770653402,-7,0,7,7,3,11,0,0
1511883770653402,-6,-6,3,-2,-5,2,-5,-3
1511883770654405,2,1,10,3,1,9,-2,-11
1511883770654405,3,1,-1,0,4,1,0,-2
1511883770667439,2,4,-5,-1,-6,-3,-1,0
1511883770667439,1,0,-11,-2,2,-7,-3,3
1511883770668456,8,5,-3,-7,3,-2,2,10
1511883770668456,1,1,2,-5,1,-1,5,-1
1511883770690501,0,3,6,-6,3,0,2,0
1511883770690501,-5,-4,2,4,4,1,-5,-2
1511883770691503,-6,-6,-9,1,-5,-5,-9,-5
1511883770691503,1,-3,-5,2,-12,-1,-4,-1
1511883770713562,3,-9,-3,6,3,-1,4,0
1511883770713562,5,-5,-7,-2,-3,-2,1,-1
1511883770714565,-1,-8,-6,0,4,-5,4,6
1511883770714565,-4,-1,2,1,1,-6,-3,3
1511883770728102,-1,2,-4,-5,-7,-1,-2,3
1511883770728102,-2,2,7,3,-2,4,3,0
1511883770728603,-4,-5,-11,-6,-5,1,3,-4
1511883770728603,4,5,11,5,3,1,2,-8
1511883770750674,-1,0,4,4,5,-1,-3,-10
1511883770750674,-1,3,0,-1,7,-1,-4,-10
1511883770750674,1,-1,-3,-4,-1,-3,-2,-4
1511883770750674,2,-1,-1,-4,0,3,0,7
1511883770773734,-1,-4,-1,-5,-2,-2,-5,6
1511883770773734,-4,-5,-4,1,-3,0,-6,7
1511883770774736,-3,1,2,3,-1,2,2,0
1511883770774736,-2,-5,-4,0,2,-1,2,1
1511883770786775,0,0,2,-4,-4,-2,0,-3
1511883770786775,-3,0,-1,5,2,6,3,0
1511883770795794,-3,5,2,-2,-7,2,-6,-2
1511883770795794,-1,1,4,-11,-3,3,-1,-1
1511883770809857,-1,-4,-2,3,2,1,5,-4
1511883770809857,0,-4,-4,-4,-2,-4,2,-1
1511883770810833,0,0,-3,-2,-6,-6,2,-6
1511883770810833,0,3,2,3,-2,-3,-2,-3
1511883770833897,-5,1,-5,-2,-4,-4,1,-2
1511883770833897,-1,2,3,-2,0,-1,4,-4
1511883770834398,-5,-3,7,0,2,2,-2,1
1511883770834398,-5,-6,3,1,2,2,0,3
1511883770847476,1,-2,2,9,6,0,0,5
1511883770847476,5,0,-6,4,-1,-2,-2,0
1511883770855498,10,3,-6,4,-2,-2,0,3
1511883770855498,6,-2,-9,1,-2,-6,-3,3
1511883770870562,1,-2,-5,-7,-3,-4,-5,-3
1511883770870562,-6,0,2,-6,-1,-5,-2,-3
1511883770871548,-7,5,11,0,-5,4,2,2
1511883770871548,-4,2,6,1,4,4,4,-6
1511883770893626,-3,0,5,-1,0,-3,1,-2
1511883770893626,0,-10,-17,-8,0,-2,3,-1
1511883770894632,0,-2,-7,-4,-1,-2,-4,-1
1511883770894632,3,0,0,-3,4,4,0,-2
1511883770906634,2,2,7,-2,-1,2,-1,-3
1511883770906634,0,-9,3,1,0,-3,-3,1
1511883770915657,-2,-5,-2,-2,-4,1,0,0
1511883770915657,-6,0,-3,4,3,10,-3,-1
1511883770930707,-1,-6,-6,0,-3,3,-5,4
1511883770930707,1,4,-2,0,-9,4,0,3
1511883770931202,3,-1,-6,4,-1,-1,-2,0
1511883770931202,4,4,-1,2,-5,-6,-5,-3
1511883770953597,4,9,11,-4,-3,-3,-4,-6
1511883770953597,0,5,-3,-6,-8,-8,4,-8
1511883770954599,-3,2,8,-3,-4,-8,5,-6
1511883770954599,-3,-4,5,-9,0,1,7,-4
1511883770967635,-5,-13,-16,-9,5,1,-2,-1
1511883770967635,0,-6,15,-3,12,2,-3,2
1511883770975685,-2,-2,-4,-5,7,0,-2,2
1511883770975685,-2,-7,-4,-3,-3,-1,-6,2
1511883770990723,1,2,-3,2,-1,-2,-7,5
1511883770990723,5,8,0,13,3,-2,2,3
1511883770990723,0,6,-8,3,-2,-4,4,-4
1511883770990723,-4,3,-4,-4,-8,-6,6,-2
1511883771013757,-7,2,-5,-9,-10,-1,1,-1
1511883771013757,-9,-5,1,-8,-7,-2,-1,1
1511883771014928,0,0,8,-5,-4,3,-6,4
1511883771014928,-2,3,2,1,6,2,-3,5
1511883771027298,3,-1,1,6,6,1,-2,-1
1511883771027298,2,3,-1,10,7,2,-3,-2
1511883771035320,1,-1,0,-3,1,0,3,-3
1511883771035320,2,-7,-2,5,-1,-2,-3,-5
1511883771050470,-4,-4,0,9,-5,1,4,-4
1511883771050470,-3,3,-3,10,-9,-3,-2,-5
1511883771051477,-5,2,-9,4,-7,-3,-2,-4
1511883771051477,-3,6,-6,-1,-6,1,-3,-2
1511883771073532,5,2,2,-1,3,2,0,2
1511883771073532,4,-5,4,-5,2,3,-2,0
1511883771074534,4,-1,4,-3,5,2,-4,1
1511883771074534,-4,-8,-2,-4,2,0,2,-1
1511883771087568,3,0,1,2,0,0,1,-1
1511883771087568,5,0,-2,3,2,-1,4,4
1511883771095590,6,-5,-1,2,0,-4,5,5
1511883771095590,6,5,7,-1,-3,-2,-2,3
1511883771109630,-4,6,-5,-9,-6,-4,1,-1
1511883771109630,-7,4,3,-6,1,-5,-3,-2
1511883771118651,-9,-5,-5,-4,1,-2,-8,-3
1511883771118651,-8,-5,-4,3,5,-2,-2,-4
1511883771133781,-6,-1,0,7,2,-1,0,-2
1511883771133781,-4,-5,-6,1,-2,4,5,-2
1511883771135707,4,-1,-5,1,-3,-5,4,1
1511883771135707,4,0,-3,-12,-8,-9,1,-1
1511883771155788,3,1,4,-13,-4,-5,1,-3
1511883771155788,0,-2,-2,-15,-2,0,-2,-1
1511883771157766,-3,-1,3,-5,0,9,2,0
1511883771157766,-1,5,-1,5,-2,7,-2,5
1511883771169799,-2,-7,-4,3,-4,4,-1,-1
1511883771169799,-1,-5,8,7,-3,3,-3,1
1511883771178822,-3,-3,0,1,1,4,-4,1
1511883771178822,-6,-1,0,0,3,-4,-3,-3
1511883771193863,-7,1,-1,-2,-4,-5,-2,-1
1511883771193863,-1,-1,-3,-6,-4,-10,-1,-2
1511883771194864,1,-4,-10,3,5,-6,2,1
1511883771194864,6,0,-6,7,1,1,3,0
1511883771216039,2,6,-2,7,8,8,5,1
1511883771216039,1,7,-2,2,1,6,1,1
1511883771217950,3,3,2,10,1,3,-2,0
1511883771217950,-1,-2,0,-3,-6,-5,-3,-2
1511883771230132,0,-8,-5,-4,-5,-9,-4,-1
1511883771230132,-8,-3,1,-10,-1,-4,-4,-5
1511883771239218,-2,-5,6,-6,2,-4,3,-7
1511883771239218,4,-3,3,-2,0,2,1,-2
1511883771253376,6,4,5,4,-4,4,-2,-1
1511883771253376,5,2,-1,0,-1,1,-1,1
1511883771255267,-7,-4,2,-4,-1,-3,-3,-2
1511883771255267,-4,-5,2,-7,-1,0,1,-1
1511883771276317,-3,-4,2,-6,8,1,1,-3
1511883771276317,1,-1,1,-1,1,1,-3,-5
1511883771277319,1,7,-5,-1,1,1,-5,0
1511883771277319,0,3,-5,2,0,-1,-2,0
1511883771289351,1,-1,-2,1,-7,-2,-2,4
1511883771289351,1,0,-1,0,-4,-3,0,5
1511883771298375,2,-2,2,-2,-4,-3,0,5
1511883771298375,5,-3,-1,-1,-1,0,2,2
1511883771313415,2,-4,2,5,3,-2,1,-3
1511883771313415,-3,0,1,7,0,-1,3,-2
1511883771315421,-6,-3,1,-1,-5,1,0,0
1511883771315421,-2,-4,-2,1,-1,1,-1,0
1511883771335498,-4,-3,-2,-2,-5,3,-1,-5
1511883771335498,-1,-1,3,1,-1,3,-6,-7
1511883771337503,-2,4,-1,-10,-4,-2,-1,-4
1511883771337503,-8,1,1,9,11,1,-2,2
1511883771349565,-3,3,-5,-7,-2,-1,-2,5
1511883771349565,-1,5,-5,-6,1,-3,7,0
1511883771358560,4,1,-5,0,-1,-1,1,-4
1511883771358560,3,1,-2,2,-4,2,2,-5
1511883771373623,3,4,-5,6,1,-2,-2,-2
1511883771373623,1,0,-3,5,-1,4,-3,3
1511883771374605,3,-5,1,4,1,1,-1,2
1511883771374605,1,-2,3,4,-4,-2,-1,-1
1511883771395685,0,-6,1,8,-3,-4,-2,-1
1511883771395685,-10,-3,2,-3,-5,-6,1,0
1511883771397665,-9,0,2,-2,-3,-3,4,3
1511883771397665,-3,-1,2,-8,0,1,0,1
1511883771409719,-1,-1,-5,-4,4,1,-3,5
1511883771409719,-2,-3,-8,5,8,1,-1,1
1511883771418720,-3,-5,-7,3,4,-2,-5,-3
1511883771418720,3,-4,-7,-7,-3,-8,-4,-7
1511883771433792,7,-3,-1,-8,-1,-2,3,-7
1511883771433792,6,-1,-1,-5,3,0,-1,-4
1511883771435266,1,5,0,0,1,1,-2,-6
1511883771435266,0,1,3,5,1,3,-6,0
1511883771455734,-1,-6,-2,0,-6,-2,-2,0
1511883771455734,-3,0,1,0,-2,5,1,2
1511883771457740,2,7,5,-1,3,1,-5,4
1511883771457740,5,-5,2,0,-4,3,1,2
1511883771469799,0,0,2,1,0,-1,-2,3
1511883771469799,2,-9,-3,0,0,-2,2,1
1511883771478796,4,7,9,-4,-4,-6,0,-2
1511883771478796,-3,-1,-2,3,4,-3,1,-5
1511883771493836,-4,3,-4,-6,8,3,0,-5
1511883771493836,-6,2,-9,-10,-12,-6,0,-2
1511883771494838,-1,-2,-11,7,0,1,6,1
1511883771494838,-6,-7,-3,3,7,2,1,0
1511883771515922,-3,4,6,-10,-10,1,0,0
1511883771515922,-8,9,5,-2,7,3,-5,-5
1511883771517927,-6,3,5,-5,3,0,-4,-1
1511883771517927,-5,3,10,3,-2,-1,0,6
1511883771529958,0,3,1,-4,1,0,0,7
1511883771529958,6,-4,-5,4,2,-5,-1,0
1511883771538960,5,2,0,8,-2,-5,-2,1
1511883771538960,2,0,-6,-3,-7,1,0,-5
1511883771553013,-3,-21,-10,-11,-13,-17,-4,-2
1511883771553013,2,-8,6,12,17,14,7,3
1511883771555017,0,12,-4,-5,-8,-2,-2,0
1511883771555017,2,-17,-7,0,-6,-1,-1,3
1511883771576085,7,13,4,-3,2,9,7,3
1511883771576085,-5,-10,-6,-2,-14,1,4,-5
1511883771578092,-10,-32,-12,8,28,13,-1,-8
1511883771578092,8,34,7,-21,-25,-15,-10,1
1511883771589120,0,-16,-4,10,-18,-7,-2,4
1511883771589120,5,11,4,10,24,9,-4,-4
1511883771598144,2,-7,3,-6,-14,-8,2,0
1511883771598144,-15,-30,-9,-3,14,10,6,1
1511883771613181,12,66,14,15,15,-1,-3,-4
1511883771613181,-2,-6,-8,-13,-4,-6,-5,2
1511883771619173,-3,-5,-7,-8,5,3,-3,-6
1511883771619173,1,-4,-4,-2,-6,-5,-1,-3
1511883771636221,-7,-7,14,2,-6,-4,1,1
1511883771636221,-6,-7,-1,-5,2,4,-1,1
1511883771637226,-7,-22,-3,-1,2,-2,-6,-1
1511883771637226,0,4,-3,-5,-22,-10,2,1
1511883771649285,2,-17,-13,3,21,8,10,2
1511883771649285,6,20,10,1,-20,-16,0,4
1511883771666304,-6,-17,-4,-8,-15,10,7,3
1511883771666304,-4,-10,-10,7,17,16,-7,-4
1511883771673346,-6,-4,-7,2,3,6,-6,-10
1511883771673346,2,-18,-6,-6,-10,-14,-8,-6
1511883771675351,9,26,6,4,-17,-9,-2,1
1511883771675351,-3,-9,3,1,8,0,2,4
1511883771696392,6,28,16,3,-8,-2,0,6
1511883771696392,-1,-5,11,-1,8,7,3,-2
1511883771697388,-6,-4,-11,-5,13,0,0,-8
1511883771697388,5,13,11,-7,-9,-14,4,-4
1511883771709448,-7,-24,-10,3,19,0,1,-10
1511883771709448,0,10,-3,-9,-5,-3,1,0
1511883771718443,-1,15,11,13,2,4,-5,4
1511883771718443,-3,0,-4,8,9,12,-7,-3
1511883771733508,-4,-5,-13,-7,-5,6,-2,-5
1511883771733508,2,3,-5,-1,-10,-2,-1,0
1511883771735513,8,-1,9,-4,-24,-19,1,11
1511883771735513,4,7,1,1,5,1,2,9
1511883771756304,-7,-12,7,-3,-7,-2,-4,1
1511883771756304,-3,3,-5,10,11,1,1,3
1511883771757307,4,2,-5,-1,3,-5,2,-6
1511883771757307,-6,-14,-5,-1,7,-10,4,0
1511883771769339,3,16,11,4,4,-1,1,3
1511883771769339,5,-8,-13,0,3,-3,-5,-6
1511883771778361,-7,-6,-13,0,2,-2,-1,-4
1511883771778361,41,20,9,1,0,3,1,17
1511883771792420,-57,-23,-18,2,4,6,-7,-28
1511883771792420,-11,-8,2,-2,-6,2,-7,2
1511883771807466,-4,-1,4,1,4,5,-2,-9
1511883771807466,4,14,-3,2,5,2,2,9
1511883771815491,-1,-11,4,-5,-6,-5,2,8
1511883771815491,5,12,23,-3,-5,-2,1,-1
1511883771817466,3,10,17,6,5,5,1,1
1511883771817466,-5,-5,-2,-1,-2,0,-1,-12
1511883771830038,17,-2,-2,-3,-8,-4,4,-6
1511883771830038,-4,4,-6,2,-7,-2,0,3
1511883771838268,6,0,-12,-1,-3,-3,-4,3
1511883771838268,-7,-2,-6,-2,-4,-6,-7,-4
1511883771852304,1,-5,2,-2,0,-6,-4,11
1511883771852304,2,3,0,2,5,-3,0,0
1511883771859350,0,-6,9,0,1,0,4,1
1511883771859350,-9,2,-1,0,-1,-2,2,-13
1511883771876368,6,-7,-17,-4,-1,5,7,8
1511883771876368,12,1,3,0,1,2,4,9
1511883771877372,-3,-10,-3,-5,5,9,-2,2
1511883771877372,-6,2,21,0,3,6,-9,-4
1511883771889430,7,9,9,7,6,3,-9,0
1511883771889430,1,-6,-12,-8,-2,-2,-4,-4
1511883771898428,5,3,-5,-2,-2,-4,2,0
1511883771898428,-4,2,-1,-3,4,-2,3,-6
1511883771912492,3,0,3,-10,-1,-1,3,1
1511883771912492,5,-2,-15,-5,4,0,-2,-3
1511883771919513,-3,-6,-12,-5,4,-3,-3,3
1511883771919513,9,8,1,-1,-3,-4,2,7
1511883771936044,-4,-6,8,0,-3,-3,-3,6
1511883771936044,-24,-10,-12,0,-5,2,-1,-2
1511883771937107,4,2,8,1,-6,-1,-3,-1
1511883771937107,1,-9,-3,0,-5,-3,0,-3
1511883771950143,7,4,-1,7,-3,-7,1,-3
1511883771950143,-4,-1,1,7,1,-7,3,-6
1511883771958191,-3,10,2,12,0,-2,2,-5
1511883771958191,-1,1,-11,23,1,-1,-3,0
1511883771973232,-11,-7,3,15,-4,1,1,-2
1511883771973232,0,-19,-10,8,-3,-4,-2,-4
1511883771979219,1,13,14,13,0,-1,0,2
1511883771979219,1,-3,-1,0,-1,5,2,3
1511883771996267,2,-5,-29,-10,-2,2,-4,0
1511883771996267,1,10,18,-2,0,-1,-1,3
1511883771997267,2,-3,-3,-15,-9,-2,-1,0
1511883771997267,-16,-1,3,-8,-3,1,2,0
1511883772009300,11,2,21,-10,-5,-3,-7,0
1511883772009300,3,3,-18,-16,-4,4,-4,5
1511883772018365,-2,4,3,-6,1,2,-8,-2
1511883772018365,-4,-3,-14,-12,-7,2,-3,-4
1511883772033428,1,9,-2,-3,0,-2,4,-5
1511883772033428,-2,-9,8,1,4,-3,2,0
1511883772039904,1,-4,-2,-9,0,3,3,-1
1511883772039904,2,-8,-10,-4,-2,2,2,-3
1511883772055947,1,-9,-1,-9,3,0,2,-3
1511883772055947,4,1,7,-5,3,6,-1,-3
1511883772057953,-4,-4,-1,-2,0,4,-1,0
1511883772057953,-6,1,5,4,1,2,0,0
1511883772069981,-2,2,-9,1,-2,4,-1,5
1511883772069981,-4,1,7,8,0,3,-2,-1
1511883772079006,-3,-12,-20,0,-2,3,5,-1
1511883772079006,4,5,7,-1,-5,0,-1,-6
1511883772093211,4,-2,-6,1,-6,0,1,-3
1511883772093211,2,-1,-1,-6,-6,-3,1,2
1511883772100062,-1,-2,1,0,4,-4,-6,0
1511883772100062,-9,-8,1,-2,7,-9,-8,-1
1511883772116277,3,4,1,-2,4,-5,-4,0
1511883772116277,-9,-1,-9,2,-3,-2,1,-4
1511883772117108,8,-1,7,4,-9,-5,1,20
1511883772117108,-9,-6,-3,-3,-6,0,-2,3
1511883772138234,6,2,14,-2,-4,5,0,3
1511883772138234,-1,5,3,-1,-3,2,5,1
1511883772140239,-6,-3,-17,3,2,-1,1,-14
1511883772140239,12,3,8,3,-2,-2,3,12
1511883772152449,-2,-10,-12,-1,-1,-4,2,-1
1511883772152449,0,0,1,-7,-6,-3,-1,-8
1511883772161295,0,6,2,-7,-3,-1,-4,-6
1511883772161295,-2,3,-5,-1,-1,-2,-6,-6
1511883772176492,-4,-3,-9,-2,1,-5,-5,-5
1511883772176492,1,-2,2,-1,-1,-2,0,2
1511883772177443,1,-4,1,-1,0,-2,1,0
1511883772177443,-8,2,5,-2,-1,2,4,-4
1511883772198399,-5,1,-1,0,6,-1,-2,-3
1511883772198399,-3,3,2,-1,7,-5,-6,-2
1511883772200422,-1,-7,5,-7,1,-3,-3,3
1511883772200422,2,0,3,-2,9,1,0,-3
1511883772212474,2,3,-11,-6,-6,-2,7,1
1511883772212474,7,3,5,2,-2,4,7,5
1511883772221465,5,0,-11,-1,-4,0,2,-1
1511883772221465,-2,-3,9,2,-4,-6,-3,1
1511883772236128,-6,-10,-18,3,3,-4,-5,-1
1511883772236128,-2,-6,-5,4,1,-4,-3,-2
1511883772237193,-8,0,8,0,-1,-4,1,1
1511883772237193,1,-4,-15,-7,2,-2,-1,-2
1511883772258263,-2,7,18,4,-2,2,1,4
1511883772258263,7,-2,0,1,-1,2,-1,-3
1511883772260251,4,-5,-5,-2,-2,1,3,-7
1511883772260251,1,-2,-2,-4,-10,0,5,-7
1511883772272283,-2,2,12,2,4,2,2,-8
1511883772272283,-7,2,-8,-6,-1,6,-4,3
1511883772281307,-4,3,11,-2,-2,2,-4,5
1511883772281307,0,-4,-12,-3,-2,0,-4,5
1511883772303396,4,3,5,3,-1,-2,-1,7
1511883772303396,1,-8,-22,-4,2,-7,1,2
1511883772305371,3,7,6,7,11,-1,1,3
1511883772305371,2,-7,1,-10,-5,-1,-4,-1
1511883772326429,-3,-4,-4,-5,0,3,1,3
1511883772326429,1,14,26,6,2,4,-3,1
1511883772327933,-1,-5,-9,-4,-2,3,-4,-7
1511883772327933,0,1,14,4,1,4,-3,-4
1511883772332445,-3,-3,-9,4,3,6,-1,-10
1511883772332445,-5,-1,-8,2,-2,-4,1,-8
1511883772340824,-2,2,-7,-5,-12,-3,3,0
1511883772340824,5,1,-24,2,4,-5,-2,1
1511883772355864,-3,-4,2,-1,0,-3,-5,4
1511883772355864,-2,-5,4,-6,0,-3,2,2
1511883772357870,3,-3,3,-5,-1,-5,-3,-8
1511883772357870,-3,-2,7,-4,-1,-3,1,-1
1511883772377946,2,-2,1,-9,-7,-3,3,1
1511883772377946,0,2,-3,-3,-6,2,3,1
1511883772379940,-4,-3,8,7,-2,-1,3,0
1511883772379940,0,-1,7,8,1,0,1,3
1511883772391960,-2,-9,-20,-3,1,-8,-7,-2
1511883772391960,1,-2,-7,-3,2,-4,-6,2
1511883772400985,-4,-12,-9,2,-1,0,-4,-2
1511883772400985,7,15,28,0,1,-3,-3,-1
1511883772416024,-1,-6,-1,-7,2,-5,1,3
1511883772416024,0,8,7,0,4,-2,-4,3
1511883772424048,-8,-4,-10,-10,1,2,-1,0
1511883772424048,-11,-10,-20,-9,-7,-3,-2,-5
1511883772438147,4,2,4,16,9,10,1,-7
1511883772438147,0,-3,6,8,2,6,1,-12
1511883772440122,4,10,-8,-3,-2,8,3,-12
1511883772440122,-2,-4,-1,1,-2,2,5,-6
1511883772452153,-1,8,-2,-2,-4,-3,-1,1
1511883772452153,-3,-5,10,-1,1,-2,-6,11
1511883772461178,-5,1,5,1,5,1,-2,12
1511883772461178,-3,-3,-13,-5,-3,0,0,6
1511883772476217,-5,7,12,1,-3,-5,1,-7
1511883772476217,15,3,-4,10,6,-1,2,8
1511883772477220,-25,-14,-6,0,-5,-7,-7,-14
1511883772477220,-4,0,-3,2,-3,0,0,1
1511883772498304,1,-7,-2,-5,-9,-2,1,-7
1511883772498304,4,7,2,-5,-9,-4,4,2
1511883772500282,8,15,0,-2,-1,-6,3,6
1511883772500282,-1,-4,7,1,4,0,-3,-13
1511883772512342,-7,-7,-9,-7,0,0,-12,-4
1511883772512342,8,0,0,-13,8,6,6,14
1511883772521338,2,-22,-17,-7,8,1,-3,-5
1511883772521338,4,23,12,2,4,0,-1,9
1511883772536411,-5,6,14,3,-3,1,-2,2
1511883772536411,-7,-13,-12,5,-5,-3,-4,-4
1511883772538006,3,1,-3,6,-3,-7,4,-3
1511883772538006,5,-6,-13,2,2,-1,4,-3
1511883772558065,-5,6,2,2,5,3,7,13
1511883772558065,-2,11,9,-3,-3,2,-4,-12
1511883772560037,3,-1,0,-4,-3,6,-1,10
1511883772560037,-8,-9,7,1,-4,1,-6,-11
1511883772572069,15,2,-15,-7,2,-2,-5,-15
1511883772572069,-12,-10,-8,-3,-2,-5,-1,-11
1511883772581092,31,6,1,2,-3,-6,5,11
1511883772581092,-34,2,1,4,-3,-7,3,-4
1511883772596133,-7,-4,-10,1,-8,-6,3,10
1511883772596133,-8,-11,-9,2,-6,-4,-8,-13
1511883772597145,3,6,5,3,4,4,0,20
1511883772597145,-2,-14,-10,0,4,3,-7,-6
1511883772618191,7,12,11,4,3,3,4,29
1511883772618191,-4,-4,-1,3,2,-1,-3,-9
1511883772620196,0,7,17,8,2,0,-5,-6
1511883772620196,13,-6,-2,0,2,0,2,4
1511883772640944,-4,-11,4,-4,-1,-2,-3,-13
1511883772640944,24,6,1,-6,-6,-1,4,14
1511883772642973,-23,-4,-8,-7,-8,0,-4,-7
1511883772642973,5,4,-1,-1,-4,-2,-5,5
1511883772655985,-1,-6,-3,-2,-2,-4,-2,-8
1511883772655985,-10,9,5,3,0,1,4,-4
1511883772658004,-1,-5,-7,2,2,3,0,-9
1511883772658004,-5,-8,-15,-3,-1,1,1,4
1511883772678069,7,3,-1,6,5,4,1,-3
1511883772678069,-2,-4,-14,-3,2,1,8,-2
1511883772680058,-5,0,6,1,6,0,8,-6
1511883772680058,5,11,3,-2,-1,-4,4,7
1511883772692107,-3,-3,5,-2,2,-1,-3,0
1511883772692107,-8,-3,2,-1,1,1,-5,-7
1511883772708150,1,3,9,-2,-3,-2,-4,-1
1511883772708150,1,-14,-10,-4,-5,-2,-3,-2
1511883772716171,0,1,5,-4,-8,2,4,0
1511883772716171,1,2,9,1,-3,-2,-5,-4
1511883772717147,5,0,0,-1,-7,1,-4,2
1511883772717147,0,-3,2,-8,-2,2,-2,-2
1511883772738258,-4,2,2,2,1,1,2,-2
1511883772738258,2,2,6,2,2,-2,2,8
1511883772740232,3,-2,-7,0,11,-9,-6,-3
1511883772740232,7,4,2,-6,-4,-6,-5,3
1511883772752264,-5,-4,-8,-3,-3,-1,-1,0
1511883772752264,-4,0,-1,-7,5,3,-1,-5
1511883772761287,2,1,-10,7,5,4,-2,-5
1511883772761287,4,3,4,-3,-2,8,0,-5
1511883772775351,-3,-4,-4,10,3,3,2,3
1511883772775351,-6,-9,-6,2,-2,0,-3,5
1511883772782373,-6,4,2,2,-7,-5,0,4
1511883772782373,-1,5,2,5,1,-10,-2,2
1511883772798386,1,-8,-8,-9,-8,-12,-5,-3
1511883772798386,-2,-1,-5,5,4,-3,0,2
1511883772800391,1,5,11,4,2,-3,-1,-6
1511883772800391,-3,-6,-1,6,4,0,0,-5
1511883772812453,-3,-2,-5,-14,-12,1,0,-3
1511883772812453,7,1,0,5,6,3,0,-5
1511883772821448,3,-5,0,-16,-8,-1,4,1
1511883772821448,7,20,5,4,4,9,10,2
1511883772835515,1,0,21,0,-1,2,-1,-10
1511883772835515,0,-3,-5,-10,-7,1,-4,0
1511883772842050,-1,1,-7,4,0,0,-3,2
1511883772842050,-1,-16,-9,-5,1,-3,-6,0
1511883772858095,1,7,8,-10,0,-4,-4,1
1511883772858095,-4,-5,-9,-10,-1,0,-3,3
1511883772860074,-2,-3,-13,-10,7,-1,-2,1
1511883772860074,-5,11,8,-7,7,-6,2,4
1511883772872105,-2,2,-8,-10,-3,0,3,3
1511883772872105,-4,-13,-12,-3,-4,-1,1,-2
1511883772881129,0,14,25,-1,-5,4,1,-4
1511883772881129,-4,-14,-14,-6,-2,1,0,0
1511883772895167,4,-12,-10,-4,-8,-2,1,3
1511883772895167,0,-5,11,13,1,-3,3,-2
1511883772902185,-1,-11,-26,-2,-11,1,3,-2
1511883772902185,1,2,12,10,-5,0,1,-5
1511883772918228,-4,-1,-2,9,2,-1,-1,-6
1511883772918228,2,5,7,6,-4,-4,1,0
1511883772920234,2,-2,2,6,4,-3,-4,-1
1511883772920234,-1,4,1,0,2,2,-3,-3
1511883772932295,-4,-1,-2,17,13,5,0,0
1511883772932295,1,-2,-8,-9,2,3,-1,1
1511883772941477,-4,-6,1,-3,4,-5,-4,-2
1511883772941477,-1,3,-8,-6,3,-1,-6,4
1511883772955515,-1,4,-1,-3,1,-4,-6,4
1511883772955515,-2,-3,14,4,-1,2,-4,-7
1511883772962533,2,-3,-1,10,0,6,2,-3
1511883772962533,-3,-5,-3,4,-5,3,1,-5
1511883772978575,1,-5,1,4,-4,-2,3,-2
1511883772978575,9,6,7,0,-6,-6,3,4
1511883772984565,-14,-7,-13,-4,-3,-4,0,6
1511883772984565,0,-7,-5,2,7,2,3,0
1511883772992613,-4,-2,5,-5,8,-3,-1,-1
1511883772992613,4,-3,2,-1,2,-4,2,-3
1511883773000638,3,3,-2,-2,-3,-1,-1,-4
1511883773000638,-5,-5,4,6,-10,2,1,0
1511883773015679,0,2,2,7,-12,3,-2,-3
1511883773015679,-13,-2,-10,-3,-10,3,-2,-5
1511883773022232,5,-6,5,-3,1,3,1,-4
1511883773022232,7,11,2,-1,5,1,0,5
1511883773038400,17,-2,-12,-8,3,1,-2,3
1511883773038400,-19,9,8,1,2,-2,-2,-10
1511883773040339,15,0,3,3,-1,-5,5,19
1511883773040339,-11,-4,-11,-2,-5,-6,-1,-2
1511883773061533,4,0,-2,6,1,-2,-2,1
1511883773061533,4,0,-10,0,1,-3,0,-3
1511883773062427,4,8,11,2,1,-4,0,-2
1511883773062427,5,1,9,-2,2,-6,0,-2
1511883773075480,-7,-1,-7,-2,2,-2,-2,4
1511883773075480,-5,4,6,1,1,0,-1,1
1511883773082453,-6,-2,-13,-3,-2,2,0,-6
1511883773082453,0,-6,-5,-1,-2,2,-1,-1
1511883773098540,-9,-2,6,1,-3,3,1,-5
1511883773098540,-1,-6,2,-3,-6,-3,-5,1
1511883773100503,-6,-6,4,-1,-5,-3,-7,2
1511883773100503,-2,4,0,0,-6,-2,-4,-5
1511883773120553,-4,1,4,1,-1,-3,1,-6
1511883773120553,3,-1,-7,0,1,3,3,-1
1511883773123103,-3,1,-5,-1,1,1,7,-7
1511883773123103,-3,1,-16,0,2,-1,1,-16
1511883773135137,6,6,10,7,3,2,6,31
1511883773135137,6,1,-8,4,0,-4,-4,6
1511883773143664,8,1,6,-5,-1,0,-7,0
1511883773143664,-11,-4,9,-6,-1,-1,-3,-2
1511883773158702,2,-1,-6,-4,-3,-1,-4,-8
1511883773158702,-3,-4,-3,3,-3,0,-3,4
1511883773159704,-8,-6,0,5,-3,0,0,4
1511883773159704,3,11,5,3,1,-2,4,5
1511883773181890,-3,-1,-2,-7,-1,1,0,-5
1511883773181890,1,-2,2,-4,3,2,-5,6
1511883773182856,-5,-4,-5,-3,-3,-1,-7,1
1511883773182856,6,-8,-2,2,-3,-1,-4,-1
1511883773194899,8,-4,-5,-1,-5,-4,-3,-13
1511883773194899,-1,1,3,-1,-2,-1,2,6
1511883773203826,-4,0,-3,-5,0,0,2,-2
1511883773203826,-1,1,0,-4,2,4,5,0
1511883773218889,-3,7,1,-2,5,2,0,-9
1511883773218889,2,3,-2,-4,2,1,1,-2
1511883773219870,6,4,1,-1,5,-2,-1,-7
1511883773219870,-12,-5,-4,-3,1,-4,-2,7
1511883773240528,-3,-2,-2,2,0,-2,0,1
1511883773240528,3,-5,-1,-1,-6,-5,-3,-7
1511883773242531,-4,0,-2,-2,-3,-2,2,-3
1511883773242531,2,0,2,0,-4,0,4,-1
1511883773254567,-8,-7,1,-7,-5,0,1,0
1511883773254567,0,-1,-4,-3,1,4,1,-3
1511883773263586,-10,-2,-4,3,-2,1,-3,-6
1511883773263586,8,1,-3,4,-3,-1,-6,-3
1511883773278626,-7,-1,-1,0,0,-7,-8,-2
1511883773278626,0,0,6,-3,2,-7,-4,-6
1511883773279630,2,-3,-4,-4,-1,-3,0,-3
1511883773279630,9,-1,4,-1,-3,1,2,1
1511883773300685,5,4,2,5,3,4,2,-5
1511883773300685,-4,2,2,1,-1,0,2,-4
1511883773302691,0,5,7,-2,-1,4,-2,6
1511883773302691,-1,-1,2,0,-2,-2,-4,5
1511883773314722,1,4,-1,4,2,4,1,2
1511883773314722,-1,2,-11,-5,-4,4,1,5
1511883773323749,-3,0,-3,6,5,1,2,-1
1511883773323749,-1,-1,-10,-2,-3,-6,-3,-8
1511883773338327,0,2,-2,4,7,1,2,-2
1511883773338327,3,-1,-1,-2,-2,0,3,2
1511883773340332,3,-2,4,2,-1,5,1,2
1511883773340332,0,-1,6,-2,1,3,-1,-3
1511883773361388,-3,-6,7,0,-3,-1,-1,1
1511883773361388,-3,-7,4,1,-1,-3,-1,4
1511883773362390,-7,-6,6,-6,-2,-4,-3,5
1511883773362390,2,-8,-13,-2,6,2,1,-3
1511883773374452,-6,-2,-6,-4,-5,-6,1,-1
1511883773374452,0,0,-10,0,-5,-3,-2,-1
1511883773383447,3,3,5,2,4,-1,-5,2
1511883773383447,4,3,5,0,4,-2,-5,1
1511883773398487,9,2,0,-1,0,-2,-1,1
1511883773398487,3,0,6,-1,-3,-2,1,-3
1511883773400493,-2,-6,-6,-1,-8,-2,2,-5
1511883773400493,-5,-2,1,3,1,-1,3,2
1511883773420545,-4,-1,-3,1,3,1,-1,-3
1511883773420545,-9,0,-5,5,6,0,-4,-1
1511883773423062,-2,4,-2,-7,-3,-3,-2,-3
1511883773423062,3,3,0,8,10,6,-2,2
1511883773435086,-4,-1,-3,-9,-4,1,-3,1
1511883773435086,1,6,2,-3,-4,-5,0,2
1511883773443801,-7,-4,-7,0,8,6,2,-1
1511883773443801,-5,-2,-3,-12,-12,-3,4,-2
1511883773458841,1,-2,5,1,-5,5,5,0
1511883773458841,-2,-7,-2,-2,-2,1,-4,-3
1511883773459844,4,1,-2,4,-5,-4,-4,1
1511883773459844,2,3,-5,2,-6,-3,-2,6
1511883773480899,1,-1,-3,3,-4,-4,-3,5
1511883773480899,-3,-9,-5,-4,-6,-2,0,-2
1511883773482905,3,-4,5,-1,1,0,5,-5
1511883773482905,3,-5,0,1,7,-1,-2,-3
1511883773494963,2,3,-2,-12,-11,-8,-5,-3
1511883773494963,-1,5,6,5,5,4,-1,1
1511883773503989,-5,3,4,1,2,6,-1,-3
1511883773503989,-1,4,5,1,-4,6,-3,-2
1511883773517999,-1,-2,-4,0,6,2,0,1
1511883773517999,0,3,0,1,-2,-4,4,7
1511883773520004,-4,2,-3,-5,-5,-9,0,8
1511883773520004,-4,-2,1,2,-5,-4,3,3
1511883773541064,-3,-5,-6,5,6,-1,-3,1
1511883773541064,1,-3,-4,-1,1,2,-3,-3
1511883773542067,4,1,-2,3,1,2,-2,-7
1511883773542067,0,5,8,-6,-2,-2,-3,-8
1511883773554127,3,6,6,0,0,3,-2,-5
1511883773554127,0,-10,-8,0,2,2,-4,-1
1511883773564135,2,-6,-3,-2,-5,0,-2,2
1511883773564135,-5,-13,-13,7,4,3,-2,-1
1511883773578191,-5,0,17,3,-9,-1,3,-6
1511883773578191,1,2,-8,5,0,4,2,-1
1511883773580169,-4,-2,-3,3,6,1,-2,-4
1511883773580169,-4,2,-5,-7,-3,-6,0,-4
1511883773601251,-2,-2,-3,-5,9,-9,-1,-4
1511883773601251,-3,0,0,-6,3,-5,4,-3
1511883773602238,2,2,3,2,4,-2,3,2
1511883773602238,9,3,5,-6,-1,-3,2,3
1511883773614271,5,0,1,2,3,4,-3,-1
1511883773614271,4,2,3,0,1,4,-5,-4
1511883773623841,1,8,2,5,-2,5,-1,-2
1511883773623841,-8,-11,-5,-8,-10,-1,-2,-2
1511883773638377,-1,-9,-5,-6,-6,-6,4,6
1511883773638377,-1,2,9,-3,-1,-2,5,6
1511883773640406,-2,-2,-6,-2,-2,-2,-1,0
1511883773640406,0,1,-13,8,-1,2,-3,0
1511883773661440,-4,-1,-8,2,-3,4,-3,-1
1511883773661440,-5,-2,0,-2,-6,3,-4,-3
1511883773662443,-1,2,5,-5,-5,-6,1,-2
1511883773662443,0,1,10,9,4,0,5,-2
1511883773674473,-3,-2,-10,0,-4,-2,0,-1
1511883773674473,2,4,5,-4,-1,3,1,0
1511883773683506,0,-10,-3,-2,1,-4,0,-2
1511883773683506,1,2,0,-12,-3,-4,0,-1
1511883773697534,-2,4,2,-1,8,3,-2,2
1511883773697534,-2,1,-4,-2,0,3,-3,0
1511883773704553,1,4,8,2,-1,1,-1,2
1511883773704553,-3,-8,-13,0,-2,-6,2,-4
1511883773720597,4,1,3,0,3,-4,-1,-1
1511883773720597,-2,-2,-7,-6,-2,-9,-7,-5
1511883773722603,-1,-5,-6,-2,-3,-5,-6,0
1511883773722603,1,-1,9,0,-3,1,-3,3
1511883773734664,0,-1,3,-5,-1,4,-1,0
1511883773734664,0,-2,-4,-4,1,-4,-2,2
1511883773743215,2,1,0,-12,-1,-3,3,-1
1511883773743215,-1,4,1,-6,2,-2,4,-3
1511883773758253,-1,5,-4,-6,-2,-7,5,-1
1511883773758253,-5,-5,1,0,2,-5,3,-3
1511883773764270,-2,-2,7,2,-2,1,0,2
1511883773764270,1,-2,-8,-2,-1,2,-3,1
1511883773781342,-2,-4,5,4,-1,7,-4,-2
1511883773781342,-2,-4,11,5,0,2,-3,2
1511883773782319,-5,1,-3,0,-3,4,-3,-2
1511883773782319,-1,1,2,-1,-4,5,-6,1
1511883773794350,-1,9,-7,2,-6,-5,-1,2
1511883773794350,-2,6,-9,2,-5,-6,3,-1
1511883773803376,1,-2,-1,-2,1,-4,3,-3
1511883773803376,2,-2,3,-1,8,2,1,1
1511883773817412,-1,-5,-1,-3,0,2,-5,-1
1511883773817412,2,-5,6,5,0,6,1,-4
1511883773824964,-3,0,-4,1,-1,3,0,-2
1511883773824964,-6,1,1,-1,-2,1,3,-1
1511883773840538,0,-6,2,0,-1,0,1,-5
1511883773840538,3,-3,-9,-2,1,4,1,1
1511883773842508,3,-3,0,-1,2,1,-2,0
1511883773842508,-2,-2,-1,-2,0,-6,1,5
1511883773854567,-8,2,1,-1,-2,-5,1,3
1511883773854567,2,-1,-2,1,-2,-2,-2,0
1511883773863564,-8,2,-1,1,-2,-4,-8,-14
1511883773863564,2,7,7,3,3,5,8,25
1511883773877629,-3,4,-1,0,3,2,-6,-5
1511883773877629,-5,3,3,-2,1,2,-4,-21
1511883773884647,18,-2,-4,0,2,0,4,36
1511883773884647,-3,-7,-1,2,-1,-4,-3,-12
1511883773900689,3,-3,-1,-2,2,-2,8,0
1511883773900689,5,1,-5,-3,3,-3,2,-3
1511883773902668,0,2,-5,-4,-3,-3,-2,-8
1511883773902668,0,2,-2,-2,-4,-5,-4,-7
1511883773914700,-3,4,-2,-1,-7,1,0,3
1511883773914700,-6,-5,-8,0,-7,1,1,6
1511883773923725,-5,-1,2,5,0,1,0,-1
1511883773923725,3,-1,-4,-1,0,1,-3,5
1511883773938264,0,-4,5,-1,-1,-3,-5,-1
1511883773938264,-3,-4,-1,-4,-7,0,-4,11
1511883773944337,-5,0,-5,3,-9,4,-2,5
1511883773944337,3,1,-4,1,-7,2,-4,-5
1511883773961362,6,0,-9,1,-3,-4,0,0
1511883773961362,2,5,2,-4,3,-4,2,2
1511883773962365,-6,-7,1,-4,1,-4,2,-9
1511883773962365,-4,-2,10,0,6,-6,-1,-6
1511883773983422,0,-1,2,0,1,0,1,0
1511883773983422,-3,-2,-3,1,0,-4,0,5
1511883773985426,-6,0,-2,-1,-3,2,-1,-5
1511883773985426,-2,-4,-2,-5,-4,2,-1,-9
1511883773997458,3,-6,-6,1,4,-1,-3,-7
1511883773997458,3,5,3,3,1,-2,-1,-7
1511883774004503,3,6,-2,1,-1,0,-1,-4
1511883774004503,-4,5,2,2,0,3,1,-3
1511883774021522,-5,1,-1,-7,-6,5,4,4
1511883774021522,-2,-2,11,-3,-2,4,0,1
1511883774023144,0,-2,-5,1,5,6,2,-3
1511883774023144,-2,0,-5,1,-1,4,1,-2
1511883774043782,0,0,-5,4,0,1,0,-1
1511883774043782,-1,0,-4,5,4,-2,-3,-1
1511883774044659,-4,-6,-2,-3,3,-4,-4,-2
1511883774044659,3,-1,2,-6,-6,-4,1,1
1511883774056690,-2,-5,2,-5,3,-3,-3,5
1511883774056690,1,4,-3,0,8,-5,-4,0
1511883774065885,0,-4,-1,-9,-3,-2,-2,-2
1511883774065885,2,7,4,4,8,4,0,-7
1511883774080750,4,-3,7,-4,-6,-1,0,-10
1511883774080750,3,-8,2,-3,-3,-1,4,-8
1511883774082756,6,4,0,10,2,-5,6,-4
1511883774082756,3,0,-11,-11,-8,0,4,-2
1511883774103813,2,-3,-7,12,15,6,-5,1
1511883774103813,0,1,-4,-16,-9,-4,-8,2
1511883774104838,-2,-9,6,-9,-3,1,-7,0
1511883774104838,1,7,4,-2,-13,-7,-6,-1
1511883774116935,-11,-15,-1,-5,-8,-1,0,-3
1511883774116935,-6,13,7,3,-4,2,4,1
1511883774126378,-9,-7,-3,3,-9,-10,-5,-1
1511883774126378,-9,0,-3,6,5,-8,-2,-2
1511883774140920,5,7,-3,9,14,0,0,1
1511883774140920,-2,-2,1,1,2,8,0,-3
1511883774142928,-2,2,-4,-12,-11,1,0,-5
1511883774142928,2,-6,2,4,2,6,2,0
1511883774163981,2,0,-6,-4,-11,-5,1,1
1511883774163981,0,-6,2,7,3,-4,1,8
1511883774164984,3,12,1,0,4,4,3,5
1511883774164984,-3,-13,-8,-8,1,-2,-7,-8
1511883774177220,-2,0,-6,2,5,5,2,-7
1511883774177220,1,-5,9,-9,-6,-2,1,5
1511883774186040,2,6,-4,8,14,0,-6,-1
1511883774186040,-3,4,4,6,7,2,-5,4
1511883774201250,-2,-4,3,-4,-6,4,-2,0
1511883774201250,0,13,-6,-10,-8,-2,-2,-5
1511883774203084,-2,-7,-2,-3,-7,-3,-2,7
1511883774203084,-5,-7,-6,-3,-12,-15,-1,2
1511883774223656,1,9,-1,2,4,2,4,2
1511883774223656,1,-7,-6,-1,4,7,1,-8
1511883774225145,-3,-18,0,15,20,0,-3,-13
1511883774225145,4,2,-3,-5,-10,-7,0,-6
1511883774237180,-3,-2,9,6,-3,4,-2,-1
1511883774237180,-6,-3,-11,-4,-10,-2,-2,-2
1511883774246776,3,6,3,-4,-8,5,8,9
1511883774246776,-4,-1,5,2,8,-1,4,8
1511883774260787,3,14,0,-5,-4,-14,3,6
1511883774260787,-4,-4,0,11,21,8,-1,7
1511883774262789,-4,9,-5,-14,-19,-14,-8,-7
1511883774262789,4,7,1,-3,-16,7,3,5
1511883774283846,1,-7,2,-7,-10,1,1,-3
1511883774283846,4,-2,16,5,-2,-3,6,1
1511883774284848,2,-7,-4,1,16,4,-5,-6
1511883774284848,4,-8,-4,0,1,2,-6,-5
1511883774296911,-7,-9,-8,-2,-2,-1,-4,-16
1511883774296911,5,1,3,1,-3,-6,3,14
1511883774305904,-9,-5,5,5,-11,-4,5,-1
1511883774305904,-4,-11,-11,-2,7,1,1,4
1511883774320944,-9,-2,-9,1,4,2,-2,6
1511883774320944,-5,-25,-22,1,6,-1,-5,-8
1511883774322977,8,39,16,-5,-5,3,4,5
1511883774322977,4,-3,-4,-1,0,3,-1,2
1511883774343082,4,8,12,0,-6,3,-1,3
1511883774343082,-5,-5,-8,1,-2,1,-1,-6
1511883774345063,-2,-6,4,0,3,-1,0,0
1511883774345063,-8,-2,-7,-4,2,-3,-4,-8
1511883774357119,-2,2,4,0,-5,-2,0,0
1511883774357119,0,8,-2,-2,-1,1,-3,2
1511883774366122,2,0,2,3,7,3,-2,-4
1511883774366122,9,4,4,2,6,-6,1,2
1511883774381185,-9,-7,-2,-4,0,-6,1,4
1511883774381185,3,2,-5,-3,-1,-1,3,-5
1511883774382191,-6,-10,-8,-1,1,1,6,6
1511883774382191,1,3,16,2,3,1,3,-3
1511883774403219,3,-3,-13,-2,5,4,1,-2
1511883774403219,-3,12,13,0,-3,0,-2,-7
1511883774405233,-12,-18,-16,-11,-5,-4,-3,-10
1511883774405233,-4,4,0,-2,1,-2,-2,11
1511883774417255,12,-2,14,6,1,-9,-7,-4
1511883774417255,-1,3,-3,-3,-4,-5,2,5
1511883774426308,8,1,23,8,5,4,4,-2
1511883774426308,-7,-11,-18,-2,1,1,-1,1
1511883774440346,-6,-6,-15,-9,-4,-4,-3,-14
1511883774440346,-14,-9,-16,-3,-4,4,-2,-5
1511883774447365,-1,-5,-6,-2,-6,4,-6,-2
1511883774447365,-11,2,14,-1,-7,4,-4,1
1511883774463434,13,8,-9,-4,-3,-4,-2,2
1511883774463434,-1,-4,3,3,-2,-6,-1,-4
1511883774465444,2,10,2,4,-3,-4,2,3
1511883774465444,1,-15,-6,4,-1,-3,-3,-10
1511883774477476,2,0,11,5,3,2,1,8
1511883774477476,3,-2,-5,-5,3,0,-3,1
1511883774486476,1,3,5,3,3,2,-1,5
1511883774486476,8,-1,-17,-1,1,1,2,-6
1511883774500533,-2,2,-6,-3,-3,2,5,-1
1511883774500533,-2,-1,-9,-3,0,-1,4,0
1511883774502522,1,-2,8,-4,-6,-3,-3,3
1511883774502522,-2,5,4,7,-4,-1,-2,6
1511883774523600,-9,-5,-1,-3,-4,2,-1,11
1511883774523600,7,10,13,6,0,4,3,5
1511883774525106,-4,-10,-12,-4,3,-2,1,-5
1511883774525106,0,0,9,1,2,-6,-1,-11
1511883774537170,-5,-11,-7,1,1,-3,-2,-6
1511883774537170,7,0,4,-1,-2,-3,-5,-4
1511883774545736,4,0,2,-5,-5,-1,2,8
1511883774545736,-6,0,0,0,4,4,5,0
1511883774560746,2,8,2,2,3,0,-1,-3
1511883774560746,-6,2,-5,-3,-4,0,-4,-2
1511883774562751,-7,-2,-8,-5,-4,-2,-1,0
1511883774562751,3,5,8,-3,2,2,-1,6
1511883774583806,-5,-2,-2,-5,2,1,-2,6
1511883774583806,14,0,-4,0,-3,3,-2,3
1511883774584809,11,8,10,6,-1,2,1,-1
1511883774584809,5,-6,-9,-1,-1,-5,-1,-6
1511883774596872,0,0,0,-1,-6,-7,-2,-1
1511883774596872,-10,-6,-2,-2,-6,-7,-8,-5
1511883774605865,-5,-7,-13,-2,0,-3,0,4
1511883774605865,-13,-1,8,0,8,0,0,-4
1511883774619929,-7,-2,-6,3,6,2,3,0
1511883774619929,2,-5,6,-3,1,0,4,-4
1511883774627469,7,4,-2,-2,-1,0,-3,0
1511883774627469,9,4,2,-5,-6,-1,-2,5
1511883774642951,-2,3,16,4,-8,-5,-5,-5
1511883774642951,1,0,-2,2,-1,-1,1,0
1511883774650946,-4,0,5,5,1,1,0,-8
1511883774650946,9,-1,-12,2,-3,1,1,-3
1511883774656962,5,-4,0,-5,-4,-4,2,-2
1511883774656962,-8,-4,1,0,-8,-2,1,0
1511883774665986,-6,-2,-2,-3,1,5,2,1
1511883774665986,-10,1,-6,-6,1,2,2,-2
1511883774680022,-5,1,-8,-4,-1,3,2,0
1511883774680022,5,2,2,-2,1,-4,-1,-4
1511883774687068,1,-7,-6,2,4,-3,-1,-4
1511883774687068,8,-7,0,1,-6,-6,-1,0
1511883774703086,9,1,2,0,-3,-4,3,-3
1511883774703086,1,-3,5,1,5,-2,0,3
1511883774705088,-4,6,-1,-1,-5,-2,-3,-2
1511883774705088,-4,4,3,-3,-3,3,-1,0
1511883774717120,-4,-3,-4,-4,-2,3,-2,5
1511883774717120,-6,-2,-3,0,1,2,-5,-5
1511883774726174,-3,0,-8,1,-6,2,-1,4
1511883774726174,-5,3,-3,-1,-10,-1,-4,8
1511883774740214,9,5,5,-1,5,1,-5,-1
1511883774740214,-27,-8,-17,-5,0,-1,-2,-6
1511883774747231,0,-7,5,5,8,-1,-1,-3
1511883774747231,-2,-6,0,3,6,-3,3,-5
1511883774763298,3,-6,-2,1,1,-1,2,2
1511883774763298,4,1,2,-4,1,4,1,7
1511883774765280,-2,4,1,-3,-5,1,-3,-1
1511883774765280,-6,4,7,1,2,2,-1,1
1511883774777335,3,4,5,-1,4,-1,-2,-4
1511883774777335,-1,-5,-1,-2,-1,-4,1,2
1511883774786336,-3,-2,-6,-6,-5,-3,4,-5
1511883774786336,4,-4,1,-5,-2,-6,1,-6
1511883774800399,1,0,-2,2,-19,-12,1,-6
1511883774800399,7,6,4,8,15,11,0,-4
1511883774807391,1,3,-1,-2,0,-5,-8,-1
1511883774807391,-2,5,-3,-4,-25,-11,-5,8
1511883774823461,-3,1,-5,-2,4,5,-2,6
1511883774823461,4,1,-1,0,-12,1,0,2
1511883774825496,0,1,5,6,11,9,-4,-8
1511883774825496,-2,-12,-5,0,3,0,-6,-6
1511883774837527,-2,-8,-2,-2,-5,-4,2,-7
1511883774837527,8,-3,9,3,4,2,4,-1
1511883774846579,2,-1,-4,-5,0,-2,1,5
1511883774846579,0,1,7,-6,-5,3,0,5
1511883774860617,0,-3,-13,-2,2,4,0,7
1511883774860617,-2,-2,-5,-6,-1,-2,-2,0
1511883774866629,-3,1,-3,-4,-7,-6,0,-4
1511883774866629,1,10,-2,3,5,-2,2,-4
1511883774883649,-5,-2,5,4,6,3,-1,-5
1511883774883649,-2,2,-5,-3,-4,-9,-2,2
1511883774884652,-1,-6,-5,4,7,-2,2,0
1511883774884652,2,6,5,5,14,5,2,-3
1511883774896709,-3,1,-8,-4,0,0,-5,-5
1511883774896709,6,4,17,2,-3,0,-1,4
1511883774905734,-2,-17,-27,-8,-12,-3,-4,2
1511883774905734,2,-6,-1,-3,0,4,2,3
1511883774920784,-4,-1,-2,4,7,-4,1,4
1511883774920784,-6,1,-1,3,6,-4,2,1
1511883774927320,-6,7,3,2,1,5,3,2
1511883774927320,-7,2,-10,2,3,5,1,-1
1511883774943839,-2,5,4,-1,-4,3,-4,0
1511883774943839,1,-7,-7,-7,-8,0,-4,-1
1511883774944842,6,-4,20,0,-5,-1,0,-4
1511883774944842,3,-11,-12,-2,1,-1,0,-5
1511883774965898,3,1,4,-10,-5,-2,-4,0
1511883774965898,-1,8,6,1,-2,-8,-3,0
1511883774967904,-1,2,-6,0,-1,-3,-1,-6
1511883774967904,-2,-8,-2,-10,-3,-3,0,-3
1511883774979934,-3,-9,-3,3,1,1,-1,-5
1511883774979934,-2,-5,3,3,-1,3,2,-2
1511883774988959,3,4,-1,-1,-3,2,-2,4
1511883774988959,-4,7,6,4,4,5,3,-1
1511883775002997,-1,2,-2,-1,4,4,4,-3
1511883775002997,-6,-1,-8,-10,-9,1,-3,-5
1511883775005003,0,7,0,2,-2,0,0,-4
1511883775005003,-1,-7,-7,5,-1,-3,5,4
1511883775026066,-6,11,16,8,0,-2,0,5
1511883775026066,-5,1,0,6,2,-3,-2,5
1511883775028073,4,0,-3,-4,3,-4,-4,1
1511883775028073,3,-2,-4,-6,2,3,0,-2
1511883775039603,6,-3,-5,-4,0,-3,2,-2
1511883775039603,3,-15,-11,0,-1,0,-1,-1
1511883775048697,-2,3,1,2,1,-1,-3,1
1511883775048697,0,-5,6,3,-2,-2,-4,4
1511883775063848,-4,4,5,-7,-4,1,2,1
1511883775063848,-2,-5,-10,-2,2,0,5,-1
1511883775064863,-4,3,1,-6,5,5,3,1
1511883775064863,1,4,16,-1,0,-2,-7,-2
1511883775085943,0,-6,-11,-4,-5,-4,-3,-6
1511883775085943,-2,-1,4,-2,-6,-2,-3,-4
1511883775087802,3,-2,-11,1,-3,-2,-4,1
1511883775087802,-4,-10,-5,4,-1,-1,-3,-2
1511883775100003,2,4,7,3,3,2,-2,3
1511883775100003,1,0,-11,0,-2,2,-1,0
1511883775108856,-4,-4,20,5,1,2,2,-2
1511883775108856,-4,-4,-7,-4,0,-2,-1,0
1511883775123900,-1,-2,-13,2,-1,3,3,-1
1511883775123900,1,2,-6,2,-3,-1,2,-1
1511883775125416,2,9,-8,-6,-5,-2,3,0
1511883775125416,-6,0,-6,0,-4,-4,1,1
1511883775146159,7,-6,-4,-1,-1,-3,1,-3
1511883775146159,-1,-3,4,-2,2,2,1,-5
1511883775148072,-6,-14,4,-1,1,4,-3,1
1511883775148072,2,9,5,-5,-1,0,-7,-3
1511883775160138,-3,3,8,-2,-3,-3,-8,-4
1511883775160138,1,1,10,1,0,-4,-2,2
1511883775169127,-3,1,-5,-2,0,-7,3,3
1511883775169127,-1,5,-3,-3,-3,-5,6,2
1511883775183239,0,6,-10,-2,-3,-4,-2,4
1511883775183239,10,5,-9,0,2,3,0,1
1511883775185172,2,1,-2,1,6,-1,1,3
1511883775185172,-2,-4,-1,2,5,3,5,-3
1511883775206249,-7,-3,2,4,1,2,5,-6
1511883775206249,8,5,6,3,-4,1,-5,-6
1511883775207251,1,0,4,2,-5,4,-5,6
1511883775207251,4,0,1,2,-2,2,-10,-6
1511883775219310,9,-5,11,-1,-1,-1,-2,14
1511883775219310,0,2,-5,0,3,-3,1,6
1511883775228822,-5,-12,-8,1,0,-4,1,-10
1511883775228822,0,-1,-1,3,4,-3,2,-5
1511883775244115,-7,-6,2,-1,4,-1,0,-2
1511883775244115,-4,-2,12,-6,1,2,2,-3
1511883775244955,4,2,-19,-5,1,2,2,2
1511883775244955,-3,6,18,0,1,5,1,5
1511883775272998,-1,5,-4,-9,-4,-2,1,2
1511883775272998,-4,5,3,2,9,-5,4,6
1511883775275003,-6,-9,-5,-3,0,-5,2,-7
1511883775275003,0,14,-3,-6,-14,-6,0,-4
1511883775280016,0,-8,-6,6,0,4,-4,-4
1511883775280016,6,3,-10,1,-10,1,-7,-3
1511883775289075,2,-6,-1,-9,-8,-4,-3,0
1511883775289075,0,-6,4,4,2,-4,1,1
1511883775303077,-6,-1,-2,-1,-4,-4,1,-1
1511883775303077,-13,-4,-5,1,1,-5,-3,-1
1511883775305083,-4,1,-1,1,0,-3,-3,1
1511883775305083,1,-6,-1,-2,4,3,0,1
1511883775326190,3,-5,2,-3,5,3,0,-3
1511883775326190,5,1,6,0,-2,2,1,2
1511883775327669,3,1,4,-2,-11,2,0,1
1511883775327669,1,3,10,1,-5,4,-2,3
1511883775339727,-3,-5,-4,-2,0,4,-1,-3
1511883775339727,-3,6,5,1,0,0,1,-3
1511883775348227,-6,-3,-9,-1,-4,-2,2,0
1511883775348227,-4,5,8,0,5,-2,-1,1
1511883775363234,1,-1,-6,5,12,-2,0,5
1511883775363234,-3,-10,-2,0,4,-6,-1,2
1511883775365240,2,6,-4,2,4,1,-2,-3
1511883775365240,-5,-6,-21,-1,0,2,-5,-2
1511883775386295,2,8,5,-3,-7,-6,-4,-2
1511883775386295,-3,-5,-1,-4,-6,-9,-1,4
1511883775387321,-2,3,7,5,0,-5,3,1
1511883775387321,2,-4,-6,5,-2,2,8,1
1511883775399356,-3,-2,-2,3,-2,1,3,-4
1511883775399356,-2,-5,6,-4,-6,-1,2,-6
1511883775408353,-1,-8,5,-7,-6,-3,-2,-8
1511883775408353,0,-3,3,0,-4,-6,-7,-3
1511883775423393,0,0,-6,-7,-1,1,-3,-2
1511883775423393,-1,5,-5,-3,4,4,-2,4
1511883775425399,-4,-3,1,5,7,-3,-6,6
1511883775425399,2,-2,5,-18,-3,8,0,2
1511883775446092,-4,-2,-6,9,12,-1,-1,-7
1511883775446092,-5,-14,-10,-20,-20,-3,1,-10
1511883775447063,3,27,33,12,15,10,1,-8
1511883775447063,0,0,-6,7,4,-2,-2,-3
1511883775459123,2,-9,-25,-3,-5,-2,0,5
1511883775459123,9,5,6,10,6,1,-3,4
1511883775468148,4,-11,-13,-6,-12,-4,0,3
1511883775468148,0,3,8,2,-8,-1,5,6
1511883775484163,-5,2,14,-5,-6,-3,-2,0
1511883775484163,-4,-3,-9,4,2,-1,-2,10
1511883775485166,-4,-1,-6,-2,-4,1,-3,6
1511883775485166,-4,5,-11,2,5,-1,-1,-1
1511883775506222,-6,-9,8,-2,0,-2,-1,-3
1511883775506222,3,23,0,-9,-12,-8,-2,-6
1511883775507225,0,-9,4,4,2,2,1,-2
1511883775507225,0,-7,-8,1,-1,-4,-3,3
1511883775519255,-2,1,-4,-3,-2,0,0,-2
1511883775519255,-3,-8,5,1,11,6,1,-5
1511883775528782,-4,7,-1,-4,-1,-2,-1,-7
1511883775528782,-5,-8,-11,-6,-4,-4,-2,-5
1511883775543349,3,2,13,8,5,-5,-2,-1
1511883775543349,2,-2,-2,6,3,-9,1,-3
1511883775545328,-1,-3,-9,-7,-8,-14,4,0
1511883775545328,6,-4,-1,-3,-2,0,6,1
1511883775566418,3,-3,1,-6,-14,3,4,5
1511883775566418,-2,1,-1,3,0,8,-3,1
1511883775567387,-5,-4,-12,3,7,6,-6,0
1511883775567387,-4,8,13,-5,0,1,-7,-5
1511883775579419,1,3,4,-1,1,4,-1,-2
1511883775579419,1,-3,1,4,-3,5,-1,-2
1511883775588443,1,-7,-4,-8,-3,4,-1,0
1511883775588443,9,-7,-7,0,3,2,2,-2
1511883775602510,-19,3,-6,-6,-3,3,2,2
1511883775602510,0,-10,-11,-2,-3,2,-1,-3
1511883775609525,-6,-11,-4,4,0,3,-2,-4
1511883775609525,2,10,3,1,-3,3,-1,1
1511883775626099,0,-3,-2,3,-5,-2,-4,-2
1511883775626099,3,9,5,-3,1,-2,2,-8
1511883775628078,23,9,5,-4,0,-1,2,30
1511883775628078,-18,-7,-5,0,1,-9,-4,-9
1511883775639632,-1,3,0,-1,3,-7,-1,0
1511883775639632,0,0,1,3,4,-4,-4,-3
1511883775648249,5,1,-1,3,-3,-4,-4,-11
1511883775648249,-4,-12,0,-1,-2,-1,-2,-1
1511883775663290,1,-6,-5,-6,-5,5,-3,-5
1511883775663290,-6,-7,-1,-5,-2,1,2,3
1511883775669306,-6,-1,4,1,-2,0,-1,2
1511883775669306,3,3,-9,0,-3,0,0,1
1511883775686351,4,0,7,-1,-5,-2,3,-3
1511883775686351,-3,0,-6,-4,-4,3,0,-4
1511883775687354,-5,5,0,4,3,-3,-4,-4
1511883775687354,-2,-6,-8,-3,1,-3,-2,0
1511883775699415,13,5,3,6,3,3,-2,-1
1511883775699415,-12,0,7,4,0,5,4,4
1511883775708409,1,2,2,2,-1,-1,6,-5
1511883775708409,0,0,-1,-2,2,-4,6,0
1511883775722447,8,2,-6,-2,5,-4,4,3
1511883775722447,5,-2,3,-1,5,-3,0,-1
1511883775729968,-3,0,-3,-5,3,-1,-3,-3
1511883775729968,-1,-3,5,1,2,1,-4,-3
1511883775746020,-4,-3,-7,-8,-6,3,-2,0
1511883775746020,-1,5,3,-3,-6,-1,-4,7
1511883775748026,-10,-9,-17,-6,-8,1,-5,-3
1511883775748026,6,7,5,3,0,2,-2,-3
1511883775759082,-3,2,0,4,2,0,0,5
1511883775759082,-4,-3,1,4,-1,-3,-3,0
1511883775769090,0,-1,9,0,-3,-3,-1,-3
1511883775769090,-6,-2,-2,1,0,-6,-3,3
1511883775783120,6,-6,-8,0,1,-3,-2,-15
1511883775783120,6,-5,-6,1,3,-2,1,1
1511883775789164,3,6,5,1,1,-5,0,-9
1511883775789164,9,3,-1,-1,-2,-4,0,2
1511883775806209,-12,0,-2,-2,-7,-2,-1,3
1511883775806209,-1,0,-8,-6,-6,-2,-1,4
1511883775807211,-9,-9,9,0,1,4,5,13
1511883775807211,2,-1,4,-3,1,1,2,3
1511883775828742,5,3,7,2,4,4,1,10
1511883775828742,0,-2,-7,-1,5,3,-3,-7
1511883775830246,-1,4,-5,-1,2,0,-2,0
1511883775830246,-1,-1,-8,1,-1,-1,2,2
1511883775842458,-5,2,2,-2,-2,-4,-2,-7
1511883775842458,5,5,-1,-5,-4,2,0,-3
1511883775849474,0,-3,-2,-4,-3,4,-3,-14
1511883775849474,-6,-3,1,1,-1,0,0,-5
1511883775865490,-1,-1,-1,5,0,-3,-1,-1
1511883775865490,-5,-5,2,3,2,-3,0,1
1511883775867495,5,0,-2,-1,-3,-1,2,2
1511883775867495,7,-1,1,-2,2,-2,1,16
1511883775888554,-1,-5,2,-2,1,1,3,5
1511883775888554,0,-8,4,-2,0,0,-1,0
1511883775889582,-3,9,7,5,4,3,0,-4
1511883775889582,-8,-4,-6,-7,-4,-1,-2,-5
1511883775902620,5,-3,-7,5,-3,-1,-1,-2
1511883775902620,-18,-2,-10,6,0,-3,2,-10
1511883775909631,2,-1,-5,4,-1,-6,0,-13
1511883775909631,3,4,0,3,4,1,-6,-25
1511883775926210,12,3,-4,-7,4,0,6,19
1511883775926210,-19,2,3,-8,0,4,-4,-22
1511883775927684,16,6,4,-7,-5,-7,-3,10
1511883775927684,-19,-1,3,4,-4,11,4,4
1511883775948743,12,1,10,5,-2,-13,-9,9
1511883775948743,-16,-6,-9,-2,-10,-6,-3,13
1511883775949745,8,-5,-8,-1,-2,9,3,4
1511883775949745,-4,-19,-1,5,3,-16,-7,-9
1511883775961803,7,6,1,-11,-8,-1,-2,-13
1511883775961803,3,-4,-1,-6,1,2,-2,-10
1511883775970805,-5,2,-3,7,3,-4,3,23
1511883775970805,4,1,-5,1,-6,-2,-4,3
1511883775985867,-12,-1,6,-7,2,11,4,2
1511883775985867,7,1,3,-2,3,-4,1,0
1511883775987846,-14,-11,4,3,7,1,-3,0
1511883775987846,4,7,2,-4,-2,-2,1,3
1511883776008919,-10,-2,2,6,0,-11,-5,-4
1511883776008919,14,8,-2,-2,-1,0,2,3
1511883776009905,-2,3,1,0,3,6,-2,-7
1511883776009905,4,-3,-19,-15,-1,9,1,9
1511883776021954,31,5,0,7,8,5,-6,-1
1511883776021954,-10,0,-3,4,0,-5,-2,3
1511883776031680,3,3,-4,-3,-9,-1,1,-10
1511883776031680,-12,0,1,9,0,-1,-3,2
1511883776046379,-8,-8,-4,-3,-3,-4,2,-2
1511883776046379,10,-1,8,5,4,-2,3,4
1511883776047210,-9,-9,1,-6,0,-6,-4,-9
1511883776047210,1,-3,5,-3,0,-3,-2,-2
1511883776068425,-7,-1,-6,-3,-4,-1,-3,-8
1511883776068425,5,4,7,-11,-11,-2,2,10
1511883776070243,-1,1,3,-9,-11,1,0,1
1511883776070243,5,6,2,3,-3,4,1,-4
1511883776082388,-9,-8,-9,-3,-5,-3,-9,-10
1511883776082388,6,-3,-5,7,6,1,5,16
1511883776091299,-5,-2,-1,-1,2,-2,-3,-5
1511883776091299,-1,0,-2,-4,-1,13,5,0
1511883776106342,-10,1,-8,-8,-22,-13,2,-4
1511883776106342,9,6,12,9,4,6,8,4
1511883776107345,0,-5,-7,5,4,-6,-3,5
1511883776107345,3,-2,10,4,8,3,0,4
1511883776128608,-9,-5,3,0,4,0,-5,-2
1511883776128608,0,0,2,-8,0,-1,-3,-3
1511883776130613,-2,-3,2,3,4,0,3,3
1511883776130613,8,2,-6,-2,0,-13,-6,-6
1511883776142257,2,-2,-5,1,3,6,4,0
1511883776142257,1,-1,-5,0,-5,-1,-2,-2
1511883776151306,-2,2,-3,-5,-5,1,-4,-7
1511883776151306,-4,1,0,-5,-8,-1,-4,1
1511883776166511,1,-3,-2,2,6,1,-1,2
1511883776166511,1,-4,-5,0,7,-1,1,-5
1511883776167447,0,-1,0,1,4,-2,2,-3
1511883776167447,-5,-2,-5,-5,-3,-6,1,-1
1511883776188381,-11,1,-3,4,4,1,3,1
1511883776188381,-4,-4,-6,2,-3,-4,-5,-6
1511883776190382,0,-1,3,1,-6,5,0,-2
1511883776190382,1,-1,5,3,1,-2,-4,2
1511883776202415,-2,3,2,-4,-1,6,-1,-3
1511883776202415,0,-1,2,-3,1,0,0,-1
1511883776211548,-1,0,0,-2,2,1,0,0
1511883776211548,-2,-1,7,3,4,1,0,-2
1511883776225986,1,4,2,-1,0,1,-1,-1
1511883776225986,2,-4,-12,-5,-3,-1,-2,1
1511883776227992,0,1,14,2,-2,-3,2,7
1511883776227992,1,-2,-4,3,0,-4,3,5
1511883776248574,-1,-3,1,-4,-2,-4,4,4
1511883776248574,1,-1,-3,1,-7,1,0,-1
1511883776249577,0,0,-6,-8,0,1,-3,-4
1511883776249577,3,5,5,-1,4,0,-6,-5
1511883776262611,-1,-3,-10,-3,-7,-1,-3,0
1511883776262611,0,8,5,3,0,2,-5,-1
1511883776270640,1,-7,-5,-3,0,1,-3,0
1511883776270640,-5,-1,2,0,0,3,3,-15
1511883776285676,0,3,5,-1,3,3,-1,-9
1511883776285676,-5,-8,-13,-11,-4,-1,0,-4
1511883776287678,3,9,14,8,1,-5,5,3
1511883776287678,0,-2,-10,-3,-7,-2,2,8
1511883776308733,-3,-7,-9,3,4,-1,-2,12
1511883776308733,-2,1,17,4,4,4,-2,9
1511883776309736,-5,-3,-11,-2,4,-2,-4,3
1511883776309736,-6,2,6,1,-2,-5,3,-2
1511883776321772,-3,-3,-8,3,-2,-3,3,-8
1511883776321772,-3,-2,-7,1,-1,-5,1,-2
1511883776331296,2,2,-4,0,-3,2,2,2
1511883776331296,-1,0,-7,-1,1,2,-3,3
1511883776346338,4,5,9,11,8,-1,-2,3
1511883776346338,6,0,4,-8,0,3,-1,-3
1511883776347341,4,0,-9,-4,-6,-3,-3,-11
1511883776347341,2,-3,9,-1,-9,-2,4,-10
1511883776368423,-1,-1,-1,5,2,-1,-4,-9
1511883776368423,1,3,1,-14,-5,-1,-3,-2
1511883776370426,-2,-3,-10,2,6,-4,1,-3
1511883776370426,-1,-4,0,-10,-2,-3,0,1
1511883776382433,1,-3,2,-8,-2,2,2,1
1511883776382433,-1,-3,-4,-1,-7,-2,-1,1
1511883776391459,-1,0,13,3,-2,4,-3,5
1511883776391459,0,-3,-16,2,4,3,-2,7
1511883776405495,-2,2,8,-5,5,4,1,-1
1511883776405495,-1,3,1,4,4,-4,-2,-8
1511883776407505,-4,-3,2,0,-3,2,1,-11
1511883776407505,-4,1,-1,11,7,-2,-3,-1
1511883776428559,-5,0,-5,5,0,-7,-6,3
1511883776428559,0,7,-1,-4,-6,3,-2,7
1511883776430064,-6,-6,-8,1,-6,-7,-6,1
1511883776430064,0,2,5,-3,-6,0,-1,-2
1511883776441624,-7,-8,-1,-5,-9,0,0,-5
1511883776441624,2,0,9,5,3,1,0,-4
1511883776450648,4,1,8,-1,1,3,-4,1
1511883776450648,5,0,-1,-4,2,-1,-3,1
1511883776465689,2,-2,0,-6,1,-5,-3,-1
1511883776465689,-1,0,-6,1,1,-6,0,-9
1511883776467695,-1,-1,-10,-4,-4,0,2,-7
1511883776467695,-1,-1,-7,2,0,3,6,0
1511883776488750,0,-3,-1,1,-2,6,4,6
1511883776488750,0,-5,2,1,1,2,1,7
1511883776489752,4,-4,1,-1,2,3,-1,2
1511883776489752,3,-1,-1,-4,-3,-3,-2,0
1511883776501811,-2,5,0,-2,-3,-1,0,1
1511883776501811,0,1,0,6,-2,-3,-2,-6
1511883776510809,-4,-5,-12,-4,0,-6,3,9
1511883776510809,1,-4,4,-1,2,-9,-5,-9
1511883776524870,-1,5,0,0,2,1,9,22
1511883776524870,-3,-4,0,2,0,-1,0,0
1511883776532367,0,2,1,5,-3,1,1,-1
1511883776532367,-5,0,-6,3,-2,1,-2,-7
1511883776548913,-5,-2,3,10,2,-2,-3,-16
1511883776548913,8,6,-1,8,1,-1,0,16
1511883776549916,-1,-5,-2,3,-1,3,-1,0
1511883776549916,2,0,-9,1,-4,5,-3,9
1511883776561949,1,4,-1,-7,-7,1,-6,-2
1511883776561949,-4,1,0,1,2,-1,0,-1
1511883776570973,1,3,7,-5,-6,-4,-4,-14
1511883776570973,0,0,4,-1,-1,4,4,2
1511883776585011,2,-6,-1,3,4,4,-3,-5
1511883776585011,-2,-10,-6,-6,3,-2,-4,-5
1511883776592060,2,-1,0,-2,12,-1,0,4
1511883776592060,1,-4,3,-11,0,-5,3,3
1511883776608072,4,-3,-3,-7,6,-6,0,3
1511883776608072,-1,3,-6,-3,3,-2,1,0
1511883776610078,0,4,-1,4,-1,0,1,-4
1511883776610078,-3,1,-4,3,-3,0,0,-8
1511883776622108,0,2,-5,1,-4,0,2,-6
1511883776622108,-5,-4,0,-4,-3,-3,2,-1
1511883776631133,-3,6,15,-3,-4,-9,0,2
1511883776631133,-8,-16,-5,-4,6,0,-1,5
1511883776645172,0,1,1,12,6,-2,-2,3
1511883776645172,-1,7,-2,-17,-19,0,-1,2
1511883776652193,1,-1,-15,4,10,10,-2,0
1511883776652193,2,4,4,-6,-12,-5,-2,-3
1511883776668234,-1,2,12,-3,12,4,1,-6
1511883776668234,-3,-4,-3,4,7,-10,-4,-17
1511883776670239,-3,-1,0,-4,-3,-5,-9,-5
1511883776670239,-3,-2,-1,7,4,5,0,4
1511883776682271,-3,-6,-13,-5,-8,-5,-6,5
1511883776682271,1,4,11,13,5,7,1,4
1511883776691295,-2,-5,-8,-5,-2,1,0,5
1511883776691295,-4,-5,0,3,7,9,-1,1
1511883776705332,0,-5,-5,-18,-8,-8,-4,3
1511883776705332,-3,-5,22,15,10,2,5,3
1511883776712351,11,0,-8,0,-15,-15,2,-2
1511883776712351,3,1,-10,-4,-3,-10,-4,-4
1511883776728907,2,4,6,0,2,14,11,-1
1511883776728907,-3,-4,-14,-3,-2,2,-2,-5
1511883776730403,1,5,-4,12,6,3,3,2
1511883776730403,-2,2,-1,12,0,-4,-2,-1
1511883776742434,2,-3,-10,-2,-4,-3,-3,0
1511883776742434,1,-7,-1,-7,4,-1,-4,2
1511883776751459,-6,-2,16,-10,-1,2,-4,-1
1511883776751459,5,7,4,-9,-18,-7,-1,4
1511883776765496,0,4,8,8,2,6,6,1
1511883776765496,0,0,-12,-5,2,6,3,4
1511883776772514,-3,-2,-12,-3,10,4,1,-4
1511883776772514,-7,-9,-8,-2,9,4,-3,-9
1511883776788584,3,5,-1,-18,-35,-17,0,3
1511883776788584,-8,-2,-3,-14,2,10,-4,-4
1511883776789581,-8,4,-2,-17,-16,-14,-8,-1
1511883776789581,-1,5,-1,0,-10,-7,1,2
1511883776810617,5,-1,5,-2,7,-5,-1,-1
1511883776810617,8,0,-4,17,6,2,6,5
1511883776812633,1,-3,3,0,9,12,3,-3
1511883776812633,-3,-6,-8,6,-1,0,0,-12
1511883776825683,2,-8,1,3,-7,-4,-2,8
1511883776825683,4,2,3,4,-3,-5,1,1
1511883776832200,-16,-13,0,-1,13,9,-4,-7
1511883776832200,-2,1,-3,-6,10,4,-4,-4
1511883776848771,-9,-6,1,-10,-20,-6,1,-5
1511883776848771,13,10,-2,-2,-2,5,0,-9
1511883776849754,14,8,1,5,-1,1,3,7
1511883776849754,-4,7,6,6,13,4,1,-3
1511883776870806,-7,-8,-9,4,18,-3,-8,-5
1511883776870806,-4,-9,-11,-8,-17,-11,-7,-12
1511883776872839,-3,-2,-3,2,-10,-2,-1,-3
1511883776872839,-2,-4,3,-4,-6,-3,0,6
1511883776884845,-2,6,5,7,0,5,1,-2
1511883776884845,4,-7,0,-10,-9,-4,1,3
1511883776893868,7,6,6,3,7,4,3,13
1511883776893868,27,2,-2,-3,-2,-2,5,4
1511883776908926,-17,-4,-1,5,3,-1,-1,-11
1511883776908926,-6,4,-2,4,1,-1,1,22
1511883776909910,2,-2,-14,-1,-4,0,2,9
1511883776909910,10,13,15,-2,-6,2,-1,-2
1511883776931524,32,3,-14,0,2,4,-4,3
1511883776931524,-28,-9,7,4,7,0,-7,-18
1511883776933001,-2,-2,10,-7,0,-5,-2,-5
1511883776933001,-10,-6,-4,-5,-2,-4,3,4
1511883776945061,-10,-7,-2,-3,4,0,0,-10
1511883776945061,6,2,2,-1,-3,-3,0,-4
1511883776954086,15,-1,-6,0,-9,-1,-2,8
1511883776954086,-25,-10,-1,4,0,8,0,-1
1511883776968123,10,9,5,4,0,3,-2,2
1511883776968123,-3,-4,-12,-1,-5,0,1,8
1511883776970127,8,1,-1,4,0,-6,3,-10
1511883776970127,-33,-1,-1,1,2,-6,-1,-9
1511883776991213,-12,-10,-8,0,-2,-1,-3,-2
1511883776991213,13,3,8,0,-1,0,0,17
1511883776992213,-7,-7,-1,0,-2,1,-5,-11
1511883776992213,10,7,-9,-4,-1,0,-8,-19
1511883777004239,-9,3,18,2,4,-3,8,24
1511883777004239,-7,-4,-9,-12,-1,-4,-1,-13
1511883777013269,0,-3,3,-5,-3,-4,-1,1
1511883777013269,5,-2,-5,-4,-5,-4,1,7
1511883777028793,-4,4,-3,4,0,-5,-2,-6
1511883777028793,5,1,-2,5,2,-4,-5,-5
1511883777030293,-2,-1,-1,1,2,0,-1,2
1511883777030293,2,-5,-1,2,3,4,-4,2
1511883777051274,-4,2,-2,-2,4,7,-1,-8
1511883777051274,7,10,3,-4,-3,2,0,6
1511883777052441,-10,-3,-8,-2,-1,4,4,-4
1511883777052441,9,-2,4,-3,-2,4,1,6
1511883777064311,9,-7,-6,-3,-4,-3,-3,2
1511883777064311,6,-1,10,3,-1,-3,-2,-2
1511883777073337,-7,2,-4,-2,-5,-4,-3,-12
1511883777073337,-4,1,-2,0,-5,0,3,-4
1511883777088419,-6,-5,-5,-6,-6,9,8,-4
1511883777088419,-5,-2,1,1,2,0,1,-3
1511883777090383,-5,1,7,-4,-1,-3,0,3
1511883777090383,3,1,11,-7,5,-4,-1,13
1511883777111520,1,-7,-11,-2,9,-2,-4,4
1511883777111520,-3,-2,-4,3,1,-1,0,0
1511883777112440,-1,-4,0,8,4,-2,3,1
1511883777112440,5,-3,-3,2,2,0,2,-2
1511883777124609,0,-3,-12,-3,1,-2,1,-9
1511883777124609,-3,1,-7,-5,-3,0,-1,-8
1511883777134054,1,3,11,0,-8,-4,-3,-5
1511883777134054,-4,-6,-6,3,-7,2,-5,0
1511883777148620,-5,4,7,-6,-9,1,-7,-1
1511883777148620,3,-1,0,-2,1,4,-1,3
1511883777149622,1,1,-3,-1,2,-1,0,2
1511883777149622,-2,-1,2,-2,2,-2,-1,-1
1511883777170679,-4,6,-1,4,-3,1,1,0
1511883777170679,-3,-4,-4,0,-7,-2,-1,5
1511883777172684,1,1,3,-1,-5,3,3,2
1511883777172684,4,-3,1,0,-1,-2,2,2
1511883777184892,-1,-3,5,-1,4,-6,-1,3
1511883777184892,10,0,2,-2,2,-2,1,-2
1511883777193739,-7,-6,1,4,3,1,-1,1
1511883777193739,3,0,-6,-2,-3,-7,2,-1
1511883777215919,1,0,0,0,3,-4,2,-6
1511883777215919,-8,-6,-8,-2,4,-7,-1,-5
1511883777217826,-1,-4,-2,-3,-2,2,-3,-5
1511883777217826,0,5,4,-3,-3,6,-4,-2
1511883777231536,-4,-3,-8,-3,-4,7,-5,-3
1511883777231536,3,4,1,-3,-4,4,-3,-3
1511883777233041,3,4,-5,-6,-2,-1,-3,3
1511883777233041,-7,0,-7,-6,1,-4,-6,-7
1511883777244222,5,4,12,6,5,-3,1,13
1511883777244222,-4,-6,-7,4,0,-4,2,2
1511883777253244,-4,-2,-2,6,-1,-3,0,1
1511883777253244,-5,-2,3,8,-1,-1,4,2
1511883777268458,-1,-3,0,5,-5,-3,1,-2
1511883777268458,1,1,4,6,1,1,0,1
1511883777270289,-1,2,1,-6,0,-1,2,-1
1511883777270289,7,3,-10,-2,1,2,1,-2
1511883777291344,-3,1,-3,-8,-1,5,0,-7
1511883777291344,-2,4,13,-3,2,5,3,1
1511883777292358,4,0,2,-3,2,-2,-2,-1
1511883777292358,1,0,4,0,1,-6,-4,-1
1511883777304379,0,-3,-7,0,0,2,-5,-13
1511883777304379,-8,-1,-11,-1,-1,2,-5,-6
1511883777313402,-1,-2,-6,2,-1,0,-6,1
1511883777313402,3,-1,-7,-3,-2,-1,-2,6
1511883777328499,2,-5,13,4,0,-6,-2,5
1511883777328499,-4,-12,-12,-6,-1,-5,0,1
1511883777330477,-2,-2,11,0,-1,-3,5,1
1511883777330477,2,-3,-6,-3,3,4,3,5
1511883777350560,2,1,3,-4,1,-2,2,0
1511883777350560,-1,0,3,4,6,-5,2,-3
1511883777352557,0,-1,1,-3,-5,-2,-2,-4
1511883777352557,-2,-5,-4,-5,-12,-2,-3,-3
1511883777364599,-3,2,-2,-6,-9,2,-1,3
1511883777364599,4,-2,5,2,-4,3,-4,1
1511883777373595,-4,1,-7,-2,-5,3,-1,-1
1511883777373595,-2,8,-3,-1,3,0,3,-1
1511883777388664,-6,2,-4,0,4,-3,0,-2
1511883777388664,-1,5,8,-7,-4,-5,-3,1
1511883777389665,-1,2,5,7,3,-2,-5,1
1511883777389665,-4,-12,-7,5,-2,1,-4,-2
1511883777410722,0,8,9,6,4,0,1,2
1511883777410722,-4,-1,-8,-1,1,2,1,-3
1511883777412699,-1,-1,5,-2,-5,-3,-5,-5
1511883777412699,3,-6,-15,-1,-6,-5,-4,-3
1511883777424757,3,-8,-9,-1,-10,-5,-2,0
1511883777424757,-1,-2,5,1,-7,-1,0,3
1511883777433784,2,-1,-14,-1,-2,0,6,3
1511883777433784,2,7,26,2,5,1,2,-1
1511883777447421,3,-4,-8,-4,5,6,1,-4
1511883777447421,-2,1,0,-6,4,8,-1,-4
1511883777454439,-6,-2,-9,-3,-1,0,-2,-4
1511883777454439,-2,3,-2,0,-1,-2,1,-1
1511883777470482,2,6,2,9,-2,-1,-3,3
1511883777470482,-1,-7,-15,-3,-4,-4,-2,-1
1511883777472487,0,1,-4,1,3,-1,0,-4
1511883777472487,-2,6,4,-4,-4,-2,3,-3
1511883777484546,1,4,14,-2,-1,-3,3,1
1511883777484546,0,-5,3,-4,-4,-5,2,0
1511883777493544,1,-6,-25,-7,3,-4,0,1
1511883777493544,-4,-5,0,4,7,0,1,3
1511883777507579,-8,-21,-18,-16,-8,-2,-3,-1
1511883777507579,7,27,23,13,3,7,-1,0
1511883777521651,3,5,9,5,-1,1,-3,-2
1511883777521651,4,1,8,4,-1,4,-8,2
1511883777531172,3,0,-4,5,2,2,-7,-1
1511883777531172,-4,-11,-6,-1,0,-4,-5,-2
1511883777532677,-3,0,-9,-7,0,-6,-3,0
1511883777532677,-12,9,5,0,4,-2,1,-4
1511883777553795,3,-2,4,-1,-1,1,5,-1
1511883777553795,-1,0,-15,-5,-3,-1,7,1
1511883777554767,-1,-2,15,4,0,4,3,-3
1511883777554767,2,-10,-6,-6,-3,-3,1,-1
1511883777567831,2,5,-3,1,0,-1,-6,-1
1511883777567831,7,6,5,-1,-5,-5,-4,-1
1511883777574849,-5,-23,-11,-3,-3,-1,-6,-3
1511883777574849,-1,0,0,-5,0,-2,-4,1
1511883777590892,-5,-2,-2,0,4,1,0,-1
1511883777590892,-2,8,4,5,2,1,2,1
1511883777592896,-2,3,6,5,5,4,2,4
1511883777592896,2,-4,1,0,-2,-1,-1,2
1511883777604930,1,-4,-4,3,2,-3,1,-3
1511883777604930,-2,1,14,3,-7,-4,-2,-6
1511883777613933,1,3,-1,3,-2,-2,-2,-5
1511883777613933,-7,-9,0,2,-4,1,0,-1
1511883777627960,-1,8,-8,-8,-4,0,2,1
1511883777627960,-4,-26,-17,-7,2,1,0,2
1511883777634981,5,10,7,-2,-2,-3,-2,0
1511883777634981,3,3,-4,-2,-1,-3,-3,-4
1511883777651055,-4,-1,-4,1,0,-5,2,-5
1511883777651055,4,5,-10,-6,-1,-4,3,-1
1511883777652029,0,0,9,-1,-1,1,1,3
1511883777652029,-4,1,-9,0,6,3,-3,9
1511883777665063,5,-6,-1,1,-2,2,-3,1
1511883777665063,-5,-2,0,3,-5,2,0,1
1511883777673119,0,0,-3,-3,-5,0,3,2
1511883777673119,3,2,3,-1,-2,2,-4,-4
1511883777688152,-5,-2,8,0,2,-2,-6,4
1511883777688152,-1,-7,-1,-5,5,-3,-4,-2
1511883777694168,4,7,4,-6,-3,-1,-2,-6
1511883777694168,-13,-6,-2,1,-7,-2,0,-12
1511883777711217,-10,-8,-6,2,0,1,-4,-5
1511883777711217,4,7,2,2,1,0,-7,-2
1511883777712188,3,-3,-16,-1,4,0,-2,-3
1511883777712188,6,4,1,10,4,3,3,7
1511883777724244,6,9,15,1,-5,-3,3,9
1511883777724244,-3,-4,1,6,5,3,3,6
1511883777733775,0,5,-4,-2,-1,0,-4,3
1511883777733775,6,-1,1,-3,-1,-2,-1,-1
1511883777756367,-4,4,1,1,2,-6,6,-8
1511883777756367,-4,-8,-8,-6,-2,-7,4,-6
1511883777757369,-2,0,0,-4,-1,-6,3,-3
1511883777757369,-3,-4,-3,-6,-4,-4,0,-4
1511883777771432,1,0,-3,-2,-6,3,-4,2
1511883777771432,-2,0,0,-3,-5,1,0,2
1511883777773412,-4,-7,3,2,-2,-1,-2,7
1511883777773412,2,-3,0,1,-4,-2,-1,4
1511883777793464,-6,-1,-5,3,0,0,3,0
1511883777793464,-4,0,1,-2,-2,-2,4,-2
1511883777795469,-7,-4,5,2,1,0,-2,-7
1511883777795469,1,5,-14,-10,2,-5,-2,-4
1511883777807501,0,0,15,-4,5,-1,-5,-2
1511883777807501,-2,-1,-6,-3,-1,3,-4,2
1511883777815550,-1,-1,7,1,-1,2,-4,2
1511883777815550,-1,-7,-5,-2,-3,7,-5,3
1511883777831114,6,9,1,-1,-1,4,-1,3
1511883777831114,2,-4,-5,-1,1,5,4,4
1511883777832594,1,-4,2,6,1,0,3,0
1511883777832594,1,5,16,3,0,-4,6,-3
1511883777853764,-1,-11,-17,2,7,-6,1,-3
1511883777853764,2,-5,0,0,3,-7,2,-1
1511883777854741,3,0,-4,-8,-9,-4,4,0
1511883777854741,-3,1,4,11,2,4,1,1
1511883777866792,0,8,7,3,0,4,-3,-2
1511883777866792,-1,6,8,5,1,4,-5,-5
1511883777875797,-4,-8,-8,-2,6,-3,-3,-6
1511883777875797,-2,3,-5,-12,-9,-6,4,-5
1511883777890838,-1,1,-1,-3,-5,0,0,-4
1511883777890838,-6,-6,-10,-4,-9,-3,-5,1
1511883777892844,2,7,23,0,4,5,4,5
1511883777892844,-3,-17,-22,0,4,-3,0,-4
1511883777912897,5,-1,-3,1,0,2,1,0
1511883777912897,-1,0,-9,-6,-6,1,-3,2
1511883777914901,-1,5,3,-2,-6,-1,-3,3
1511883777914901,-2,-5,-4,-6,-2,-2,-4,0
1511883777926933,1,-4,3,-5,0,-1,2,-1
1511883777926933,1,-2,-1,-1,-3,-3,-2,-5
1511883777936465,-2,-3,-6,10,1,3,0,1
1511883777936465,0,5,3,0,-6,-2,-2,-1
1511883777951054,-4,-6,-8,11,6,-1,-2,-2
1511883777951054,-1,6,2,-13,-6,-1,0,-3
1511883777952057,-1,-4,-4,-7,-2,-1,1,-1
1511883777952057,-3,-1,1,-4,9,-2,2,3
1511883777973087,0,-1,5,1,0,-4,0,5
1511883777973087,0,-3,-5,9,9,1,-4,-3
1511883777975092,0,-2,-10,1,-1,-4,-7,-3
1511883777975092,-2,3,-3,-5,-6,1,1,-1
1511883777987125,-2,1,-9,-6,-10,-3,2,-1
1511883777987125,3,0,2,-1,0,1,7,1
1511883777996149,4,-3,-5,-2,-4,-3,5,-2
1511883777996149,2,-7,6,1,0,0,1,1
1511883778011189,-5,-5,12,2,3,-1,-3,-1
1511883778011189,-4,3,9,-8,-3,-3,-4,1
1511883778012217,-1,-3,-14,3,-1,-3,-1,-2
1511883778012217,1,1,0,0,0,-1,-1,0
1511883778033861,-2,5,12,-2,-1,7,0,-2
1511883778033861,-5,-13,-24,-12,-6,0,-1,-5
1511883778035366,-4,-5,3,1,7,3,0,-2
1511883778035366,3,12,11,-1,1,4,-2,-1
1511883778047410,-4,-7,-13,-6,-2,-4,-3,-1
1511883778047410,-2,0,-2,3,-2,-1,-4,6
1511883778056433,0,9,3,-1,-5,-2,-1,7
1511883778056433,4,4,7,6,-2,1,-1,-1
1511883778070473,3,0,0,-1,-1,-1,-1,-1
1511883778070473,-2,-5,5,-5,-6,-5,6,-2
1511883778072476,-5,-12,-18,-1,2,-2,1,1
1511883778072476,2,-2,0,-3,3,-2,1,3
1511883778093723,2,2,6,-4,-4,-1,-3,1
1511883778093723,5,7,16,15,9,1,-1,3
1511883778095649,-1,1,0,-1,-3,-1,-4,-2
1511883778095649,-4,-2,0,2,-3,0,-4,1
1511883778107573,0,-2,-5,0,-3,5,-3,-2
1511883778107573,1,0,-4,-3,-6,5,-4,-6
1511883778116596,1,6,3,1,0,5,-1,-5
1511883778116596,2,-1,-5,2,4,2,-2,-5
1511883778131355,-4,-3,-19,-8,1,-3,0,0
1511883778131355,-2,10,3,1,4,-8,-4,0
1511883778132753,-2,3,5,-4,5,-4,2,-2
1511883778132753,0,-8,-3,-3,3,-5,4,-1
1511883778153451,-2,-9,-8,-6,-1,2,2,-4
1511883778153451,-1,-3,1,4,0,4,-1,-3
1511883778155461,-6,-4,-6,3,-3,4,-5,1
1511883778155461,-1,6,10,1,-4,-1,-4,0
1511883778167700,-2,12,17,-2,-4,-1,-1,2
1511883778167700,-3,-6,-3,0,2,-5,1,-5
1511883778176686,3,0,-3,-1,-2,-5,-1,2
1511883778176686,3,-1,-5,-3,-4,-4,-2,0
1511883778190550,12,-13,-16,1,4,-3,4,-4
1511883778190550,-15,-2,13,1,6,1,4,1
1511883778192556,0,-9,-4,-1,-3,-1,3,0
1511883778192556,-2,1,0,-6,-3,2,-1,0
1511883778213612,-5,10,-1,5,0,-2,-4,-3
1511883778213612,4,9,-2,-4,-2,1,-6,-4
1511883778214615,3,4,5,-2,-1,-2,-2,-4
1511883778214615,-2,-1,-5,-2,-6,-3,-3,-2
1511883778226649,3,1,-1,1,0,0,4,4
1511883778226649,5,4,-1,2,3,0,5,9
1511883778236173,-4,-4,6,1,4,4,-1,5
1511883778236173,-5,-17,-11,3,3,-1,2,-1
1511883778250864,-2,-7,2,-8,-4,-6,0,12
1511883778250864,-1,-7,-7,-4,-4,-3,-2,-2
1511883778252757,3,-1,6,-4,-7,-1,-2,-13
1511883778252757,-4,4,11,0,0,4,0,-10
1511883778273813,12,5,3,-1,-1,2,-4,-6
1511883778273813,-28,-6,-12,2,1,-1,-9,-9
1511883778274816,3,18,7,4,3,-1,-1,3
1511883778274816,1,4,0,3,2,-1,-5,1
1511883778286869,0,-4,-11,1,2,0,-2,4
1511883778286869,12,3,0,-4,0,-2,-1,2
1511883778295871,-7,-8,-1,-3,-1,0,-5,-2
1511883778295871,-5,-3,3,-4,1,4,0,3
1511883778310911,-13,-7,-11,1,-1,-3,4,3
1511883778310911,13,-4,-4,0,-7,-2,3,-4
1511883778312917,-5,3,0,0,-3,0,5,-3
1511883778312917,3,4,1,-3,-4,-1,1,1
1511883778333476,-4,4,7,-2,-3,1,-7,-2
1511883778333476,-3,-3,5,-2,1,-3,-4,2
1511883778335481,1,-6,-6,-3,4,-1,0,5
1511883778335481,3,1,3,0,1,2,4,2
1511883778346590,-3,-1,-2,-2,-2,1,3,-12
1511883778346590,3,2,0,4,8,1,-4,2
1511883778355611,-6,1,-6,-1,3,-3,-10,-19
1511883778355611,12,2,-1,3,1,-3,0,24
1511883778370624,-9,1,3,3,-2,1,0,-11
1511883778370624,5,-14,-6,-6,-10,-1,3,14
1511883778372630,-5,-5,-4,-4,-3,4,-6,-16
1511883778372630,-11,3,6,1,-1,2,5,19
1511883778393685,2,0,1,-7,1,3,1,-3
1511883778393685,2,8,8,-3,-2,2,2,1
1511883778394687,0,-2,0,-5,-4,-1,5,6
1511883778394687,-5,-3,-3,0,1,-7,-2,-9
1511883778406721,0,1,4,-4,6,-7,-1,2
1511883778406721,-7,-4,12,3,11,-1,0,-6
1511883778415744,10,-3,-11,-5,-5,-4,-4,3
1511883778415744,5,0,-2,1,-2,6,-5,-8
1511883778430338,0,-3,-8,0,-2,-1,-2,0
1511883778430338,0,5,-1,0,-7,1,3,-4
1511883778437357,-5,-2,-2,0,0,1,6,7
1511883778437357,-5,-6,1,-4,-3,-3,0,-3
1511883778452899,0,-9,-2,3,-1,-2,1,1
1511883778452899,1,6,-4,0,3,-1,1,1
1511883778454905,0,3,-14,-1,1,-2,1,1
1511883778454905,3,3,1,5,2,2,-1,-11
1511883778466936,-3,-3,2,4,-1,2,-9,-10
1511883778466936,1,-1,-2,-7,-9,-1,-4,-6
1511883778475993,-1,3,9,2,-3,5,3,6
1511883778475993,-2,-2,-1,-6,-4,-1,0,-2
1511883778490024,-2,0,8,0,4,-3,3,8
1511883778490024,-5,-7,-14,2,2,-6,-5,5
1511883778497043,4,3,2,-1,-7,-6,-10,-8
1511883778497043,-1,1,-3,-7,2,0,-6,-8
1511883778513086,4,6,4,-2,-4,1,1,-4
1511883778513086,1,4,1,-2,4,3,5,0
1511883778515065,1,3,9,2,6,-1,4,4
1511883778515065,-1,-5,-8,-1,-2,-2,-1,-1
1511883778527123,-3,-6,-9,-1,-1,-6,0,0
1511883778527123,3,0,6,3,-8,-7,4,-5
1511883778536163,3,-3,0,0,-4,5,5,4
1511883778536163,2,-5,-2,4,3,3,-3,3
1511883778550254,-3,0,-6,-5,3,10,0,3
1511883778550254,-1,-1,3,9,5,4,-4,-2
1511883778558275,-4,-1,1,2,1,-4,3,2
1511883778558275,0,4,7,1,-3,-1,1,-1
1511883778573313,4,2,-18,1,7,-3,-8,1
1511883778573313,-2,0,-8,-5,-3,-3,-7,2
1511883778575319,-2,-1,4,3,-3,-3,1,1
1511883778575319,-3,-1,-1,-1,-2,-3,4,-5
1511883778587347,-4,-3,7,-2,-11,-4,1,-2
1511883778587347,-1,-1,-2,-7,-1,1,0,-3
1511883778602363,-1,-4,-11,-4,7,5,-3,0
1511883778602363,-2,-2,-2,-4,-2,-3,-4,2
1511883778610386,2,1,0,-3,1,1,4,5
1511883778610386,-1,0,0,3,4,-2,0,-3
1511883778617403,-5,-4,-1,1,-4,-7,1,-3
1511883778617403,-2,-3,-2,2,-7,-9,-2,-6
1511883778633478,0,-4,10,-3,-5,-1,3,-4
1511883778633478,0,-5,4,-9,-8,4,-1,-2
1511883778635484,-1,1,-10,-2,1,-2,-4,-3
1511883778635484,-4,1,3,2,3,-2,-1,-1
1511883778655570,3,-1,-6,3,4,-2,1,3
1511883778655570,2,-5,0,-1,5,0,11,2
1511883778657569,1,-1,3,-2,0,0,7,-2
1511883778657569,-1,-2,-3,0,-2,1,1,-3
1511883778670605,0,1,3,-2,-9,1,-6,-3
1511883778670605,-1,1,-1,4,-4,3,-12,-4
1511883778676647,0,-3,4,-5,-4,7,-11,0
1511883778676647,0,4,0,-2,-4,2,-6,1
1511883778693692,-7,-10,-1,0,-9,-1,4,4
1511883778693692,2,1,1,0,-8,-6,4,3
1511883778694695,0,-1,-13,-7,-4,-6,6,4
1511883778694695,-2,1,2,-5,-1,-2,1,-2
1511883778715724,-3,3,-4,-1,0,-3,-3,-7
1511883778715724,-1,2,-7,5,4,1,1,-4
1511883778717729,-1,0,3,6,0,2,-1,2
1511883778717729,4,-1,-2,2,3,3,4,3
1511883778730319,-2,-4,-5,2,3,4,4,1
1511883778730319,0,-3,2,3,2,-1,-1,2
1511883778737337,0,1,1,-3,4,-5,-2,3
1511883778737337,0,-1,-7,-9,3,-4,-1,0
1511883778753861,2,3,-6,-3,-2,-6,-2,0
1511883778753861,4,-1,-7,-2,-3,-5,-5,2
1511883778754858,3,0,2,-2,-3,-5,-4,1
1511883778754858,-2,-3,-1,2,0,-3,-6,-4
1511883778775914,0,0,7,1,-2,0,-3,-5
1511883778775914,0,3,4,-1,-3,5,3,-3
1511883778777920,-4,-8,-7,-2,3,1,-1,-6
1511883778777920,1,2,-4,-5,-6,-5,1,-2
1511883778789979,3,5,0,-2,-1,-1,6,-1
1511883778789979,1,-7,-4,-2,-3,-1,7,-2
1511883778798000,-1,-2,8,3,-5,3,3,-3
1511883778798000,-9,-2,-4,10,7,8,-2,-10
1511883778813042,-8,2,-4,3,4,-2,-8,-4
1511883778813042,0,2,5,7,6,0,-7,1
1511883778815018,1,-1,1,-3,4,0,-3,1
1511883778815018,4,-7,5,-4,1,-4,-1,-4
1511883778836077,6,-4,-4,1,1,3,0,-3
1511883778836077,-2,-6,3,-6,2,3,2,-6
1511883778837584,-4,-6,1,-2,-1,2,0,-7
1511883778837584,0,0,5,5,0,-1,-3,0
1511883778849141,-7,4,-2,0,-4,-5,-3,-1
1511883778849141,-2,0,-9,-3,0,-9,-5,0
1511883778858192,1,6,-7,3,-2,-5,-6,1
1511883778858192,3,1,-13,-1,-3,-2,-4,-1
1511883778872225,2,-2,2,5,1,-1,0,-2
1511883778872225,-1,-3,-3,-1,-1,0,0,-2
1511883778881227,2,-5,3,2,1,0,3,1
1511883778881227,1,-8,0,-1,-1,1,2,10
1511883778896267,3,6,5,-3,0,3,5,6
1511883778896267,0,3,1,-6,-8,2,-2,1
1511883778897270,0,9,4,-7,-7,-3,0,-3
1511883778897270,-3,-3,-4,-1,-4,-4,-3,0
1511883778909301,-4,-1,-2,-6,4,-4,-2,-2
1511883778909301,-5,0,1,1,4,-1,0,3
1511883778918324,-3,-1,-1,1,-1,3,-1,4
1511883778918324,2,-1,-3,-2,-1,3,-1,-1
1511883778933896,5,-3,4,1,-3,6,-2,1
1511883778933896,1,-1,-2,0,0,0,1,-1
1511883778935427,-6,-1,-4,2,1,-4,-3,-2
1511883778935427,-3,0,0,-5,-3,-6,-4,-4
1511883778956004,-8,-8,-4,2,1,-8,-5,-2
1511883778956004,-2,-8,3,5,0,-4,-6,-4
1511883778958019,6,-6,4,5,-1,1,-1,0
1511883778958019,1,-2,-1,0,-2,5,1,-1
1511883778970018,-4,1,2,-5,-3,1,-1,-3
1511883778970018,-2,2,-5,-6,1,0,0,0
1511883778978065,-5,0,1,5,1,-3,7,2
1511883778978065,2,1,4,0,2,-3,5,1
1511883778993105,1,1,-6,-2,4,0,2,8
1511883778993105,3,2,-2,-5,1,-3,1,-6
1511883778995084,4,2,-6,-5,2,0,-2,-6
1511883778995084,-4,3,2,1,2,-3,3,-2
1511883779016139,-4,0,1,-2,-2,3,-1,0
1511883779016139,0,4,-4,-2,1,3,-5,4
1511883779017142,-4,2,-7,-4,-1,2,-10,0
1511883779017142,1,0,-5,-4,0,1,-5,3
1511883779029866,3,-10,-1,-2,-9,-4,-2,2
1511883779029866,3,-7,3,-2,-14,-2,0,-2
1511883779038831,5,-4,5,1,-10,-4,4,-3
1511883779038831,0,0,2,0,-1,-2,3,-4
1511883779053440,0,3,1,3,6,0,3,-6
1511883779053440,-2,-1,-5,-5,6,2,4,-3
1511883779055420,-2,1,-12,-1,7,-2,2,1
1511883779055420,1,4,3,2,5,1,-3,1
1511883779076515,2,0,-1,1,3,1,-2,-3
1511883779076515,-3,-2,9,4,5,-1,-4,0
1511883779077473,1,-2,6,-2,3,-1,-2,4
1511883779077473,-4,-3,-2,-5,-7,2,3,5
1511883779089504,1,-3,-3,-4,-8,1,2,4
1511883779089504,1,1,-4,5,-7,-4,4,2
1511883779098535,-2,2,-3,4,-4,-5,-3,-4
1511883779098535,-4,4,0,2,-5,-7,-9,-4
1511883779113568,-6,3,3,0,4,-4,-3,-5
1511883779113568,-1,-2,-4,-1,5,3,1,1
1511883779114570,1,-7,2,-5,4,2,1,-1
1511883779114570,-2,-8,-2,-1,2,1,1,3
1511883779136333,-2,1,-3,-6,-3,-2,4,4
1511883779136333,-4,2,1,-2,2,-1,6,3
1511883779137837,1,3,0,-2,-2,-1,2,-3
1511883779137837,1,0,-4,-1,-3,-4,0,-7
1511883779150056,2,3,-2,-2,-3,-4,-5,-3
1511883779150056,0,0,-2,2,-8,4,-6,-6
1511883779158922,-5,-2,-2,-4,-6,8,-3,-1
1511883779158922,-2,-3,1,7,2,3,-9,3
1511883779174059,-6,-5,0,5,0,-1,-3,3
1511883779174059,-5,-3,-2,4,4,-2,2,0
1511883779174964,-1,0,-1,-2,5,-5,0,1
1511883779174964,2,0,0,-6,1,-3,2,-1
