timestamp,emg1,emg2,emg3,emg4,emg5,emg6,emg7,emg8
1511884974363643,-4,-3,-1,1,-1,-4,0,-5
1511884974363643,4,1,1,-6,0,-2,3,5
1511884974369751,-1,-1,-1,-2,-1,4,-2,1
1511884974369751,-4,-5,0,3,-2,2,-2,-6
1511884974370691,4,-1,-1,-5,-2,0,0,4
1511884974370691,0,0,-1,-3,-1,0,2,2
1511884974371667,-4,0,-2,3,-2,-3,0,-8
1511884974371667,-2,4,1,-1,2,-3,0,-1
1511884974382825,0,0,-2,-3,2,0,4,1
1511884974382825,-5,-4,0,2,-1,-1,-5,-5
1511884974392852,-3,-3,-2,2,-2,2,-5,-1
1511884974392852,3,1,-2,-3,-2,0,1,3
1511884974397877,-3,-2,-3,3,2,-2,-3,-3
1511884974397877,-3,3,-4,3,-3,3,-1,-5
1511884974412064,0,2,-3,-4,-1,-1,-1,2
1511884974412064,3,-5,-1,0,1,-2,1,1
1511884974420924,-3,1,-1,3,1,5,-2,-4
1511884974420924,2,0,-2,-1,-2,-1,2,0
1511884974428945,1,0,1,-3,2,-4,1,2
1511884974428945,-4,-2,3,1,1,2,-2,-1
1511884974443505,0,-3,2,2,0,-2,-1,-1
1511884974443505,-1,1,-1,-3,5,0,-1,-1
1511884974451492,-1,-1,-2,3,0,1,-1,-2
1511884974451492,0,0,-5,3,-1,-3,0,-2
1511884974489610,2,0,1,-6,-2,-3,5,4
1511884974489610,4,-1,-2,-4,-3,-2,2,4
1511884974491622,-5,-1,-5,4,0,2,-5,-9
1511884974491622,2,-2,1,-2,-1,-2,0,1
1511884974492710,0,2,0,-2,-1,-1,0,0
1511884974492710,-7,-2,-1,4,0,2,-3,-4
1511884974494724,-2,-1,6,-1,-2,-4,0,-3
1511884974494724,5,0,0,-1,0,-2,0,4
1511884974502767,-4,-2,-1,2,3,2,-4,-9
1511884974502767,-2,0,-3,1,-1,-1,-2,-4
1511884974509784,1,-1,0,-6,-2,-2,-2,2
1511884974509784,-4,-1,-2,2,4,2,-3,1
1511884974516803,-1,3,-4,5,-4,2,-2,-6
1511884974516803,1,-1,-4,0,1,1,-1,0
1511884974531843,2,4,-7,-4,-1,-2,3,3
1511884974531843,-2,-3,-2,1,0,0,-2,-4
1511884974540147,1,-3,-2,2,2,-3,-2,4
1511884974540147,-1,3,1,-2,0,-3,1,1
1511884974549210,-1,-3,-1,1,-3,-2,0,1
1511884974549210,-3,-2,-1,2,-2,-1,2,-6
1511884974563350,1,3,-2,-3,-3,0,0,1
1511884974563350,0,-1,-1,0,-2,0,0,-1
1511884974569367,-1,-3,2,3,3,2,-4,0
1511884974569367,-1,4,-3,1,-3,-2,1,1
1511884974577556,-1,-3,3,1,2,0,0,1
1511884974577556,1,-2,-1,-3,1,1,-2,-1
1511884974592648,1,3,-1,-1,1,2,4,-1
1511884974592648,-2,-1,-1,-1,-1,1,0,3
1511884974599738,-2,-3,-2,2,1,-2,-1,-2
1511884974599738,-1,2,3,0,-1,1,-3,0
1511884974608692,1,-1,-1,-2,2,0,0,1
1511884974608692,0,0,-2,-1,0,0,-2,-2
1511884974622817,0,-3,-2,7,-1,3,-2,-2
1511884974622817,0,-5,-4,3,0,-2,-1,4
1511884974629836,0,2,-3,-1,0,1,-3,-2
1511884974629836,1,3,-1,6,3,1,0,-3
1511884974637019,0,1,-3,0,1,-1,0,0
1511884974637019,-2,-2,-4,0,0,3,2,-3
1511884974651936,-3,2,1,3,-3,1,-1,-2
1511884974651936,-3,0,-1,1,-3,1,-1,-1
1511884974660083,-1,0,4,0,-1,0,-1,-1
1511884974660083,1,0,-2,4,2,4,-1,-5
1511884974668982,-4,-4,-2,4,4,2,-2,-1
1511884974668982,0,1,-1,-3,0,2,-1,-2
1511884974683259,1,-3,-1,2,-3,-2,0,1
1511884974683259,-3,2,0,1,-4,-2,-2,-1
1511884974689164,3,-2,0,-3,-5,1,-1,0
1511884974689164,0,-2,-2,0,4,3,-4,-2
1511884974697486,-4,-2,-3,-1,-1,-1,-3,0
1511884974697486,0,2,-1,1,-3,-3,1,-1
1511884974712347,1,-2,-3,1,-1,3,-1,2
1511884974712347,-2,0,-1,-2,-1,0,0,-1
1511884974719365,1,-1,0,-2,-1,1,1,-2
1511884974719365,0,3,0,0,-3,-2,-3,1
1511884974728508,-1,-4,0,2,2,0,1,0
1511884974728508,-2,-2,1,0,0,0,-1,-1
1511884974742734,0,0,-1,-4,0,1,-3,0
1511884974742734,1,0,-2,0,3,3,-1,0
1511884974751572,-3,4,0,-1,-1,0,1,-3
1511884974751572,-2,-4,0,1,-3,1,-3,-5
1511884974757715,-1,1,-2,-4,0,-1,-3,-4
1511884974757715,0,-3,-1,1,-2,3,-3,-1
1511884974772814,0,3,0,2,-3,-1,2,0
1511884974772814,0,-1,-1,3,-2,-1,0,1
1511884974779823,1,4,2,-1,1,-2,1,-1
1511884974779823,-1,-2,-1,-2,-2,-3,-2,1
1511884974794831,1,-2,-2,-2,-2,0,-1,2
1511884974794831,2,1,-1,-4,-4,-3,2,2
1511884974802892,-3,-2,-2,-1,1,2,0,-2
1511884974802892,-2,0,3,1,-1,-1,-1,-1
1511884974810936,-1,2,0,-3,-2,-1,-2,-1
1511884974810936,-5,-3,-2,-3,1,0,1,-1
1511884974816894,-2,0,-5,3,-3,2,-2,-2
1511884974816894,0,0,-1,-2,0,-5,1,-1
1511884974831973,-1,-2,0,2,-1,-2,-5,-1
1511884974831973,1,3,-1,3,3,-3,-1,-2
1511884974839952,4,-3,0,0,-1,-2,1,-2
1511884974839952,-1,0,-1,-1,2,1,0,-3
1511884974855033,-1,-3,-4,5,-1,2,-3,-1
1511884974855033,-4,1,-2,-2,-6,1,2,-1
1511884974862053,-3,3,2,5,3,0,0,-2
1511884974862053,0,0,3,-1,-2,1,-1,-4
1511884974871033,-2,0,1,0,1,2,1,-2
1511884974871033,3,-1,1,1,2,-1,2,0
1511884974877053,-1,-2,-2,-3,-3,-2,0,1
1511884974877053,-2,2,-2,0,1,0,-1,-1
1511884974892516,0,-1,-3,-1,2,-1,-1,-2
1511884974892516,-1,-4,2,-1,0,0,-4,-4
1511884974899345,-1,-2,2,-4,-1,-3,0,1
1511884974899345,0,-1,3,0,1,1,-2,-2
1511884974914622,1,0,-1,-1,-1,1,2,-1
1511884974914622,-2,-1,-2,4,0,-1,-3,-5
1511884974922644,0,0,-5,1,2,1,-1,1
1511884974922644,-2,-2,-2,-2,1,-5,1,-3
1511884974931669,-4,5,2,0,-2,1,-5,-3
1511884974931669,-1,0,2,2,2,-2,-3,1
1511884974937706,-1,2,-3,0,-1,-1,-3,1
1511884974937706,0,-3,0,2,0,-2,0,-1
1511884974952720,-3,-1,-3,-2,0,-2,-1,1
1511884974952720,-2,0,-5,-2,0,0,-3,-1
1511884974959742,-3,2,1,2,0,1,-2,-1
1511884974959742,-7,-2,-3,4,2,5,-3,1
1511884974974816,0,-2,2,-1,-2,-3,2,1
1511884974974816,4,0,0,-2,0,1,-2,1
1511884974981799,0,-5,-1,1,-1,0,2,-2
1511884974981799,0,-2,-1,1,-3,-1,-3,1
1511884974990827,-1,1,3,0,-1,-1,-1,-5
1511884974990827,-3,-3,-4,3,0,1,-3,-4
1511884974996842,-2,0,2,0,-6,-1,-1,-2
1511884974996842,-2,-3,0,-4,-2,-3,1,-1
1511884975011879,-1,-3,-5,3,-1,-3,3,1
1511884975011879,-2,5,-1,1,1,0,-3,-2
1511884975020108,-1,-3,-1,3,0,4,-3,-5
1511884975020108,1,1,-4,0,3,3,-2,-2
1511884975035057,2,-2,-2,-5,-6,-3,-2,0
1511884975035057,-2,0,-1,-1,0,2,1,-1
1511884975042083,-4,3,-5,2,-1,-1,-1,1
1511884975042083,1,-2,-2,0,-2,-1,-2,1
1511884975050993,-2,-3,-3,1,0,4,-2,-2
1511884975050993,-1,-2,-1,-4,-5,-2,0,1
1511884975056998,-3,-2,0,4,3,3,-2,-3
1511884975056998,3,0,2,1,-3,0,2,-2
1511884975072207,-7,1,0,1,4,0,-1,-2
1511884975072207,-1,-1,0,-1,-1,-3,3,2
1511884975080229,-2,-1,1,1,1,-1,-1,-1
1511884975080229,-2,3,5,0,5,-3,-2,-1
1511884975094463,2,-4,-2,2,-2,2,-2,-2
1511884975094463,1,-1,0,-4,-2,1,0,0
1511884975102473,0,-2,-4,2,-2,1,2,-1
1511884975102473,-2,-3,-2,2,-1,4,-2,0
1511884975111312,-3,-1,2,1,3,-1,-1,0
1511884975111312,-1,1,-3,-1,-4,-2,-2,-2
1511884975125586,0,1,-3,1,-2,-2,-1,-1
1511884975125586,-2,0,-2,-2,0,1,1,-1
1511884975132598,0,-3,2,1,1,3,-1,-2
1511884975132598,-3,-2,-2,-1,-3,-1,-2,0
1511884975147604,1,-3,3,-4,-2,-2,-1,1
1511884975147604,-1,3,-2,1,-6,1,-3,-1
1511884975154602,-1,0,0,5,-3,-2,-2,-2
1511884975154602,0,-3,-3,0,2,1,-2,1
1511884975162684,-2,1,2,-4,-4,-1,-3,1
1511884975162684,-1,0,0,6,2,-3,-1,-3
1511884975171602,1,1,-4,3,0,1,1,2
1511884975171602,-5,0,0,5,-1,3,-2,-1
1511884975185639,-2,8,-3,-2,3,0,0,-3
1511884975185639,-1,7,2,-3,4,2,1,-2
1511884975192802,0,-6,0,-5,-6,-1,-3,2
1511884975192802,0,-7,0,7,1,2,-3,-3
1511884975199676,3,-10,-3,-2,-3,-3,2,0
1511884975199676,-3,-5,-1,4,-5,-1,-1,-2
1511884975214737,3,5,0,-2,1,3,-1,1
1511884975214737,-1,-1,-1,-4,-3,-1,0,-3
1511884975221760,-4,-2,0,3,-2,1,0,1
1511884975221760,1,-4,-3,-2,2,-4,-1,-1
1511884975230758,-3,-3,-4,-5,-4,-2,1,-5
1511884975230758,-1,3,-1,3,2,1,-1,-1
1511884975245796,-1,-2,0,-1,1,0,0,3
1511884975245796,1,-2,-2,-1,0,-4,1,2
1511884975252091,-3,-3,-1,1,1,1,-3,-2
1511884975252091,1,3,-1,0,-4,0,1,2
1511884975259990,1,1,-3,2,1,1,-2,0
1511884975259990,-2,2,-1,-2,-3,-1,-3,0
1511884975275223,-1,-3,-1,4,3,0,0,-2
1511884975275223,-1,-1,1,-3,-1,-3,3,0
1511884975282226,-3,-4,-1,2,-1,0,-5,-4
1511884975282226,2,0,-2,1,1,5,-2,-1
1511884975291221,-3,2,5,0,-5,-1,1,4
1511884975291221,2,-1,3,-1,5,1,0,-3
1511884975305445,-1,1,-4,1,-1,1,-1,1
1511884975305445,-3,-1,-1,-3,0,0,4,0
1511884975312278,-3,2,-4,-1,2,0,-6,-2
1511884975312278,-1,-3,-3,1,1,1,-2,0
1511884975319388,0,3,1,-2,-3,3,0,-1
1511884975319388,2,1,-1,-1,-1,-1,-4,-1
1511884975334368,0,2,2,1,-2,-3,-1,-1
1511884975334368,1,-2,0,0,-5,-3,-3,-2
1511884975342388,2,2,0,-1,0,-3,0,1
1511884975342388,1,-1,0,2,-1,0,-2,1
1511884975351521,-2,0,-2,-1,3,-2,0,-4
1511884975351521,-1,-5,-3,-1,-1,0,0,3
1511884975365579,0,-2,-2,-4,-1,-1,2,0
1511884975365579,-2,1,1,-1,-4,4,-3,-1
1511884975372618,2,0,-2,-4,0,-3,-2,-1
1511884975372618,-4,0,-2,-3,4,0,-1,0
1511884975379596,-2,-4,0,-2,1,-5,0,-1
1511884975379596,-4,0,2,-2,-3,-2,-1,-3
1511884975394681,-3,0,-4,2,1,1,-2,-2
1511884975394681,2,-2,1,1,-2,-1,1,-1
1511884975402658,-5,0,3,4,-1,-1,-1,-5
1511884975402658,1,-4,-3,-1,-4,2,0,-3
1511884975411678,-2,-6,1,-2,-1,2,2,2
1511884975411678,0,3,-5,0,-3,-3,-2,-1
1511884975425812,-1,-1,-1,-4,-2,-1,0,1
1511884975425812,1,-1,-5,1,4,0,0,-1
1511884975431755,0,0,-6,-1,1,-2,1,-3
1511884975431755,-4,0,-1,4,-1,0,-1,-1
1511884975439752,-1,-1,-2,2,-1,0,-1,-2
1511884975439752,-4,2,-2,2,-1,-4,1,-1
1511884975454902,-1,-3,-1,4,0,1,-1,-1
1511884975454902,1,0,3,0,0,4,1,-3
1511884975461811,0,-2,-1,-2,3,2,-1,-2
1511884975461811,-2,-4,2,-2,-1,-1,-3,0
1511884975477023,1,-3,6,3,0,-1,1,-1
1511884975477023,-4,-2,4,-1,0,2,1,-2
1511884975484875,-3,-1,-1,1,0,0,-1,-3
1511884975484875,-4,-1,1,-1,2,1,1,0
1511884975500036,0,1,0,0,-2,-5,-2,1
1511884975500036,-2,0,-4,1,2,-4,-1,0
1511884975501036,0,-4,1,1,0,-1,-3,-2
1511884975501036,-1,0,-3,-5,-4,-1,0,0
1511884975515250,0,0,0,0,-1,-3,0,-1
1511884975515250,0,3,2,-1,-1,-1,-1,0
1511884975522287,-1,-2,0,-1,-2,-3,3,1
1511884975522287,2,-2,-2,6,-2,-3,0,-1
1511884975537285,0,0,0,-2,-3,3,-2,0
1511884975537285,3,1,-3,2,-5,-4,1,0
1511884975545307,0,-3,1,-2,0,-4,-1,3
1511884975545307,0,-2,-2,-3,-5,3,-1,-1
1511884975560530,-4,3,0,4,-2,-2,3,-2
1511884975560530,-2,-2,2,1,1,3,-2,0
1511884975561348,0,2,-2,-3,-2,-2,0,1
1511884975561348,1,-1,-1,1,-2,0,0,1
1511884975574381,-2,-4,-4,-1,-3,3,-3,-1
1511884975574381,-1,0,1,-2,-4,0,-1,2
1511884975582405,-3,1,1,4,-2,3,2,-5
1511884975582405,1,-4,2,-1,1,-2,-1,-1
1511884975597650,2,-3,3,-3,-1,4,-1,1
1511884975597650,0,0,-3,-4,-1,-3,0,-3
1511884975605658,0,0,2,1,-3,0,-3,1
1511884975605658,-1,0,-1,-2,-2,-3,-3,0
1511884975620780,0,0,0,2,-4,-5,-2,2
1511884975620780,-4,-5,0,2,4,0,-1,-3
1511884975621666,5,1,-3,-7,0,-1,0,0
1511884975621666,-1,-1,-1,4,-1,2,1,-3
1511884975634632,1,1,-1,2,2,-3,-3,-3
1511884975634632,0,2,1,-4,-1,-2,-2,1
1511884975642780,1,0,-2,3,0,-2,0,2
1511884975642780,0,1,-2,-3,0,1,1,-2
1511884975656813,1,-2,3,2,-5,-1,0,-2
1511884975656813,3,0,-5,-5,-7,-3,1,-3
1511884975665841,1,1,1,5,3,-1,1,-1
1511884975665841,-1,-2,2,-2,5,-1,-1,-1
1511884975680122,-1,-1,1,-1,-1,2,1,0
1511884975680122,0,-1,3,3,1,3,0,-1
1511884975681020,-2,-4,-3,4,-4,-1,-2,0
1511884975681020,-3,0,-5,6,1,-1,-2,0
1511884975695058,-3,4,-2,-3,1,1,0,1
1511884975695058,-1,2,0,5,5,3,-2,-4
1511884975702150,0,1,0,-4,2,3,-3,-5
1511884975702150,0,-3,2,0,1,-3,-1,0
1511884975717169,-1,-2,-4,2,-3,0,-3,0
1511884975717169,-3,-2,2,-3,-2,-3,0,-2
1511884975725142,1,0,3,0,-3,0,-2,-1
1511884975725142,0,-3,1,-4,1,0,0,0
1511884975740177,0,1,2,1,2,-1,1,-4
1511884975740177,-1,-4,4,1,1,1,-3,0
1511884975741180,-1,2,-3,-5,-5,0,1,1
1511884975741180,-1,-3,1,1,1,2,0,-1
1511884975754214,0,0,-3,2,6,0,0,-1
1511884975754214,2,1,-3,3,0,0,-1,1
1511884975762236,-2,-5,0,-2,0,-1,-3,0
1511884975762236,-4,3,0,3,1,0,-1,-1
1511884975777279,2,-1,-2,-4,-1,-2,0,1
1511884975777279,-2,0,1,-4,-5,-3,0,2
1511884975785401,-1,-3,-4,4,-1,-2,1,-4
1511884975785401,-2,-3,0,1,-3,-1,1,1
1511884975800340,-5,1,1,0,1,-1,-1,-4
1511884975800340,2,-6,0,0,0,-1,0,-5
1511884975801340,0,1,4,-2,-2,1,-1,-1
1511884975801340,-1,-2,2,-3,-2,1,-2,0
1511884975814618,-2,0,-2,5,-2,1,-4,-2
1511884975814618,0,0,-2,3,2,2,-2,0
1511884975822806,-3,-1,-2,-1,-2,-1,0,-1
1511884975822806,-3,-2,-1,-2,-2,-2,-2,0
1511884975836857,-4,3,0,8,0,6,-1,-5
1511884975836857,-2,0,1,0,2,-1,-3,1
1511884975845917,2,1,0,-2,-2,-4,-2,0
1511884975845917,0,-2,-2,4,1,1,-4,-2
1511884975860901,0,-4,-2,-7,0,-3,2,2
1511884975860901,-1,2,-5,1,-5,-4,0,-3
1511884975860901,-2,-1,-3,-2,1,1,2,-2
1511884975860901,-1,-3,-3,4,2,-2,-1,-2
1511884975874913,0,-5,1,-3,-3,-1,-2,0
1511884975874913,-1,0,-7,-2,0,1,0,-4
1511884975881934,-2,-2,5,-1,-1,3,-4,0
1511884975881934,0,2,0,1,-4,-1,0,-2
1511884975897094,-1,-5,-6,-6,-5,-1,0,1
1511884975897094,-1,-1,-3,-1,0,2,-3,1
1511884975905037,-2,-2,-1,0,-3,-1,2,-3
1511884975905037,-3,4,-3,-1,0,1,0,1
1511884975920035,1,-5,2,1,4,0,0,-2
1511884975920035,-3,1,-5,-2,1,-2,-1,-1
1511884975921035,2,4,1,-3,0,-2,-1,2
1511884975921035,-1,-1,1,-1,1,0,0,-2
1511884975935074,-3,-1,-5,0,-4,-1,2,-2
1511884975935074,-2,-5,-1,0,-2,0,1,-2
1511884975942219,-1,-2,1,1,7,-2,-2,-1
1511884975942219,-2,1,0,3,0,0,-1,-3
1511884975957132,3,-1,-5,-1,3,1,-2,-3
1511884975957132,-3,1,4,-2,-5,-1,-1,1
1511884975965158,-1,1,-1,3,2,-2,-1,-1
1511884975965158,3,-2,1,-4,-3,3,-1,-2
1511884975980351,-1,0,0,-4,3,-6,0,1
1511884975980351,-2,-2,0,-1,-2,3,-2,-2
1511884975981312,-2,-2,-2,4,-3,-1,1,-1
1511884975981312,0,-1,-2,-4,-1,-3,1,1
1511884975994470,-2,1,5,-3,-5,0,-2,0
1511884975994470,0,2,-5,1,-1,1,-3,-4
1511884976002572,-4,-1,-1,4,1,-1,1,-2
1511884976002572,0,2,0,-1,-1,1,-1,-1
1511884976017517,0,5,8,-3,-1,-3,-1,1
1511884976017517,-1,-5,-3,-1,0,-3,0,3
1511884976025548,0,-4,-2,-1,1,6,-2,1
1511884976025548,-3,-1,-2,2,-2,-5,-1,2
1511884976039566,0,-3,1,3,-3,2,2,0
1511884976039566,1,2,0,1,3,4,2,-2
1511884976047568,2,0,-6,0,-1,0,1,0
1511884976047568,1,-3,-2,-1,0,2,1,-3
1511884976062649,2,-2,-2,0,-3,-1,-4,0
1511884976062649,1,1,2,2,3,-3,0,-1
1511884976063608,0,4,-2,2,-7,1,-1,0
1511884976063608,1,-1,-1,-3,-4,-3,0,-2
1511884976077676,-2,-6,-1,-4,-1,-2,1,0
1511884976077676,1,-4,4,4,-1,0,1,-1
1511884976085858,-1,1,-3,1,-3,-4,-1,-4
1511884976085858,-2,0,3,2,-4,0,3,1
1511884976099895,-2,2,-2,3,1,0,-4,-3
1511884976099895,-2,2,-1,-5,-4,-1,-2,-2
1511884976107918,-1,-4,5,-2,-2,1,-1,4
1511884976107918,0,0,-1,-3,1,0,0,-3
1511884976114935,0,0,-5,1,1,2,-1,-1
1511884976114935,-1,-1,0,2,-2,-4,0,2
1511884976122066,-1,-3,-5,1,1,0,-3,-2
1511884976122066,2,1,-2,-1,3,0,-4,0
1511884976137300,1,-1,-1,-3,-5,1,0,-1
1511884976137300,-2,-1,-2,7,4,-1,0,2
1511884976145398,-1,2,-6,10,-1,-1,0,-5
1511884976145398,-4,-3,3,-5,0,-3,-4,-1
1511884976159364,-1,-3,-1,5,-3,3,-3,-4
1511884976159364,3,0,-3,-8,-3,-5,0,-1
1511884976168443,-7,0,1,0,2,2,0,-1
1511884976168443,-3,-3,0,7,0,-1,-2,-4
1511884976182637,-1,3,-2,-4,2,2,1,0
1511884976182637,-3,-1,-1,0,1,4,-2,-2
1511884976183637,0,1,-1,-1,1,2,-2,-1
1511884976183637,1,-1,0,-3,-1,-1,-1,0
1511884976197694,-4,0,-3,1,2,-2,-1,3
1511884976197694,-3,-3,-1,1,1,-3,2,-3
1511884976205882,-1,-1,0,-4,-2,-5,-3,0
1511884976205882,-3,2,-5,4,-3,6,0,-2
1511884976219744,1,2,1,1,2,-2,-1,-4
1511884976219744,-2,0,0,-1,-2,1,-3,-3
1511884976227757,2,1,-1,-3,1,1,0,-3
1511884976227757,-1,2,1,8,1,-3,-1,-2
1511884976242969,-2,2,-2,-7,1,-2,-1,0
1511884976242969,-4,2,1,5,1,2,-2,-3
1511884976243798,2,2,3,1,3,1,2,0
1511884976243798,-1,-2,-4,3,-3,3,1,-2
1511884976256848,2,1,2,-2,-5,0,-1,-2
1511884976256848,0,-5,-2,-18,-2,-6,-3,3
1511884976265912,-3,-4,-4,12,-2,2,2,-1
1511884976265912,0,3,-1,-13,-9,-3,3,5
1511884976279893,0,-2,-1,5,1,-3,3,-1
1511884976279893,2,1,0,-12,2,2,-1,-3
1511884976288093,-1,0,2,-8,-5,-4,-3,-3
1511884976288093,1,0,-2,-4,6,-1,-1,0
1511884976303204,-3,-5,-1,2,-1,0,-2,-3
1511884976303204,3,-1,1,1,-5,3,-2,-6
1511884976304139,-4,-1,1,8,1,-2,-1,-5
1511884976304139,7,0,-2,-7,-2,1,-3,-1
1511884976317269,-3,3,2,1,-4,-2,-1,-2
1511884976317269,0,-2,-1,7,2,-1,2,1
1511884976325273,-3,-3,-1,-7,-3,-1,-6,3
1511884976325273,3,0,4,9,1,-2,-5,1
1511884976339308,-1,0,-4,-1,3,-3,2,2
1511884976339308,-1,-2,-5,-5,-2,-2,2,9
1511884976348226,4,-2,1,-12,-2,-5,-3,4
1511884976348226,-1,-5,-3,0,3,-3,-1,0
1511884976362559,-8,0,-2,-3,1,-2,5,6
1511884976362559,2,-1,6,1,1,1,1,6
1511884976363385,0,-6,-3,-4,2,-1,1,-2
1511884976363385,0,4,-2,3,1,0,3,-2
1511884976377667,-3,-3,3,2,-3,1,-5,-2
1511884976377667,-4,4,0,11,-5,3,-5,-7
1511884976385496,-1,4,0,-1,-4,3,1,-3
1511884976385496,-4,-3,0,4,-2,1,-4,1
1511884976399533,2,-1,-6,2,-3,6,-6,-7
1511884976399533,-3,-3,1,6,-2,-1,-4,-5
1511884976407729,0,1,-4,0,1,-1,2,1
1511884976407729,-5,0,1,-3,-3,-3,10,-3
1511884976422603,1,1,-1,4,-2,2,-3,0
1511884976422603,-3,-4,-1,-2,-1,-1,-1,0
1511884976423596,5,2,2,-2,-3,-3,-1,0
1511884976423596,-5,-3,-1,2,2,1,0,3
1511884976437664,6,0,-3,-2,3,-3,5,-1
1511884976437664,2,1,1,-2,-2,-1,1,1
1511884976445794,-1,-1,1,0,-2,2,1,2
1511884976445794,-3,-2,-1,4,-3,2,-13,-2
1511884976459735,1,2,1,-2,1,-5,-4,5
1511884976459735,1,-4,0,-1,-4,-2,2,-1
1511884976467757,-1,-3,-2,4,1,3,1,-4
1511884976467757,2,-1,-6,-2,-3,2,1,0
1511884976482755,0,0,0,-2,-3,1,-2,1
1511884976482755,-4,1,-2,0,-2,0,-1,-4
1511884976483755,-1,0,-3,4,-2,0,-2,-2
1511884976483755,1,-6,5,-4,-4,-3,4,-1
1511884976496796,-2,4,-2,5,1,1,1,-5
1511884976496796,1,-2,-1,1,2,-5,1,-1
1511884976505892,-4,-1,-2,1,-1,1,-1,-3
1511884976505892,1,-1,1,1,1,1,-2,-2
1511884976519895,0,-3,0,0,1,0,4,-3
1511884976519895,1,-1,-1,-1,-5,2,1,0
1511884976527913,-1,1,-2,2,-1,2,-5,1
1511884976527913,-1,2,-2,4,1,-2,0,-2
1511884976543003,-3,-2,-1,-2,-1,-3,-3,0
1511884976543003,1,1,-2,2,-1,0,-1,1
1511884976543965,1,-1,1,-1,-2,-1,2,1
1511884976543965,-3,2,-1,-1,-2,1,-3,-2
1511884976557021,1,-2,-2,0,1,3,2,-1
1511884976557021,-2,0,-3,1,0,-3,0,-1
1511884976565023,-5,1,1,3,-1,-2,3,-3
1511884976565023,-1,1,-1,-8,2,1,-1,-2
1511884976580063,-1,-1,1,10,-2,-1,-2,4
1511884976580063,-3,1,-5,1,-2,-1,-1,-1
1511884976588084,0,-4,-1,-8,0,-1,-1,-1
1511884976588084,-1,4,0,6,0,-1,2,-2
1511884976603307,1,-4,-2,-8,1,3,-1,-2
1511884976603307,3,-1,0,5,-1,2,-3,-2
1511884976604183,0,1,2,0,0,-2,-1,-1
1511884976604183,-1,0,-3,3,3,1,18,0
1511884976617162,-1,-1,-3,0,-5,-5,-3,0
1511884976617162,0,1,1,-4,2,1,-1,0
1511884976625365,-1,-4,2,-3,1,-3,-1,0
1511884976625365,-3,0,3,3,-3,-3,-6,-1
1511884976639403,4,1,2,-3,-4,1,5,3
1511884976639403,1,-5,1,-2,0,-4,0,-1
1511884976648456,-4,0,-4,0,-1,-1,-3,-1
1511884976648456,-1,-2,-2,-3,0,-1,-3,-1
1511884976662640,-2,-4,5,5,-1,-1,0,-5
1511884976662640,-6,1,1,-7,-3,-2,-6,-2
1511884976663642,-1,-2,-2,9,0,4,-2,-5
1511884976663642,-2,1,-3,-6,-1,1,-4,-3
1511884976677684,-3,-1,1,5,-1,0,-5,-1
1511884976677684,3,0,2,-4,-2,-2,4,2
1511884976685744,1,0,2,-2,-3,-2,2,3
1511884976685744,1,-5,-9,-8,-3,-3,-4,2
1511884976699740,-4,-1,-6,-2,-3,-2,2,-3
1511884976699740,0,1,0,-5,-1,2,-4,1
1511884976707885,-2,-2,0,-4,-2,-2,-2,2
1511884976707885,2,0,4,4,-3,-2,-6,-4
1511884976722798,-2,2,-1,-2,-1,2,2,-2
1511884976722798,-4,-2,-6,10,2,0,4,0
1511884976723801,-1,-5,1,-5,-1,-1,-3,-1
1511884976723801,-4,3,3,4,2,-1,-1,-2
1511884976736835,0,1,-1,4,0,-3,2,1
1511884976736835,3,3,-2,3,-3,-2,-5,-2
1511884976744856,4,-2,-1,-15,-3,-2,9,1
1511884976744856,1,3,0,12,2,4,1,-2
1511884976759897,-1,1,-1,-6,2,-4,-4,-2
1511884976759897,-1,-1,-1,8,7,-1,-2,0
1511884976767917,1,2,-3,-4,-4,-2,0,4
1511884976767917,3,-3,2,-3,-2,-2,2,-1
1511884976782960,2,2,-1,4,-2,1,-1,0
1511884976782960,-2,0,3,0,-3,3,-1,0
1511884976783965,-4,-1,-4,7,5,2,-10,-4
1511884976783965,-7,0,-3,-8,-2,-7,-4,-2
1511884976796996,-1,1,-4,14,2,6,-4,-5
1511884976796996,-5,-4,-2,-20,-5,3,-1,-5
1511884976806020,-2,2,2,16,-1,-3,-4,-3
1511884976806020,-2,-3,2,-9,1,2,-1,1
1511884976820252,-3,-3,3,9,1,1,-5,0
1511884976820252,-3,1,2,-7,3,-1,0,-1
1511884976828183,0,1,-5,-5,3,5,-2,-9
1511884976828183,-1,-2,-1,2,-6,-2,1,4
1511884976843245,-2,-3,0,-5,2,-1,0,3
1511884976843245,-1,2,2,2,-1,0,0,-1
1511884976844138,3,-1,3,-3,-3,0,5,1
1511884976844138,-2,-5,-2,3,1,2,-4,-6
1511884976857407,-3,0,1,5,-1,2,-1,-6
1511884976857407,1,-1,0,5,-9,1,-8,-3
1511884976864273,-6,-1,-3,4,0,1,-7,-5
1511884976864273,-4,-5,1,4,-5,-1,-2,-4
1511884976879349,-3,-4,2,-5,2,-3,2,-4
1511884976879349,2,1,-4,3,0,-1,3,4
1511884976888495,3,1,-1,-2,0,-3,2,2
1511884976888495,4,1,2,-4,3,1,-12,4
1511884976902622,6,-3,-1,-12,2,-6,-2,9
1511884976902622,1,-2,-2,3,2,-3,3,2
1511884976903535,1,3,1,0,-1,-2,2,-5
1511884976903535,-1,-2,-2,1,0,-2,1,5
1511884976917585,0,0,0,-3,3,4,-3,-3
1511884976917585,1,1,-5,0,-1,-5,4,4
1511884976925634,0,1,-1,-2,-1,-1,2,3
1511884976925634,3,-3,-2,4,-1,3,-1,-4
1511884976939635,-2,0,0,5,-6,4,-5,-4
1511884976939635,-1,-3,0,0,0,1,-12,-3
1511884976947655,0,0,-2,-7,0,2,-3,3
1511884976947655,-2,-1,0,1,0,-2,0,-2
1511884976962693,2,-2,-1,-4,-3,-4,2,3
1511884976962693,-1,0,0,-2,3,-3,-2,-2
1511884976963699,-1,-5,-2,-1,-4,-1,-3,-2
1511884976963699,2,4,0,-4,2,1,3,0
1511884976976737,-4,1,-4,2,-4,2,-1,-3
1511884976976737,-1,2,-2,7,-1,2,0,-4
1511884976985909,-5,-5,-2,1,-2,-3,-1,-3
1511884976985909,-6,-6,-3,3,1,0,18,-6
1511884976999825,-2,-1,4,0,-1,-2,0,-5
1511884976999825,-5,-5,-3,-1,0,-3,0,-2
1511884977008036,1,-1,0,-3,3,1,-39,2
1511884977008036,3,3,0,-9,0,-7,-22,11
1511884977021970,-2,-1,0,-1,-3,-1,0,0
1511884977021970,-1,-5,2,3,-3,-3,8,0
1511884977030030,1,-4,-1,9,5,3,-7,1
1511884977030030,-4,-2,0,-3,0,4,-2,1
1511884977037294,4,0,1,0,1,1,-2,1
1511884977037294,-2,-1,2,-9,2,-1,-12,1
1511884977045206,-3,4,-4,4,-4,0,11,-5
1511884977045206,-5,-1,-3,4,-4,-2,54,-10
1511884977059561,-2,0,-4,0,-2,0,6,-5
1511884977059561,-2,1,-1,0,-3,1,1,-4
1511884977068428,1,2,4,-2,-2,-3,3,1
1511884977068428,0,0,0,3,0,-3,-7,0
1511884977082432,-4,-2,-1,0,0,0,-4,0
1511884977082432,-4,-1,-2,2,1,-2,7,-4
1511884977090566,-5,-1,-1,3,-1,2,23,-5
1511884977090566,4,1,-1,-4,-2,1,-18,1
1511884977105603,-8,2,0,3,-1,-2,0,-3
1511884977105603,3,0,-2,2,-4,2,-5,0
1511884977106493,2,-3,0,-1,-1,-1,2,0
1511884977106493,-3,-1,-1,3,-3,2,-4,0
1511884977119531,4,1,1,2,-1,-3,-41,5
1511884977119531,5,-2,-1,-14,1,-1,-18,5
1511884977127553,1,-2,2,2,-1,-3,2,0
1511884977127553,0,3,-1,3,-2,1,0,0
1511884977142711,-3,-2,-1,-3,-4,2,17,0
1511884977142711,2,0,4,-1,-4,-4,6,-1
1511884977150615,-1,2,-2,2,-4,-2,-3,5
1511884977150615,3,-5,-1,-1,0,-3,-9,0
1511884977165654,1,-6,-2,-3,1,-6,15,2
1511884977165654,-1,2,-1,3,1,5,5,-1
1511884977166658,-1,0,1,-8,-4,1,2,-4
1511884977166658,1,0,-1,1,-1,-2,-1,-1
1511884977179728,-1,-3,-6,-7,-1,5,4,-1
1511884977179728,-2,-1,-5,4,-1,-1,6,-2
1511884977187755,1,0,-1,8,1,1,-7,1
1511884977187755,-2,-1,-1,-4,-1,3,-3,-4
1511884977201750,-3,1,-2,9,0,1,-1,-6
1511884977201750,-3,-2,-1,-4,-6,2,-3,2
1511884977210013,-2,1,-3,-6,1,2,6,-5
1511884977210013,-4,0,-1,9,-2,-2,-3,1
1511884977225164,2,-2,-1,1,-4,-2,4,-2
1511884977225164,-3,2,3,-4,2,-1,3,1
1511884977226091,1,-1,-1,0,1,-2,0,0
1511884977226091,-3,-3,1,-7,4,4,-1,-5
1511884977240192,3,2,-2,5,3,1,-1,1
1511884977240192,2,-2,-4,0,3,0,2,0
1511884977248177,-1,-1,2,2,3,1,-1,-2
1511884977248177,0,1,0,-12,-1,-4,-5,2
1511884977262315,-2,2,5,0,2,-1,2,3
1511884977262315,2,1,-2,6,4,0,2,-1
1511884977270276,-3,-3,-3,-10,-1,1,-1,-1
1511884977270276,-2,3,2,8,1,0,0,-3
1511884977285313,4,3,-3,-1,-4,-1,-3,-1
1511884977285313,0,-2,3,-2,-2,0,0,-4
1511884977286308,-3,-2,-2,3,0,0,-3,-2
1511884977286308,1,-1,-2,0,1,2,-5,-1
1511884977299424,0,0,-6,-2,-2,2,-7,-1
1511884977299424,-2,2,-1,5,-1,-1,-2,-5
1511884977307529,1,-5,-1,2,2,-1,6,-1
1511884977307529,-1,-1,-2,2,-5,0,-5,-2
1511884977322588,-2,-3,0,9,-1,-1,2,-5
1511884977322588,-1,0,1,-8,-1,1,0,-1
1511884977330502,3,2,-4,2,-1,-4,-6,1
1511884977330502,3,-2,1,3,1,1,2,4
1511884977345634,0,-3,3,-8,0,-2,0,-1
1511884977345634,0,-3,1,-4,-3,-2,0,5
1511884977346526,-2,3,0,-5,-5,-1,2,0
1511884977346526,-1,0,-3,5,-2,-1,1,1
1511884977359586,0,4,2,-5,-3,-1,4,1
1511884977359586,-2,-6,0,2,-2,-2,-2,1
1511884977367583,-2,-1,0,8,-4,1,0,-2
1511884977367583,2,-4,-2,-1,4,1,-1,3
1511884977382693,5,0,1,-2,-1,-1,-2,2
1511884977382693,0,1,-1,-6,0,0,-4,-2
1511884977390756,2,1,3,-5,-4,1,0,2
1511884977390756,-1,-2,1,-6,-5,-2,6,-2
1511884977405687,-2,1,-4,5,-2,0,-1,0
1511884977405687,2,-2,0,9,-1,2,0,1
1511884977405687,-1,-1,1,5,2,0,-2,0
1511884977405687,-4,3,0,-2,-3,-1,-4,-2
1511884977428930,-3,-8,2,-2,4,3,0,-3
1511884977428930,-3,3,-6,5,-1,-1,4,1
1511884977429749,-1,2,-3,-6,-1,0,0,3
1511884977429749,3,2,-2,-6,4,-1,1,0
1511884977442813,2,-4,2,1,0,-1,-1,3
1511884977442813,0,-3,-1,-5,0,-5,1,-2
1511884977450809,1,-2,2,0,-1,1,0,-2
1511884977450809,-3,-6,1,1,-2,2,-2,-3
1511884977465872,-4,1,-5,-21,0,0,-1,-2
1511884977465872,-2,1,1,21,3,3,-1,-4
1511884977465872,-3,-2,0,-8,-2,-2,-2,-1
1511884977465872,-3,1,1,-1,2,-4,-1,-3
1511884977480024,1,0,0,4,-4,5,-3,1
1511884977480024,-1,-4,3,10,-3,-4,-1,-3
1511884977488045,-2,-5,-3,-21,-1,0,2,-4
1511884977488045,-1,0,-1,23,-2,1,1,0
1511884977502205,-5,0,-3,-17,1,1,-2,-3
1511884977502205,-1,0,-2,5,-1,2,-4,-4
1511884977511230,-3,1,-1,4,-1,-4,1,-3
1511884977511230,-2,-1,-1,0,1,1,-4,-3
1511884977525297,0,-5,1,6,-1,-4,3,-2
1511884977525297,1,1,-1,-3,-2,0,1,1
1511884977533291,1,-1,-3,2,3,-1,-2,3
1511884977533291,-2,0,0,-6,-4,-2,-3,-2
1511884977539304,-1,3,3,3,3,-4,1,2
1511884977539304,-1,-3,-2,-9,-1,-1,-2,0
1511884977548328,-3,-2,0,14,-7,0,-1,0
1511884977548328,0,-3,-5,-7,-1,-2,0,2
1511884977562700,3,2,-3,1,-4,-1,4,-1
1511884977562700,-9,-2,-1,-5,3,-3,-1,0
1511884977571526,4,0,-7,5,1,-2,1,0
1511884977571526,0,-2,0,-4,1,1,-1,5
1511884977584560,-1,-1,2,2,-2,3,-2,-4
1511884977584560,2,2,0,5,-3,2,0,0
1511884977593585,1,0,4,-7,0,0,-4,0
1511884977593585,-5,2,2,3,2,0,0,-1
1511884977599603,-2,-1,-5,1,0,3,-4,-3
1511884977599603,-2,-1,-1,-5,1,-6,1,0
1511884977608624,-1,-1,0,5,-2,2,-2,-4
1511884977608624,1,0,1,4,-2,-2,-6,-6
1511884977622706,-5,4,-1,3,-1,-2,-1,-3
1511884977622706,-1,-2,1,-5,-3,0,0,-1
1511884977631686,-1,0,-1,-3,-1,-4,1,0
1511884977631686,1,0,-1,1,0,-1,-1,-1
1511884977644958,-3,1,0,-1,3,1,-3,0
1511884977644958,-2,0,-2,0,1,1,-2,-2
1511884977653895,-2,2,1,0,1,2,0,-2
1511884977653895,3,-1,-2,-7,-3,0,0,-2
1511884977660004,-1,-3,-4,14,-4,-3,0,0
1511884977660004,0,2,-3,-4,-1,4,-2,-2
1511884977668903,-2,1,2,-5,-1,-1,-1,1
1511884977668903,2,-1,-1,0,3,-2,2,-2
1511884977681933,-1,-3,-3,-1,-1,-1,-2,-4
1511884977681933,0,-2,1,2,-2,2,-3,-1
1511884977690958,0,0,-2,3,-3,-1,-3,3
1511884977690958,0,-3,-2,-1,-4,0,2,-2
1511884977705035,0,-1,5,-1,0,-3,1,3
1511884977705035,1,3,0,-4,0,4,-2,-2
1511884977714023,0,-1,0,5,3,-2,-1,1
1511884977714023,-1,3,-5,-5,-1,2,0,3
1511884977720075,-1,-3,-3,-3,-5,0,2,1
1511884977720075,0,0,-2,2,0,1,-1,-2
1511884977729061,0,-4,2,3,-2,-3,-2,-1
1511884977729061,-1,2,2,2,0,2,0,-3
1511884977742135,2,-3,1,1,0,-1,2,0
1511884977742135,-1,-1,2,2,5,-3,-1,1
1511884977751207,4,0,1,-6,0,1,-2,-3
1511884977751207,-6,-3,-1,2,-3,1,-1,0
1511884977764311,2,0,0,-5,0,1,0,-1
1511884977764311,-3,-1,-4,2,-5,0,0,0
1511884977773335,-1,-1,-4,2,3,3,1,-2
1511884977773335,6,-1,3,0,2,-2,2,2
1511884977779354,-3,1,-2,0,4,0,-2,-1
1511884977779354,3,-1,-2,-4,-2,1,2,-1
1511884977788379,-1,-2,1,-3,-5,-2,0,-1
1511884977788379,-4,0,-1,-2,-2,-1,-3,0
1511884977802600,-2,1,0,-2,-2,0,0,-3
1511884977802600,-2,-2,-5,-2,-2,0,1,-1
1511884977811438,-1,-4,0,2,2,0,3,-1
1511884977811438,0,0,1,1,-1,-2,-1,-4
1511884977824659,0,0,1,-4,-3,-1,-1,-2
1511884977824659,-2,0,1,-4,-2,-4,-8,2
1511884977833495,-1,-4,-1,5,-5,2,-1,-3
1511884977833495,-2,-1,1,-8,-2,1,-2,2
1511884977839692,-2,0,-1,-1,-1,-1,-1,-4
1511884977839692,0,0,-1,-3,-2,-1,1,2
1511884977848534,-2,-1,-4,3,0,0,-1,-2
1511884977848534,-5,-2,1,0,4,-2,-1,-4
1511884977862573,2,-2,-1,-1,0,1,-1,1
1511884977862573,0,-5,0,2,4,2,1,0
1511884977871657,0,3,-4,-10,1,0,-2,-3
1511884977871657,-1,-1,-3,8,-1,-1,4,3
1511884977884634,0,-1,-2,-10,-3,-4,-5,-1
1511884977884634,-1,-3,2,3,1,2,-1,-4
1511884977893656,-2,3,-1,-8,2,-2,-3,-1
1511884977893656,0,3,0,-1,2,4,-5,-4
1511884977899674,-2,-1,-1,5,1,0,-1,-3
1511884977899674,-2,2,-1,1,-1,0,-1,-1
1511884977908696,-1,-5,0,0,-4,-2,-1,0
1511884977908696,1,0,-3,-1,0,1,0,-2
1511884977921733,-2,3,-2,2,-3,5,-3,3
1511884977921733,-2,-2,-3,0,0,-4,5,1
1511884977930757,-1,-3,-1,0,1,-1,-2,1
1511884977930757,-4,-1,-2,1,-2,2,-3,0
1511884977944983,-2,0,-3,-1,1,2,13,0
1511884977944983,1,0,1,-8,-1,0,-1,-3
1511884977953815,-1,3,0,1,-3,2,-1,-2
1511884977953815,2,-3,2,5,0,-1,1,1
1511884977959834,2,0,1,-6,-4,-3,-1,3
1511884977959834,1,-1,1,2,-5,1,0,-1
1511884977968855,-3,-1,1,0,2,0,-1,0
1511884977968855,-1,2,1,1,-4,-2,1,-1
1511884977981997,0,1,2,1,-1,2,-2,-2
1511884977981997,-3,-1,-2,-1,1,-3,0,-2
1511884977990975,3,-3,-1,2,-2,-2,-2,2
1511884977990975,-1,-3,0,-1,-2,0,-2,1
1511884978005144,0,-2,-3,3,3,2,0,-1
1511884978005144,-2,-1,-1,-3,-3,-1,-1,1
1511884978014038,0,-2,-1,0,2,1,0,0
1511884978014038,1,-6,-1,1,-1,0,0,-1
1511884978020176,-3,1,-2,7,1,-2,-1,-3
1511884978020176,1,0,-1,-1,2,-1,-1,0
1511884978029078,-4,-2,0,3,-2,0,-1,-1
1511884978029078,2,1,0,-1,1,-2,3,-1
1511884978042239,-3,-4,2,-3,2,1,-3,-1
1511884978042239,-2,0,0,2,0,4,-4,-5
1511884978051141,-2,3,-3,5,-2,2,1,-2
1511884978051141,2,0,6,-2,-6,0,0,1
1511884978065174,0,0,0,3,-3,1,-2,0
1511884978065174,2,1,0,2,0,-4,-1,1
1511884978073403,0,2,3,-2,3,-2,4,0
1511884978073403,0,1,1,-2,-3,3,-1,-3
1511884978088444,0,-3,-1,5,0,-2,-3,-2
1511884978088444,-2,-5,-1,-1,-2,1,0,-3
1511884978090435,1,0,-2,-3,0,1,0,-3
1511884978090435,-3,1,-5,-2,-2,-3,0,-3
1511884978102563,-2,-3,-1,-10,-2,1,0,-1
1511884978102563,0,-2,2,12,3,1,-1,-1
1511884978111491,-1,0,-2,-1,-2,0,3,0
1511884978111491,-4,-2,-1,-1,-3,3,-1,0
1511884978124518,-2,0,1,-1,-1,-2,-5,-4
1511884978124518,0,-1,-3,-6,-6,-1,0,-2
1511884978133530,-1,2,0,3,-3,-2,-4,-1
1511884978133530,-5,-2,-5,-3,0,-2,0,-1
1511884978148564,0,0,0,1,-2,-2,0,-1
1511884978148564,1,-3,-1,-2,1,-2,0,0
1511884978150575,-3,-2,0,-4,-2,0,0,-2
1511884978150575,0,-1,-4,-1,1,2,-2,0
1511884978162713,5,-1,-1,-1,1,0,3,0
1511884978162713,-1,0,0,-2,0,-1,-5,2
1511884978171658,-5,-1,-2,-4,-1,-2,0,-1
1511884978171658,2,1,0,-1,3,-3,2,-4
1511884978184661,-3,-3,-1,0,-3,1,-1,2
1511884978184661,1,2,0,-2,-4,-2,2,-3
1511884978193715,3,-3,3,0,-1,-2,-5,1
1511884978193715,-3,2,-2,0,0,1,-2,-1
1511884978209000,-1,1,-5,2,-6,-2,2,-2
1511884978209000,1,-1,1,-8,-1,-2,1,3
1511884978209919,-3,-2,-1,1,2,-2,-1,0
1511884978209919,-1,-1,0,0,2,-2,-2,-3
1511884978222039,-2,-2,0,-3,0,-2,-1,1
1511884978222039,0,3,1,0,-3,-1,-4,2
1511884978230951,1,-5,-2,0,-1,0,-1,0
1511884978230951,-1,0,0,-7,-5,-5,1,3
1511884978245084,-1,-3,1,-5,3,0,0,-1
1511884978245084,0,-1,-1,9,-2,-1,-1,1
1511884978254177,0,0,-4,-7,-2,-1,-2,-1
1511884978254177,3,-3,3,1,1,3,-1,0
1511884978269072,0,0,-2,-2,-2,0,-2,1
1511884978269072,-4,-2,1,-3,-1,2,1,-1
1511884978270055,-2,1,-4,5,-1,4,-1,-3
1511884978270055,-2,0,1,-4,-2,-3,-1,0
1511884978282090,0,2,-3,1,0,2,-2,-5
1511884978282090,-1,-2,-7,2,0,4,-2,-5
1511884978291116,-4,2,6,-1,5,-1,2,-1
1511884978291116,0,-3,-5,1,3,-1,-2,4
1511884978305195,-2,-1,1,1,-2,-1,0,-1
1511884978305195,2,0,0,-1,1,0,-1,-1
1511884978313339,2,2,-3,-5,0,0,-3,-4
1511884978313339,-3,2,4,9,-2,1,-1,-4
1511884978328502,-4,-1,-4,-1,-3,-2,-1,-3
1511884978328502,-4,0,-1,0,0,0,0,1
1511884978330383,-2,1,-1,0,-3,-1,-2,-3
1511884978330383,1,-3,-2,-5,-4,-5,-2,-3
1511884978342538,0,3,1,3,0,0,-1,3
1511884978342538,2,-6,-1,-7,-4,-4,-1,1
1511884978351438,-1,0,-1,2,-5,0,3,0
1511884978351438,2,-1,-4,3,1,0,2,0
1511884978364473,-3,-3,3,-1,-1,-1,2,0
1511884978364473,-2,3,-1,-3,-6,2,-1,0
1511884978373581,2,1,0,3,-2,-2,-1,0
1511884978373581,-2,3,1,-7,-3,-1,0,-3
1511884978388746,0,-3,-11,1,2,1,-1,-2
1511884978388746,-5,0,5,-2,3,-1,0,-3
1511884978390626,0,-3,-2,2,-1,2,-1,2
1511884978390626,-1,3,1,0,1,2,-3,-2
1511884978402657,1,-1,4,1,-1,2,-2,-2
1511884978402657,0,-1,-3,3,-2,-1,-3,0
1511884978410691,2,-2,1,2,-1,2,-2,-2
1511884978410691,0,-1,-4,-5,3,1,0,1
1511884978433783,0,-4,0,4,-2,0,-2,3
1511884978433783,-3,-1,-3,-2,1,-2,1,-7
1511884978434744,2,1,4,2,0,3,-2,-2
1511884978434744,-3,2,-1,1,1,4,-3,2
1511884978448780,-1,2,0,-4,2,-2,-2,1
1511884978448780,-2,0,-2,-2,-1,2,-1,2
1511884978449791,-1,-3,0,0,2,1,2,-2
1511884978449791,1,-3,-1,2,2,1,-2,-3
1511884978461817,0,2,-1,0,-3,-1,-3,-1
1511884978461817,0,-2,-1,2,1,1,1,-3
1511884978470851,0,-2,0,-3,-3,1,-1,0
1511884978470851,1,0,0,-4,-2,2,1,-2
1511884978485109,0,2,-1,-11,-1,-5,-1,-1
1511884978485109,1,-2,1,2,1,-2,-1,1
1511884978494014,-3,2,0,-4,-3,-4,1,-1
1511884978494014,-3,1,-3,4,-2,-1,-1,-2
1511884978509053,-1,-7,0,-4,-1,-1,0,-3
1511884978509053,-1,4,1,-15,-2,1,-1,-3
1511884978510057,0,-5,1,18,3,1,-4,0
1511884978510057,1,3,0,7,-4,-1,-2,-2
1511884978522091,1,0,-3,-4,0,0,-2,-1
1511884978522091,6,1,-1,-3,-1,-2,3,3
1511884978531112,-2,-2,0,-9,-3,-3,2,1
1511884978531112,-1,-3,1,-2,-1,1,-1,-1
1511884978545220,1,-1,-2,8,2,0,1,-3
1511884978545220,-1,0,-1,2,0,-1,-6,-1
1511884978554195,-3,3,-2,2,2,-2,-2,-2
1511884978554195,2,-4,-2,-2,-2,-3,0,2
1511884978568335,0,1,4,1,-4,-2,2,-1
1511884978568335,-1,-4,-2,-2,-1,4,0,-1
1511884978570216,-1,0,-4,-2,0,-2,0,-2
1511884978570216,0,-3,-1,-3,-2,0,1,0
1511884978582251,-3,-3,2,3,0,-3,-3,-2
1511884978582251,-1,0,0,2,1,-3,-1,-3
1511884978591273,-2,-2,2,-2,-4,1,-2,0
1511884978591273,-6,1,0,-5,-2,0,0,-1
1511884978605310,-2,0,-5,2,-5,0,1,-3
1511884978605310,-1,-4,-4,-1,-2,1,-4,-2
1511884978613331,-2,0,2,-4,1,-2,0,1
1511884978613331,-2,-4,4,-4,-2,-2,0,-2
1511884978628371,1,-2,-2,-5,3,4,-1,0
1511884978628371,1,3,-5,5,-3,-2,1,2
1511884978630402,4,-2,-1,0,1,3,0,-1
1511884978630402,-3,2,-5,3,-1,-1,3,-1
1511884978642513,3,-3,3,-2,0,-3,0,0
1511884978642513,-1,-3,0,3,1,1,-2,-2
1511884978651524,1,-4,1,-3,-8,-4,2,0
1511884978651524,1,0,1,4,2,2,0,1
1511884978664606,-3,-1,-3,-8,-7,1,2,-1
1511884978664606,-4,1,-3,6,0,2,0,-4
1511884978673630,-1,1,-4,0,-3,-3,2,1
1511884978673630,1,-1,-4,0,-1,-1,-1,1
1511884978688711,-1,-3,0,5,3,2,1,-3
1511884978688711,-2,-1,2,-5,0,-1,-2,0
1511884978690676,-2,0,-5,-2,-1,0,0,1
1511884978690676,-1,1,1,2,1,2,-4,-2
1511884978702737,-2,2,-2,1,-4,-1,0,-1
1511884978702737,-3,-1,-1,0,-2,-2,2,-2
1511884978710772,1,-3,-4,1,2,1,1,-2
1511884978710772,1,0,-2,0,0,0,-1,0
1511884978724766,-2,1,-1,0,1,-3,-5,1
1511884978724766,-1,-2,4,0,-1,0,-1,1
1511884978733807,-2,1,-2,-4,0,-2,0,0
1511884978733807,2,1,-3,3,-1,-2,2,-1
1511884978748830,0,1,1,4,1,-1,1,3
1511884978748830,-4,0,-2,4,-1,0,1,2
1511884978749834,1,2,6,-1,-3,3,-6,-2
1511884978749834,-2,-1,4,0,3,-1,1,-2
1511884978761914,-5,-6,-5,0,5,3,-4,-2
1511884978761914,2,0,-2,3,-4,-3,-1,-1
1511884978770905,-1,-4,1,3,-4,-1,1,0
1511884978770905,-2,-1,-1,-5,1,1,-6,1
1511884978784973,0,2,-5,0,-3,-2,-3,-1
1511884978784973,0,1,-1,-3,-1,1,0,-3
1511884978793952,-3,-1,0,-1,-1,2,2,0
1511884978793952,-1,-4,-2,4,-3,-2,-1,-1
1511884978809014,0,2,-2,-2,2,-2,-2,-5
1511884978809014,0,-4,-1,-3,0,-2,-1,0
1511884978809992,1,2,-8,-3,-2,0,-3,-1
1511884978809992,-1,1,-1,0,0,2,2,-5
1511884978831051,-2,0,2,-3,-1,0,2,0
1511884978831051,0,-3,3,8,-1,0,-2,-1
1511884978833057,-2,-4,2,0,-1,-2,-1,-3
1511884978833057,-4,-3,-6,0,-1,0,-4,-3
1511884978845086,-1,-1,2,-1,1,1,2,1
1511884978845086,-1,3,-2,-2,1,0,1,-5
1511884978853389,0,0,4,2,1,-5,0,-3
1511884978853389,0,-3,-4,-1,1,2,0,-4
1511884978868492,-2,-1,0,-1,-2,-2,-3,0
1511884978868492,0,-3,0,-1,2,-1,0,2
1511884978870499,0,-1,-4,1,1,-1,-1,0
1511884978870499,-3,2,-1,-6,4,1,0,-2
1511884978882445,0,1,1,6,0,0,-2,-3
1511884978882445,1,-3,-1,-11,-3,-1,0,-1
1511884978891518,-3,-2,0,2,-1,1,-2,-2
1511884978891518,-1,-1,1,-6,0,-3,5,0
1511884978904735,-2,-1,1,1,0,1,1,-1
1511884978904735,-1,-1,-4,-3,-2,-1,-2,0
1511884978913576,-1,-4,-2,0,1,1,0,0
1511884978913576,0,1,10,3,-3,-5,-1,1
1511884978927787,-3,-3,0,1,3,-1,0,0
1511884978927787,-2,-3,-3,-1,2,2,1,2
1511884978934877,0,3,-2,-2,-3,0,1,-1
1511884978934877,2,-1,-3,4,-4,-2,-3,-2
1511884978941889,-2,-2,0,-1,0,0,1,-1
1511884978941889,0,2,-1,1,2,0,-4,-2
1511884978950828,1,0,-2,0,-1,-2,-1,-2
1511884978950828,-2,-3,0,2,-2,-5,0,4
1511884978964865,3,-1,0,-4,-1,-2,-1,0
1511884978964865,1,2,-1,8,0,-3,2,-4
1511884978974029,-2,-1,3,0,1,3,-2,2
1511884978974029,1,-2,-2,0,0,0,1,1
1511884978988108,1,-2,-2,2,-3,-1,-2,-2
1511884978988108,-2,-3,-1,-5,0,-1,0,-1
1511884978995084,0,1,-4,2,2,-3,-3,-3
1511884978995084,3,1,3,0,-2,3,-4,0
1511884979011305,-2,1,-2,1,-1,-1,1,0
1511884979011305,-4,-2,0,1,0,-3,2,3
1511884979012130,1,-2,-1,-3,2,-2,-3,-3
1511884979012130,-4,-3,-3,-2,-1,1,0,-1
1511884979025163,3,0,1,2,-2,2,1,0
1511884979025163,0,0,-5,-6,-2,-3,-2,-1
1511884979034188,-2,0,1,0,-2,-2,1,1
1511884979034188,0,0,-3,2,1,0,2,-1
1511884979048255,-2,-2,3,0,-5,3,2,0
1511884979048255,-2,-1,-2,4,-1,4,-5,-2
1511884979055300,-1,-1,2,-5,-2,1,-2,-1
1511884979055300,0,-3,-6,-1,0,-1,-3,-3
1511884979071432,-4,-1,-3,2,0,-2,-2,1
1511884979071432,1,-1,0,2,-4,4,0,-1
1511884979072378,-3,0,1,4,1,0,-4,0
1511884979072378,-1,-3,-5,-2,-4,0,-2,-1
1511884979084489,-5,-3,3,1,-2,-4,0,-3
1511884979084489,-2,1,2,-1,-3,2,-2,-1
1511884979093526,0,1,-4,13,0,0,1,2
1511884979093526,-5,2,4,-6,-2,0,3,-6
1511884979108667,1,1,0,3,0,1,-3,-1
1511884979108667,-2,-1,3,-5,0,2,1,-3
1511884979114821,-3,-4,-6,-1,0,-1,0,0
1511884979114821,-3,0,0,-3,-2,-2,-4,0
1511884979130946,0,0,-6,-6,-1,5,-1,3
1511884979130946,-1,2,1,5,1,1,0,-2
1511884979132780,2,-2,2,-3,-5,-1,1,-1
1511884979132780,1,-1,-3,0,1,-2,0,3
1511884979144908,-2,-1,-4,-9,-3,-5,-2,-1
1511884979144908,1,-1,-6,6,3,-2,-2,0
1511884979153835,-1,1,-1,-6,-1,3,-2,-4
1511884979153835,-3,-1,0,4,4,1,-1,-2
1511884979167876,-2,1,5,1,-1,-2,-2,-1
1511884979167876,1,0,-1,0,-2,-2,-2,-2
1511884979175180,-2,-1,2,3,-1,-2,-1,2
1511884979175180,0,-2,1,-1,-2,-3,-2,-1
1511884979191067,-1,-2,0,5,0,2,2,-4
1511884979191067,0,-1,1,-5,-2,-2,-1,-3
1511884979193069,2,-1,1,2,-1,1,-3,3
1511884979193069,-1,-1,-2,-6,-1,-1,-1,-1
1511884979205152,-1,-3,-3,7,-1,1,-3,2
1511884979205152,-1,-3,-1,-6,-2,-3,2,3
1511884979214125,-2,1,4,-3,-2,3,1,-3
1511884979214125,0,-2,-1,-1,2,4,0,2
1511884979228164,0,-1,-4,-3,1,-3,0,3
1511884979228164,-1,-1,0,4,3,1,0,0
1511884979234181,-1,-3,-2,-3,-1,-1,1,0
1511884979234181,1,3,-6,-2,-4,0,1,1
1511884979251420,0,-1,0,2,1,-2,1,-3
1511884979251420,-2,-1,-1,-7,-6,0,-4,-1
1511884979253228,-1,3,-4,1,-2,-3,5,3
1511884979253228,-1,-1,1,0,-2,-2,-2,1
1511884979264283,-2,0,0,1,1,1,0,-1
1511884979264283,0,-3,1,0,1,1,-1,1
1511884979273282,-3,1,1,-4,-3,1,-5,-2
1511884979273282,-1,-3,1,2,-2,-3,5,1
1511884979288388,0,-2,1,6,-2,-4,-2,-7
1511884979288388,-2,0,-6,-2,2,0,4,-1
1511884979294438,-1,-2,-1,0,2,0,-2,2
1511884979294438,-4,1,3,4,2,1,-2,-4
1511884979311507,1,-3,-4,2,-1,1,-1,-2
1511884979311507,-1,1,0,6,-4,0,3,-2
1511884979312385,-1,-3,1,-4,0,0,-2,-2
1511884979312385,1,2,-5,5,-1,0,-6,-2
1511884979324573,-3,0,0,-8,0,-1,1,1
1511884979324573,-1,-1,0,-2,-1,2,-2,-1
1511884979333441,-2,2,-4,2,3,-4,-2,0
1511884979333441,0,1,4,-1,0,0,1,0
1511884979347482,0,1,-2,-2,-2,3,-2,-1
1511884979347482,-1,-1,0,1,0,-3,-2,2
1511884979354750,1,-5,1,2,-3,-2,1,-2
1511884979354750,2,-2,-1,4,0,0,-1,-1
1511884979370689,-2,0,0,-1,-3,0,-2,-1
1511884979370689,-3,-1,1,3,0,-1,-1,-1
1511884979372692,-1,4,0,-4,1,0,6,-1
1511884979372692,-2,-1,2,-4,0,0,1,1
1511884979384727,-1,-2,-4,6,4,1,-1,-1
1511884979384727,-4,-3,-1,-5,-1,1,-6,-1
1511884979393750,0,-2,0,3,4,0,0,-3
1511884979393750,-3,1,-1,2,-1,-3,-5,-3
1511884979407824,-1,0,-2,-2,-4,-3,3,-2
1511884979407824,-1,0,-1,-1,0,0,-2,-1
1511884979415818,-2,-2,-3,-1,-4,0,-3,-4
1511884979415818,0,0,-1,-2,-4,-2,-1,2
1511884979430846,0,-3,3,-4,4,-1,-7,2
1511884979430846,1,1,-3,-7,-3,-7,1,0
1511884979432855,-1,-4,3,1,2,7,0,2
1511884979432855,4,0,-1,-2,-4,0,1,-2
1511884979445070,-2,-2,-2,-3,-5,-1,1,1
1511884979445070,1,3,0,8,3,-3,-3,-1
1511884979453909,0,-2,-5,-6,0,-2,0,3
1511884979453909,-1,-1,-1,2,4,3,-3,-2
1511884979476152,2,1,-3,-3,0,0,0,2
1511884979476152,-1,0,-2,0,-1,1,1,-2
1511884979477994,-3,-1,-1,1,0,-4,-3,-2
1511884979477994,-4,-2,-2,2,-4,0,-3,-3
1511884979491257,-3,-1,1,1,2,0,-2,1
1511884979491257,0,2,0,0,-2,0,1,0
1511884979492266,1,1,1,-2,-5,-3,0,3
1511884979492266,2,-5,0,-4,1,5,0,3
1511884979505244,3,1,3,2,-4,-3,-2,0
1511884979505244,-2,-4,5,-2,-2,-1,-2,1
1511884979513302,3,5,-3,-2,-3,3,-3,-3
1511884979513302,2,2,5,4,2,2,-2,-2
1511884979527244,0,-2,-3,-3,-2,1,-2,2
1511884979527244,-2,-2,-1,6,0,5,16,1
1511884979536264,-3,1,-2,1,-3,-1,0,-4
1511884979536264,-3,0,-2,-2,-1,-5,1,-4
1511884979558326,3,1,1,1,0,2,0,-1
1511884979558326,-5,-2,1,1,1,1,6,-6
1511884979560328,0,-4,-7,4,-3,3,-4,-5
1511884979560328,-4,1,-1,1,-4,0,2,-2
1511884979564339,-3,-1,1,-4,3,-1,3,-2
1511884979564339,1,-4,-5,-3,-1,-2,-4,3
1511884979573364,3,-3,2,-2,-2,0,3,-1
1511884979573364,2,-1,1,-5,1,2,-4,4
1511884979587403,-4,-1,-1,2,-3,-2,-1,-2
1511884979587403,0,-1,-4,-3,-4,0,-9,-1
1511884979596425,-2,4,2,1,2,-1,-1,0
1511884979596425,-1,0,1,1,0,-1,-4,0
1511884979611568,0,2,1,9,-2,1,-5,-4
1511884979611568,2,3,0,-3,-5,2,-5,0
1511884979613473,0,-1,-5,-4,1,-6,9,4
1511884979613473,0,-6,-7,2,-6,1,15,0
1511884979624671,-3,-3,-2,4,0,2,0,-3
1511884979624671,-7,-4,2,3,2,2,-5,-5
1511884979633523,-1,-1,-1,-2,1,-2,-2,-3
1511884979633523,-1,2,-4,5,0,-1,-5,-4
1511884979647571,-2,-3,-1,-3,-3,1,0,1
1511884979647571,2,-1,1,2,1,1,-2,-2
1511884979656597,-3,-3,1,2,-3,0,-8,-1
1511884979656597,-3,-2,-4,0,-1,-4,21,-3
1511884979670716,0,-1,0,-2,1,3,1,1
1511884979670716,1,1,5,0,4,0,-3,0
1511884979672627,-2,1,-5,2,0,0,1,-1
1511884979672627,0,-2,4,0,1,0,-5,-5
1511884979693809,1,1,-3,-1,-1,0,-2,-5
1511884979693809,-1,-6,-1,-3,-4,-2,1,-1
1511884979694691,-3,-1,2,-2,-2,-4,1,-3
1511884979694691,-2,1,0,3,-1,-1,-7,1
1511884979707721,0,-3,0,-7,-3,-3,0,-3
1511884979707721,-4,3,-5,8,0,1,2,-2
1511884979714738,0,-2,2,-1,-4,4,-5,-3
1511884979714738,-5,-6,-6,-1,0,-2,6,-5
1511884979730785,-5,2,4,2,2,1,-3,-7
1511884979730785,0,-2,-3,3,-5,-1,-4,-4
1511884979732787,-6,-2,7,-3,0,2,-4,-1
1511884979732787,0,2,0,-2,-2,0,-4,-4
1511884979744953,0,-3,-3,1,-5,3,-1,-2
1511884979744953,0,-2,-5,-2,0,-2,0,-3
1511884979753844,-2,2,-4,6,0,-2,9,-5
1511884979753844,-1,2,2,-3,4,2,-7,1
1511884979766924,-1,-3,-1,-5,1,-1,0,1
1511884979766924,-1,0,2,-5,-1,-6,0,5
1511884979775936,2,0,-1,-5,2,-1,-1,2
1511884979775936,3,-1,-3,-21,-1,-1,-2,7
1511884979790946,3,2,2,10,3,-1,2,3
1511884979790946,0,0,-6,-3,5,-3,-2,8
1511884979792954,-1,-1,0,-7,2,3,3,5
1511884979792954,3,-3,-1,-5,-6,-1,-1,6
1511884979804982,2,2,-1,-10,2,-4,-1,0
1511884979804982,5,1,3,1,-1,1,-5,-1
1511884979813131,1,-1,1,9,4,0,0,0
1511884979813131,-5,-1,-3,6,-1,-2,-4,-5
1511884979827351,-5,-6,-2,1,0,2,9,-1
1511884979827351,2,-1,-2,4,0,-2,-3,-3
1511884979836189,-3,2,-1,2,-3,6,-6,-6
1511884979836189,2,-1,-2,5,-3,-3,4,2
1511884979850332,-5,0,-2,3,3,0,-3,-4
1511884979850332,-3,1,0,-3,-1,2,2,-1
1511884979857244,-2,-3,1,-4,-2,0,-6,-2
1511884979857244,-1,-1,4,2,5,-1,-7,1
1511884979864288,-2,3,-2,0,-5,2,1,0
1511884979864288,-2,-2,2,1,3,-3,-1,-2
1511884979873287,3,-2,-1,-5,1,-2,-1,1
1511884979873287,-3,0,1,2,0,1,-1,-2
1511884979887437,1,-1,-3,2,-2,-1,-2,-1
1511884979887437,-1,1,-5,2,-2,4,-3,-2
1511884979896348,-2,-2,-2,2,-2,-4,-2,1
1511884979896348,-1,1,-1,4,-4,-1,-2,-1
1511884979910570,-3,3,3,0,2,3,2,-5
1511884979910570,-1,-1,2,-3,-2,2,6,-3
1511884979917676,0,-1,-3,-5,-4,0,-3,1
1511884979917676,-1,0,3,3,-1,2,-4,-5
1511884979924950,1,-1,-6,1,-2,0,0,2
1511884979924950,-6,2,2,-1,-3,0,0,-3
1511884979933873,-1,-3,0,4,2,-2,-2,-4
1511884979933873,-1,-5,-3,-2,0,4,0,-4
1511884979946935,1,-1,-3,-4,-1,-1,-6,7
1511884979946935,1,-1,-1,-5,-2,-3,0,2
1511884979955921,2,-1,-1,-1,2,-1,6,3
1511884979955921,-1,2,-2,-3,0,-3,0,3
1511884979970082,0,2,2,-1,-2,-1,1,3
1511884979970082,4,-4,1,6,5,3,1,2
1511884979977100,2,1,-2,-2,-6,-1,2,5
1511884979977100,2,1,-4,-3,-1,1,-1,1
1511884979994023,-2,-2,-5,-3,-1,0,-1,-5
1511884979994023,-1,-4,1,-1,4,-3,1,0
1511884979995024,5,2,-4,-1,-2,-2,-3,0
1511884979995024,-1,0,-4,2,7,0,1,-1
1511884980007055,-1,-1,2,-4,-1,1,-5,-3
1511884980007055,-3,-4,-1,1,-2,1,16,-3
1511884980016078,-3,-2,-2,-3,-1,-1,-5,1
1511884980016078,1,2,2,1,-4,0,-1,1
1511884980030118,1,-2,1,-4,-3,-4,3,1
1511884980030118,0,-1,-4,-1,-5,0,-6,-1
1511884980037137,1,-2,1,1,-1,1,0,-5
1511884980037137,0,1,1,-2,0,1,-2,1
1511884980053336,0,-3,0,2,0,4,2,3
1511884980053336,-1,-1,-1,2,-3,-4,-5,-1
1511884980055182,-3,-4,1,-4,1,-2,0,-2
1511884980055182,1,0,1,2,0,0,-3,-2
1511884980067216,0,-5,-1,4,1,2,0,-5
1511884980067216,-3,0,-1,-2,-1,0,-10,0
1511884980076238,-2,-2,1,3,-1,2,2,-1
1511884980076238,1,1,-5,2,2,0,2,-2
1511884980090275,-4,-1,-3,-2,0,-2,-4,0
1511884980090275,1,1,-2,-6,0,-2,-6,2
1511884980097296,0,1,-2,3,0,-4,-3,-2
1511884980097296,-3,1,-1,3,0,3,3,-2
1511884980113368,0,2,-1,1,-3,-1,1,1
1511884980113368,0,0,0,0,0,0,-1,-1
1511884980115364,-3,-1,-4,2,3,-1,-2,3
1511884980115364,-2,-1,0,-2,-3,-1,-3,-1
1511884980127376,0,-1,3,-1,-6,1,3,-3
1511884980127376,0,0,-1,-2,3,1,1,-5
1511884980136563,-2,0,-2,1,-2,1,0,1
1511884980136563,1,0,4,-6,-2,-3,-5,1
1511884980150439,-4,2,-5,9,1,2,-3,-1
1511884980150439,1,0,-2,-4,-1,-3,1,0
1511884980157457,-2,1,-1,2,0,2,-3,-4
1511884980157457,-1,-1,-7,0,0,-3,1,1
1511884980173525,-3,0,1,-2,0,-2,-2,-1
1511884980173525,1,-1,0,-1,1,-1,1,-2
1511884980175502,2,-3,-1,1,-1,5,-1,-1
1511884980175502,0,-3,-1,4,-1,-1,2,-2
1511884980187768,0,0,-1,-2,-1,-2,-3,0
1511884980187768,-5,-2,-3,-2,-3,2,-1,3
1511884980195964,-1,-1,1,3,0,-1,0,-1
1511884980195964,-5,-4,-5,0,-5,2,1,-3
1511884980210104,0,-1,-3,-3,4,-5,-3,-2
1511884980210104,-1,-1,0,0,-7,-1,1,0
1511884980217022,-2,1,0,0,-3,5,-3,-4
1511884980217022,-3,1,-1,1,-1,2,-1,-1
1511884980233107,2,-1,-3,-3,2,0,0,2
1511884980233107,-1,-2,4,1,2,-3,-4,-1
1511884980235070,-2,-1,0,-1,-3,0,5,-2
1511884980235070,4,-2,-5,1,1,-5,-1,2
1511884980247103,-3,0,0,1,0,-1,-2,-1
1511884980247103,-2,-2,-4,1,1,1,-4,-2
1511884980256122,2,-1,1,-2,-1,-4,2,4
1511884980256122,-2,-2,4,1,1,2,1,-4
1511884980270345,-3,-3,-1,-1,-3,-1,-4,-1
1511884980270345,-1,2,-1,-6,0,0,0,0
1511884980277179,2,2,-2,2,1,-4,-2,1
1511884980277179,0,-1,0,-4,-1,-1,-2,0
1511884980293325,-3,-1,-1,0,-2,-1,0,1
1511884980293325,2,0,1,0,1,-1,1,0
1511884980295227,-2,-4,-4,-9,1,-2,0,-2
1511884980295227,1,1,1,0,3,-2,1,-2
1511884980307413,3,-3,1,4,-1,2,2,0
1511884980307413,-3,-2,-3,2,0,4,-2,6
1511884980316435,-4,0,0,0,-1,0,-2,-1
1511884980316435,0,-4,2,-2,2,-1,0,2
1511884980330648,1,2,2,-2,0,2,-3,-2
1511884980330648,-3,3,-2,3,-1,4,-1,-6
1511884980337493,0,-2,0,2,1,-2,-4,-2
1511884980337493,1,1,0,2,-1,1,1,1
1511884980353710,-4,-3,-3,0,-1,-2,1,-1
1511884980353710,2,6,1,2,0,-2,-2,-7
1511884980354678,2,-1,-3,-1,-1,2,-3,-2
1511884980354678,-6,1,2,2,-2,0,-5,-1
1511884980367729,-2,1,1,4,1,-3,1,-6
1511884980367729,-1,-4,2,-4,-1,-2,-1,-2
1511884980375913,0,-1,3,1,-4,1,1,1
1511884980375913,0,0,0,7,1,2,-1,-4
1511884980390880,-1,-2,1,-5,5,-1,-5,-2
1511884980390880,-4,-1,1,-2,3,-1,1,1
1511884980396917,-3,1,-2,0,3,2,-3,-6
1511884980396917,-5,-6,2,1,-7,-1,-3,1
1511884980413920,1,1,0,1,0,-2,3,0
1511884980413920,1,-1,-2,-4,0,-3,3,2
1511884980414922,2,-1,-5,-7,-2,-3,2,0
1511884980414922,1,0,-2,-3,-4,-1,1,0
1511884980426995,3,0,-2,-1,-1,0,-1,2
1511884980426995,0,-2,-3,1,-5,2,-3,-1
1511884980436092,-1,-1,0,2,2,0,2,0
1511884980436092,0,1,-3,-3,3,0,-1,1
1511884980450214,0,-1,2,-3,-4,2,0,0
1511884980450214,0,-3,1,0,2,1,0,0
1511884980457131,2,2,-3,-3,-2,-5,0,6
1511884980457131,0,0,-1,-5,0,0,2,2
1511884980473167,-2,0,-5,-1,-2,0,-2,4
1511884980473167,3,1,2,2,-1,0,1,4
1511884980475167,-2,1,0,-5,-4,-1,-1,-6
1511884980475167,-1,-4,2,9,0,3,-2,-6
1511884980487240,-6,-4,0,2,4,3,-3,-6
1511884980487240,-4,-1,-1,1,-1,2,-2,-5
1511884980496226,-3,-4,1,5,-1,0,-2,-4
1511884980496226,-5,2,-4,2,-7,1,-4,-8
1511884980510496,-1,0,-1,2,1,1,-1,-4
1511884980510496,-2,-2,-2,0,-2,-3,-1,-1
1511884980517504,0,-3,-1,1,3,2,-1,0
1511884980517504,0,0,3,-6,0,0,-2,1
1511884980533458,1,-1,-1,1,0,-1,1,3
1511884980533458,-2,-1,-3,3,0,2,0,0
1511884980535446,-1,2,5,1,2,1,-1,-2
1511884980535446,0,2,-7,-2,1,-2,-2,2
1511884980547543,1,-1,-5,0,-2,2,-2,-2
1511884980547543,-1,3,-2,-1,1,-1,-2,-1
1511884980556574,0,-2,-1,-4,2,-2,-1,2
1511884980556574,0,-5,-1,-2,-2,-5,1,2
1511884980570720,3,-2,1,1,-1,-1,-3,-2
1511884980570720,0,-3,-3,-1,0,1,-3,0
1511884980577667,0,0,4,4,-4,-3,1,-1
1511884980577667,-1,-4,-5,1,0,2,-2,-4
1511884980593912,-3,2,1,2,0,-1,3,-1
1511884980593912,-1,-5,-1,1,3,1,1,-1
1511884980594846,-3,-2,-1,0,0,2,-2,-3
1511884980594846,-3,-1,-1,2,2,0,1,-4
1511884980606825,-3,2,1,-1,-2,-1,-2,-3
1511884980606825,-2,2,0,3,-2,2,0,2
1511884980615849,1,-2,0,1,-3,0,-2,-1
1511884980615849,1,-2,-3,2,-2,-2,0,3
1511884980629975,3,0,-2,-2,-1,0,-1,3
1511884980629975,0,-2,-2,-5,-1,-1,0,0
1511884980637033,-3,-1,0,0,-2,4,-1,0
1511884980637033,2,0,1,-3,1,-2,1,2
1511884980653034,-1,-1,0,-5,-1,0,0,-2
1511884980653034,2,1,2,3,-2,0,-1,-2
1511884980655037,0,-2,-2,-5,3,-1,-1,0
1511884980655037,-1,1,0,-4,0,-3,-1,2
1511884980667072,0,0,-1,-2,-4,-1,0,-2
1511884980667072,-2,-1,0,-4,-1,-1,-3,1
1511884980676094,-1,2,-1,-2,-3,1,2,0
1511884980676094,-1,-3,1,3,-1,-2,-2,-2
1511884980690131,-2,-3,-4,2,2,2,-1,0
1511884980690131,-1,3,-1,-2,-2,-3,-1,-3
1511884980697250,-2,-2,1,8,-1,-3,1,1
1511884980697250,-1,0,1,-5,0,1,2,-1
1511884980713194,-1,-1,1,0,1,1,-3,1
1511884980713194,0,-7,-3,5,0,-2,1,1
1511884980715197,2,-2,-1,-4,-4,2,-1,-3
1511884980715197,-1,-1,-3,2,2,2,-3,-2
1511884980727422,-2,-1,-4,1,-4,-4,-1,-1
1511884980727422,1,1,1,-4,-2,-1,3,-3
1511884980736252,-2,-3,-3,0,-4,-2,-5,0
1511884980736252,-2,-3,3,-1,-4,-1,1,-3
1511884980750435,-1,1,0,-1,0,-2,1,-2
1511884980750435,-3,-1,0,0,-1,-1,-2,-2
1511884980757646,4,1,-1,1,0,-2,0,-1
1511884980757646,-2,-1,-2,-5,-1,1,-3,1
1511884980772711,-4,3,1,0,-4,0,1,-1
1511884980772711,-1,-1,-1,1,-1,1,1,-3
1511884980779710,-2,2,-1,0,0,-2,-1,2
1511884980779710,2,0,-4,2,-1,-4,-1,-3
1511884980787632,2,0,-1,2,-3,0,-1,1
1511884980787632,-3,0,-5,3,-1,2,-1,0
1511884980796585,-2,1,-1,-1,-2,1,-1,-2
1511884980796585,1,0,1,-1,1,0,1,0
1511884980810718,-1,2,-1,-2,1,-5,2,-2
1511884980810718,-2,1,-3,0,0,1,-2,-1
1511884980816641,-1,-1,0,10,6,2,-2,0
1511884980816641,-2,-1,3,-1,-1,-3,2,0
1511884980832725,-2,1,0,4,2,2,0,0
1511884980832725,-4,-2,-6,-14,-1,0,-1,2
1511884980839741,1,-3,4,5,1,-3,-1,-4
1511884980839741,-1,0,-3,2,-3,0,0,-2
1511884980847759,0,-3,-1,-3,1,-1,1,-4
1511884980847759,-2,-1,1,4,1,-4,1,2
1511884980855741,-3,-3,-10,-7,-4,0,-3,2
1511884980855741,4,1,3,-1,-1,2,0,0
1511884980870903,1,-1,-1,-1,-4,2,0,1
1511884980870903,2,2,2,1,-3,4,1,-1
1511884980877039,-1,-2,-4,1,0,2,3,0
1511884980877039,-3,5,-1,7,0,2,-2,0
1511884980893085,-1,-4,2,-6,-2,-1,-1,-1
1511884980893085,1,1,-4,1,-1,-2,-1,-2
1511884980900073,-2,4,-1,2,1,-2,2,-1
1511884980900073,-4,-4,-6,0,1,1,-1,-2
1511884980916024,-1,1,1,0,-2,0,0,1
1511884980916024,1,-1,2,1,-2,0,-2,-3
1511884980918027,2,1,0,-5,0,-1,0,-7
1511884980918027,1,0,1,-1,3,-1,1,0
1511884980930077,0,-2,-4,7,-1,3,-1,-3
1511884980930077,0,-1,4,-4,-1,-4,-1,-2
1511884980937194,1,0,-4,1,-1,-3,0,0
1511884980937194,-1,-3,3,-3,1,1,-3,-2
1511884980953231,0,-1,-3,-1,-2,-3,-2,-1
1511884980953231,-5,-1,-2,2,3,4,1,-1
1511884980960138,-1,-4,1,1,-1,2,-1,-1
1511884980960138,-3,-1,-4,-3,-2,-1,-4,-1
1511884980976290,-1,0,-1,9,0,-1,-3,-1
1511884980976290,0,-1,1,3,-1,2,-1,1
1511884980977277,-1,-1,0,-1,-3,-1,0,-1
1511884980977277,-2,-3,-5,-2,0,0,1,0
1511884980990252,-2,-6,-1,-6,2,1,-2,-2
1511884980990252,2,2,0,0,4,1,1,-2
1511884980997240,0,0,-1,-2,3,-1,-1,0
1511884980997240,1,-2,2,0,0,1,-2,-2
1511884981013280,-2,-2,2,-6,2,-1,0,1
1511884981013280,-1,0,-3,2,-3,0,-1,-1
1511884981019299,-2,-2,3,-3,-2,-1,0,0
1511884981019299,2,-1,-3,3,-1,-1,-1,0
1511884981036344,-4,3,-2,0,-4,0,1,-2
1511884981036344,1,0,-1,-1,2,1,0,-2
1511884981037395,1,1,0,-3,-4,1,-4,-3
1511884981037395,0,3,-1,12,2,0,-3,-2
1511884981050625,1,-2,-1,0,-4,3,0,1
1511884981050625,0,1,-2,-1,-2,-4,-2,-4
1511884981056825,-3,-2,1,2,0,3,1,0
1511884981056825,-1,0,-1,-5,-3,2,0,1
1511884981072989,0,0,-1,2,4,0,-3,-3
1511884981072989,-2,-3,-1,4,-3,-1,1,1
1511884981079884,2,-1,-2,-3,1,5,2,-2
1511884981079884,-3,1,1,0,-2,-2,2,-4
1511884981095931,-2,-1,1,-1,2,0,-3,1
1511884981095931,-1,-1,1,-1,-1,-2,-2,0
1511884981097937,-4,3,-7,0,2,-1,-4,-2
1511884981097937,-5,-2,2,-2,-4,0,-2,-2
1511884981110006,-1,-1,2,-1,0,-3,1,-2
1511884981110006,1,3,-1,-2,1,1,-5,0
1511884981116985,0,0,-2,0,-2,-3,1,0
1511884981116985,3,0,-4,-5,-1,1,-1,0
1511884981133029,2,-1,-2,4,-1,0,-2,0
1511884981133029,-3,0,-3,-2,-1,-2,-3,1
1511884981140043,1,-3,-5,-4,0,-3,1,-1
1511884981140043,1,2,-4,-4,-1,-1,2,1
1511884981156129,1,-1,-3,2,-1,1,0,2
1511884981156129,-2,-4,1,2,1,1,-3,1
1511884981158118,1,0,2,-1,-5,4,-2,-1
1511884981158118,-4,-2,1,-5,1,0,1,-2
1511884981170126,0,0,1,1,-1,-4,-1,0
1511884981170126,0,-2,1,4,5,1,0,-2
1511884981177142,-2,-3,0,-2,-2,-7,0,-2
1511884981177142,-4,-1,2,3,2,-4,2,3
1511884981193378,0,-1,-3,-8,-1,0,1,0
1511884981193378,3,-3,1,2,-2,2,2,-2
1511884981199203,-1,-1,2,4,3,0,-1,0
1511884981199203,3,-2,1,-4,-2,2,-4,-3
1511884981216249,-3,2,-3,8,0,0,-1,-2
1511884981216249,-2,-2,-3,-4,-2,2,-2,2
1511884981217253,-3,1,-2,-3,-1,0,0,0
1511884981217253,0,0,-6,0,0,-3,-1,-1
1511884981230301,0,-5,2,-9,-1,1,2,0
1511884981230301,-3,-1,-2,5,-4,-2,-1,0
1511884981237305,0,-2,3,3,-4,3,2,-2
1511884981237305,-2,0,-1,-1,-1,-4,-3,4
1511884981253348,-2,1,-4,1,1,1,1,-2
1511884981253348,-1,0,0,-5,-2,-2,0,-2
1511884981259538,2,3,-6,2,-3,-6,-1,2
1511884981259538,-3,-3,4,6,0,0,1,-3
1511884981276590,0,-1,2,1,2,1,-1,-3
1511884981276590,-2,2,-4,2,-1,-1,3,-2
1511884981277442,1,-1,0,2,-1,-4,-5,-1
1511884981277442,0,0,-5,-4,-4,0,-5,-4
1511884981290443,3,3,6,5,-1,-2,-3,-1
1511884981290443,-2,-3,-4,-3,2,0,-1,-1
1511884981297465,-2,-2,1,1,-1,4,-1,0
1511884981297465,-1,-2,-2,4,0,-2,3,-2
1511884981312502,1,-1,0,-6,-1,0,0,1
1511884981312502,2,-2,3,4,-1,1,-4,-2
1511884981319703,-4,-1,1,0,1,0,-1,-1
1511884981319703,-1,-1,-1,-1,-4,2,1,0
1511884981335566,-2,1,-3,-1,-1,1,-2,-1
1511884981335566,1,3,-4,5,1,3,0,-2
1511884981337568,2,3,-3,1,5,3,0,0
1511884981337568,0,0,1,2,0,-3,0,-1
1511884981350737,-2,-4,0,3,0,-2,-1,0
1511884981350737,-2,-1,0,-3,-1,-4,-3,0
1511884981356854,-3,-1,0,-2,-2,1,1,0
1511884981356854,0,1,1,4,3,2,1,-3
1511884981372983,-3,-1,2,4,1,-2,1,-3
1511884981372983,-2,-2,-2,-5,-1,-1,0,1
1511884981379883,-1,0,3,3,-2,-1,-1,-3
1511884981379883,-1,-3,-3,-5,2,2,-2,2
1511884981395920,0,-2,-3,0,-5,2,-2,-1
1511884981395920,1,1,3,-5,-2,2,-1,-3
1511884981397931,-1,0,-2,5,3,0,2,1
1511884981397931,-1,0,-3,-5,-2,0,-1,-3
1511884981410092,0,2,-4,-2,0,-1,1,-1
1511884981410092,-1,1,2,-2,-5,-4,0,-4
1511884981419028,-3,-3,1,-2,-3,3,-5,-3
1511884981419028,2,0,-1,5,0,-1,-3,2
1511884981433132,-3,1,4,0,-3,3,3,0
1511884981433132,-3,-5,2,5,3,0,-3,-2
1511884981440038,0,-1,-2,16,0,-3,-2,-2
1511884981440038,1,3,2,-4,0,3,-1,-1
1511884981456124,-4,1,-7,1,0,-3,-1,1
1511884981456124,0,0,-2,-2,2,-1,4,0
1511884981458091,-2,-3,0,-12,-5,-1,2,2
1511884981458091,0,-3,-6,2,-1,-1,-2,-2
1511884981470117,-1,-3,-3,3,-1,3,-2,-3
1511884981470117,0,2,-6,-12,-4,-1,0,-1
1511884981479142,1,-4,-4,-3,2,0,0,-1
1511884981479142,1,-1,2,6,-3,0,-2,2
1511884981493303,-2,-1,-4,-7,5,0,-2,-2
1511884981493303,-1,1,5,7,-3,0,-2,0
1511884981499195,0,-4,-2,-2,1,0,-3,-1
1511884981499195,-2,-1,-2,-6,-4,1,0,-2
1511884981516357,2,-2,-1,3,-2,2,0,-1
1511884981516357,0,-1,-3,-1,-1,-1,-1,2
1511884981517359,-1,1,0,-3,-1,0,0,-7
1511884981517359,-3,-3,3,12,1,-3,-1,0
1511884981529564,5,5,0,-6,-2,-3,1,-1
1511884981529564,-5,-3,-4,5,-1,2,-3,1
1511884981538415,-7,0,0,-4,2,-1,-5,3
1511884981538415,0,0,-1,6,-4,0,2,-3
1511884981552486,1,-1,-2,-4,0,2,0,-1
1511884981552486,1,-4,-2,3,1,0,0,-1
1511884981559570,-2,-2,1,0,-2,-2,-2,0
1511884981559570,-2,0,2,1,2,3,-3,-4
1511884981575544,-7,-2,0,4,-1,-3,-4,0
1511884981575544,1,-1,-3,-3,1,1,0,0
1511884981577549,1,-1,-2,-3,-2,-1,1,-2
1511884981577549,-1,0,-2,-3,-1,-2,-2,-2
1511884981589609,0,-2,1,1,-2,-2,0,-2
1511884981589609,0,1,-3,-4,0,-1,-1,0
1511884981598611,1,0,-1,1,-2,-2,1,-1
1511884981598611,1,3,0,-6,-1,-1,4,2
1511884981612655,-2,-1,1,2,2,-1,-2,0
1511884981612655,-1,-3,0,0,0,1,1,0
1511884981619688,-2,4,2,0,-1,-1,2,-2
1511884981619688,-3,-3,-1,-5,0,-1,-1,-1
1511884981643850,1,1,0,2,1,-3,2,1
1511884981643850,0,2,1,3,-3,-1,-4,0
1511884981644851,-2,1,0,0,-4,2,0,1
1511884981644851,0,-2,0,10,-1,-2,-2,2
1511884981658934,-4,-2,1,-2,-1,1,-2,1
1511884981658934,0,-1,-1,0,1,3,1,-4
1511884981659842,-1,-1,-2,-1,-2,0,-1,-4
1511884981659842,3,0,1,-3,-6,1,0,-1
1511884981672965,-2,1,0,-1,3,-2,-2,0
1511884981672965,-4,1,4,-2,0,-1,3,-1
1511884981679861,-2,2,-2,4,-1,1,-2,0
1511884981679861,0,-1,-4,4,4,-3,2,1
1511884981695903,1,-1,-3,-3,2,-1,2,-3
1511884981695903,-3,1,1,-2,1,0,-3,0
1511884981697910,-1,-1,0,2,-2,0,-1,1
1511884981697910,0,0,-2,0,-1,-1,-2,-3
1511884981710127,-2,-3,2,2,0,-1,0,2
1511884981710127,3,0,0,2,-1,-2,4,2
1511884981719135,-1,1,-2,-2,0,1,-1,-2
1511884981719135,-7,1,0,-1,2,1,-4,-4
1511884981733003,-4,0,-6,-1,-4,0,-4,-5
1511884981733003,1,-2,0,-1,-1,-2,-4,-5
1511884981740020,0,-7,0,2,5,2,2,-3
1511884981740020,-1,2,-3,1,-1,-1,1,0
1511884981755064,-1,-1,-2,-2,-1,4,0,-1
1511884981755064,-3,-4,0,-3,-1,3,-2,-4
1511884981762097,2,0,1,3,4,-2,0,1
1511884981762097,-2,-1,-1,-3,9,0,-2,0
1511884981770123,0,-1,-3,5,-2,2,-1,-3
1511884981770123,0,2,-1,9,-2,1,-1,-2
1511884981779124,2,-5,-1,-7,-4,-6,-4,0
1511884981779124,0,3,0,-6,-2,6,3,-3
1511884981793202,-2,1,3,4,-1,0,0,-1
1511884981793202,-2,-2,1,1,-7,2,0,-4
1511884981800210,-5,-2,-3,2,-1,-3,-4,-5
1511884981800210,0,-1,1,-3,-5,-2,0,2
1511884981815265,-1,-1,2,0,0,1,-3,-1
1511884981815265,1,0,-4,-2,1,0,-2,-2
1511884981822286,-1,3,-4,1,-4,1,-3,-2
1511884981822286,-3,-5,-1,-1,-4,0,-3,-6
1511884981838329,-2,-2,-3,4,-1,-2,0,-1
1511884981838329,-2,-4,-1,3,-5,0,-2,-1
1511884981840292,-1,-4,-3,-5,1,-1,4,-2
1511884981840292,-2,-1,-2,4,-1,1,-3,0
1511884981853345,2,-2,0,-9,-4,-1,-1,4
1511884981853345,-2,0,-3,-3,0,-6,1,-1
1511884981859383,-3,4,0,1,-1,0,2,-2
1511884981859383,1,-2,0,-2,-2,-2,-3,2
1511884981875584,0,-3,-3,1,1,-1,1,-2
1511884981875584,-1,1,-1,0,0,0,-2,1
1511884981882400,2,0,1,-4,-4,-1,-3,5
1511884981882400,2,0,2,0,-2,-2,0,0
1511884981898649,-2,2,1,3,1,1,0,-5
1511884981898649,2,-4,-4,1,0,0,-1,2
1511884981900539,1,-2,3,-2,2,3,1,-2
1511884981900539,1,-3,0,3,-3,-1,-2,0
1511884981912600,1,0,-4,-3,0,-2,-3,1
1511884981912600,-2,0,1,0,1,-2,2,2
1511884981919592,-2,-1,0,2,-1,-1,1,1
1511884981919592,0,0,-3,-8,-4,-1,0,4
1511884981935724,2,-4,-1,-4,-5,-5,1,-2
1511884981935724,-1,-4,-1,0,-1,-3,-1,-1
1511884981942680,-2,-1,-4,3,0,0,-1,0
1511884981942680,-4,-1,1,-4,-1,-2,2,-2
1511884981958765,-2,-3,2,2,1,1,-3,0
1511884981958765,-3,-2,-1,2,0,-3,-3,-5
1511884981959696,-3,-1,0,-2,2,-2,-2,-4
1511884981959696,-3,-1,-3,1,4,1,0,-7
1511884981972735,-5,2,1,0,-3,0,-2,-4
1511884981972735,3,-1,0,-3,0,-2,2,-1
1511884981979753,2,2,-3,3,-2,2,-3,-1
1511884981979753,-2,3,0,0,-3,-5,0,0
1511884981994926,-1,-6,-3,-7,0,0,4,2
1511884981994926,-1,1,3,9,-1,-3,-2,1
1511884982001945,2,-1,-2,-5,-1,-1,-1,0
1511884982001945,-3,-2,0,0,0,2,-1,0
1511884982018112,0,-1,-5,-6,-6,-1,-3,0
1511884982018112,-1,-2,0,-2,1,3,-2,-2
1511884982020114,0,2,1,3,2,-1,-1,-1
1511884982020114,-1,0,-4,-4,0,0,-1,3
1511884982033174,4,2,0,2,2,-2,3,0
1511884982033174,0,1,-2,-6,-2,-1,0,2
1511884982039276,3,-1,-1,0,0,-1,-1,2
1511884982039276,3,-2,0,1,-3,1,-1,0
1511884982055335,-2,1,4,3,1,-2,-1,-2
1511884982055335,1,1,-2,-1,2,6,-3,-1
1511884982062226,-1,-2,4,3,-5,-1,-1,-2
1511884982062226,-5,0,-5,0,-4,-2,1,-2
1511884982078566,-1,-5,0,1,-3,1,0,1
1511884982078566,0,2,-1,1,-1,2,2,1
1511884982080501,-2,0,-5,-1,0,-3,-2,2
1511884982080501,-2,-2,5,2,0,1,-1,-3
1511884982092544,3,3,-4,5,-2,0,0,3
1511884982092544,-4,3,1,1,-3,2,0,0
1511884982101617,1,-1,-5,0,2,2,-3,1
1511884982101617,2,1,1,1,5,-1,-4,-1
1511884982115511,-3,0,-4,0,2,0,-1,-1
1511884982115511,0,-2,4,0,1,1,-1,-3
1511884982122650,-1,0,-6,-1,-1,-2,0,-4
1511884982122650,0,-2,-4,-3,0,0,2,2
1511884982138878,-2,2,1,3,0,-2,0,1
1511884982138878,-1,1,-5,5,-2,-6,-1,0
1511884982139785,-1,-1,0,-5,-3,6,1,-1
1511884982139785,2,0,-1,0,-1,-1,-1,5
1511884982151811,0,0,2,-2,-1,1,0,-3
1511884982151811,1,-1,-3,-6,2,-2,-2,1
1511884982160793,0,-1,-1,0,-2,0,2,1
1511884982160793,-4,-3,1,4,1,-2,0,-4
1511884982175804,0,0,4,-3,0,1,-2,-2
1511884982175804,1,-3,0,1,1,2,0,-1
1511884982181813,-2,1,-3,0,-2,-3,-2,1
1511884982181813,0,0,-1,-4,-1,1,1,-3
1511884982199024,1,0,1,2,-1,1,0,0
1511884982199024,1,-1,0,-6,-5,-1,0,5
1511884982199989,1,0,-1,-1,-2,-2,1,4
1511884982199989,0,-1,0,0,-3,0,1,4
1511884982212152,-3,-3,-5,-1,-1,4,-4,-5
1511884982212152,-7,-1,-3,6,-1,1,-3,-12
1511884982221047,-10,-1,-5,4,-3,1,-4,-10
1511884982221047,-3,-2,0,1,-1,-1,-4,-8
1511884982235083,1,-1,8,-1,-3,-2,-4,1
1511884982235083,-2,0,-3,1,1,1,4,-1
1511884982242102,0,0,0,-5,-1,0,-1,0
1511884982242102,1,2,0,-3,-2,1,-2,1
1511884982258339,-3,0,-2,1,3,-1,-1,-2
1511884982258339,0,1,-1,0,-3,-6,-1,2
1511884982260147,-1,-1,2,-3,-1,0,-1,2
1511884982260147,1,-1,2,0,2,-1,-1,-1
1511884982272182,0,-1,-6,-1,-5,-1,-1,3
1511884982272182,-1,-1,0,-1,4,1,-1,2
1511884982281203,1,-2,-6,-1,1,-2,0,-1
1511884982281203,-2,-2,-2,-2,-3,-4,-1,-3
1511884982295381,-2,1,-3,-2,1,-2,2,-1
1511884982295381,0,-1,2,0,-3,0,2,5
1511884982302584,2,-4,2,0,-1,0,-2,0
1511884982302584,0,-2,-6,-9,-1,-1,1,1
1511884982318462,-1,-1,1,3,-3,-1,-2,0
1511884982318462,-4,-1,-5,2,1,-4,-2,-2
1511884982320451,-2,-2,-1,2,0,-3,0,-5
1511884982320451,-3,2,-3,0,-1,2,-2,-4
1511884982332480,-4,1,0,3,0,2,-2,-4
1511884982332480,1,-2,3,-1,-4,0,-6,-2
1511884982341505,1,-2,-1,-2,-3,1,-2,0
1511884982341505,-1,0,2,2,-2,0,2,2
1511884982355542,3,-3,-2,1,1,-1,-3,-1
1511884982355542,-2,-3,1,1,1,-4,-1,-1
1511884982362559,1,0,6,-2,-3,-3,-1,2
1511884982362559,-2,0,-11,2,0,-1,1,-1
1511884982378797,0,3,1,-1,2,-1,1,-2
1511884982378797,0,-2,-2,-1,-2,3,0,3
1511884982379769,1,-2,-2,0,-2,2,-1,1
1511884982379769,0,0,4,2,-3,-3,3,0
1511884982392640,1,-3,-2,0,0,0,-2,1
1511884982392640,-2,0,-1,0,-1,1,0,-2
1511884982401667,-1,2,0,2,-2,-1,-3,-5
1511884982401667,-3,-2,3,-1,0,0,-4,-1
1511884982415701,2,-2,-2,0,-2,-2,2,0
1511884982415701,0,-1,0,0,0,-1,-2,0
1511884982422843,0,-2,0,2,-1,2,0,-1
1511884982422843,4,1,1,0,0,1,-6,2
1511884982438973,-2,2,-5,1,0,-1,0,0
1511884982438973,-2,0,2,1,1,-3,-1,0
1511884982439887,-1,1,-1,-1,2,-3,2,-1
1511884982439887,0,-2,-7,2,-1,-1,-4,-1
1511884982451923,-2,-1,-1,3,1,1,-3,-4
1511884982451923,2,-2,-5,0,-2,2,2,-6
1511884982460987,-4,-3,-2,0,2,-2,-1,1
1511884982460987,1,-3,-3,2,-4,3,-1,0
1511884982475062,0,-1,-6,-2,2,5,2,-1
1511884982475062,-1,-1,2,-4,-2,-3,-3,2
1511884982482002,-2,-2,0,0,-1,-1,-1,0
1511884982482002,-1,0,-4,-2,-2,1,-1,-3
1511884982498044,-2,1,1,-3,-1,2,-1,-4
1511884982498044,3,1,-3,-2,-4,0,2,-2
1511884982500051,-3,1,2,-1,2,2,-3,0
1511884982500051,2,0,-1,1,-2,-3,3,1
1511884982512125,-4,-4,2,3,0,-2,1,-2
1511884982512125,-3,0,0,2,-4,-1,-1,-2
1511884982521107,-1,1,-2,-3,-2,-4,0,-2
1511884982521107,-3,-1,1,2,1,-1,-1,-2
1511884982535184,1,-1,2,-1,-3,-1,-3,0
1511884982535184,0,-1,-5,-1,0,-2,0,-1
1511884982542206,3,0,2,-2,1,-2,2,-1
1511884982542206,-2,-3,-1,-3,0,-3,-2,0
1511884982558245,-4,3,5,2,-4,-2,0,-1
1511884982558245,-2,1,4,-2,1,0,-1,2
1511884982560216,0,-4,-11,0,-4,3,-1,-3
1511884982560216,0,-1,5,1,3,2,1,-4
1511884982572289,-2,-2,-5,6,1,-2,1,0
1511884982572289,0,1,0,0,2,0,-3,0
1511884982581263,1,2,-1,4,1,4,0,-2
1511884982581263,-2,2,-4,1,-1,-2,2,-2
1511884982595498,-2,0,-2,-4,2,-1,-1,0
1511884982595498,-1,0,2,7,0,3,-2,-2
1511884982602452,-2,-3,1,0,-5,3,-2,-1
1511884982602452,-2,-1,3,0,3,2,-2,-2
1511884982618683,0,1,-1,-1,1,-2,1,0
1511884982618683,0,1,-1,1,-5,-3,0,-4
1511884982620638,1,-1,1,-3,1,-5,-2,-1
1511884982620638,-1,1,-2,2,-4,-1,-2,-3
1511884982632561,1,-1,-2,-4,-2,-3,-1,-2
1511884982632561,-2,0,-4,-3,1,-2,1,2
1511884982641583,1,0,-2,-2,-3,-2,2,0
1511884982641583,0,-3,1,1,2,0,-4,-1
1511884982655783,-2,3,-1,1,0,5,-2,-1
1511884982655783,-2,1,-4,0,2,2,0,-1
1511884982661811,-3,0,2,4,3,0,-1,0
1511884982661811,-2,0,-4,-2,-2,0,-5,-1
1511884982677853,2,-4,-3,0,-2,0,0,1
1511884982677853,3,-1,-2,-2,-4,0,0,-3
1511884982684933,0,3,1,-3,2,1,-1,-1
1511884982684933,-3,0,1,0,-2,-2,0,1
1511884982691932,2,-2,-1,0,-2,-4,-1,0
1511884982691932,2,2,-2,0,-2,-1,-2,0
1511884982700892,0,-1,4,1,0,1,-1,-2
1511884982700892,-5,0,-4,1,3,1,0,0
1511884982715007,-3,1,0,0,1,-1,0,-2
1511884982715007,-1,-1,1,8,0,-1,-2,-3
1511884982722012,-3,4,-1,-3,-2,-3,-1,-2
1511884982722012,0,-2,6,3,1,2,0,-2
1511884982738370,-2,-3,1,0,0,0,-3,-4
1511884982738370,-2,4,-2,-4,1,2,1,0
1511884982745212,-2,-1,1,2,-3,-3,3,1
1511884982745212,0,-3,-2,3,-1,-2,0,-2
1511884982752368,1,-2,-5,6,-1,-1,-3,0
1511884982752368,2,-1,6,0,1,4,0,3
1511884982761229,0,-3,-11,-6,-3,-4,2,0
1511884982761229,-1,2,1,5,-1,-1,0,-2
1511884982775452,-3,2,0,3,1,0,0,1
1511884982775452,-3,-3,0,2,1,-1,-3,1
1511884982782382,-2,-1,-4,-2,0,4,-3,-2
1511884982782382,3,-4,-3,0,-2,2,0,-2
1511884982798357,0,0,2,-1,2,1,2,-1
1511884982798357,-3,1,1,2,-2,0,-4,-3
1511884982804560,-4,0,1,1,-2,-1,-3,-2
1511884982804560,0,-1,-2,-2,-3,0,-2,-2
1511884982821424,1,-2,-3,-3,-4,1,-1,-1
1511884982821424,1,-4,-5,0,0,0,0,-4
1511884982822424,0,0,0,2,2,1,0,0
1511884982822424,-2,1,-3,-5,4,-3,-1,-1
1511884982835461,-1,-2,-1,7,0,-1,-3,-2
1511884982835461,-2,-2,-6,-5,0,-1,-1,0
1511884982842661,-2,-1,4,4,1,5,-2,-2
1511884982842661,0,1,1,1,-1,0,0,-1
1511884982857520,-1,-3,-6,-4,1,-2,1,-3
1511884982857520,-1,-1,4,-7,0,-4,-1,0
1511884982864539,-2,3,0,9,3,1,0,-3
1511884982864539,-1,-1,0,-10,-2,3,-1,-1
1511884982880581,-2,1,2,-3,-3,3,-2,0
1511884982880581,-4,-3,-1,4,-1,4,0,-3
1511884982882583,-2,-4,-3,0,2,0,-2,-1
1511884982882583,0,2,1,-2,-4,-2,-1,-1
1511884982895642,-2,1,-6,-1,-3,0,1,3
1511884982895642,-2,0,3,-2,0,2,-1,-4
1511884982902675,0,-1,-2,-1,-5,-2,0,0
1511884982902675,-1,2,-1,5,1,0,1,0
1511884982917715,0,-3,0,0,0,-2,-2,0
1511884982917715,-3,0,-3,2,-3,0,2,-1
1511884982924720,-1,-2,-3,-5,-3,-2,2,-3
1511884982924720,-1,-5,-1,2,2,-1,-1,1
1511884982940763,-1,-2,1,1,0,2,0,0
1511884982940763,0,3,2,-4,-2,-4,1,-1
1511884982942775,-1,0,-6,2,2,-2,-5,3
1511884982942775,-3,-4,1,-6,-3,-4,-3,0
1511884982954821,-1,0,3,-2,-3,-3,-2,-1
1511884982954821,1,-4,-5,5,2,0,-2,0
1511884982963804,-1,1,0,-5,-5,1,-3,-2
1511884982963804,2,1,-3,1,-2,-5,-2,0
1511884982977876,2,-3,0,-14,0,2,-2,-3
1511884982977876,2,-1,-5,8,-2,-4,-1,3
1511884982984897,0,-6,0,-8,1,0,-1,0
1511884982984897,-4,-1,-2,6,3,2,1,-2
1511884983000901,-2,1,-2,-2,2,-2,-1,1
1511884983000901,1,-1,-1,-8,-7,0,1,0
1511884983002908,-1,-2,1,3,2,3,2,0
1511884983002908,1,0,-2,1,-2,-2,3,-2
1511884983014983,-2,4,-1,2,0,4,0,-1
1511884983014983,-2,-4,-4,3,-1,-2,2,-3
1511884983022103,-1,2,2,-1,-1,-1,-3,-3
1511884983022103,-2,-3,-3,-5,1,1,0,2
1511884983038135,-2,-2,-1,2,3,1,-1,0
1511884983038135,-5,-1,3,0,3,2,-2,1
1511884983045107,2,-1,1,2,-3,0,3,1
1511884983045107,-1,1,-4,2,3,1,-2,-4
1511884983061269,-1,-3,-2,-2,-4,2,-3,-1
1511884983061269,0,-1,3,-5,-1,-2,-1,2
1511884983062149,0,-1,-1,-6,-1,-1,0,-3
1511884983062149,-1,-1,-1,1,-3,1,-5,0
1511884983075514,0,-2,-1,1,1,-5,1,-2
1511884983075514,-2,-1,-3,2,0,-1,-2,-1
1511884983082338,-2,-3,-2,-1,-2,0,-2,1
1511884983082338,-1,-1,3,-3,-4,-4,0,-1
1511884983097519,0,-1,0,-2,-2,0,-1,0
1511884983097519,3,3,-3,-5,2,1,0,-2
1511884983104538,0,1,0,12,-4,0,-3,0
1511884983104538,-4,0,3,-10,-1,1,-2,-1
1511884983120581,0,1,-2,1,-1,-3,-2,0
1511884983120581,2,-1,-2,-1,-2,-2,0,-5
1511884983122583,-3,-3,-1,-1,1,-1,1,-1
1511884983122583,-1,0,-4,5,0,4,1,-1
1511884983135661,-4,-2,5,1,-1,0,-3,-4
1511884983135661,-4,0,-3,-2,2,1,1,3
1511884983142673,2,-1,0,2,0,0,2,-2
1511884983142673,-1,0,-6,-3,1,0,-3,-1
1511884983157869,0,-2,-2,6,-1,0,-1,1
1511884983157869,1,-1,-1,-1,0,0,1,-4
1511884983164697,-1,6,-3,4,1,1,-3,0
1511884983164697,-1,-1,0,0,-5,-2,1,-1
1511884983180742,-1,1,-2,0,3,-2,-1,-1
1511884983180742,0,2,1,4,0,2,-1,3
1511884983182748,0,-1,-2,-1,0,-5,-1,-3
1511884983182748,-1,-4,-2,-4,2,-1,-1,-2
1511884983195805,0,2,-4,3,-1,1,-3,-2
1511884983195805,-2,-2,2,4,3,0,0,0
1511884983201798,-1,-3,2,-5,-2,-1,-1,-1
1511884983201798,-1,1,0,4,-1,0,-2,-1
1511884983217879,-2,0,-1,2,-5,1,0,0
1511884983217879,1,0,2,9,1,-2,-1,0
1511884983224880,-2,1,-7,-9,-3,6,-2,3
1511884983224880,1,0,4,5,0,-1,0,1
1511884983241023,0,-1,2,-4,-2,-3,0,-3
1511884983241023,0,1,-3,-2,-4,-2,0,0
1511884983242991,-3,-3,1,8,1,2,1,-2
1511884983242991,-2,-3,-2,-4,-1,1,-2,0
1511884983255115,0,-1,0,0,1,1,-3,2
1511884983255115,-1,-3,2,0,-1,-2,-2,0
1511884983262045,0,-2,2,-2,-3,-5,-2,-6
1511884983262045,-2,1,4,1,4,1,-2,1
1511884983278201,1,-1,-6,-2,-2,-1,2,-1
1511884983278201,-2,-1,-4,-1,-2,-2,-2,-1
1511884983285106,-2,-1,-2,-1,0,-1,-1,1
1511884983285106,1,-2,-4,3,-1,4,1,-2
1511884983301268,3,-2,3,3,-1,2,0,0
1511884983301268,-1,0,1,1,1,2,-2,-4
1511884983302236,-2,2,3,-1,0,-4,-4,-1
1511884983302236,-2,2,-2,4,-2,2,0,0
1511884983314268,-4,-4,3,-2,-2,0,0,0
1511884983314268,0,-4,-1,-2,-1,-1,1,-1
1511884983323340,3,-3,2,-5,1,-1,-2,-2
1511884983323340,4,-3,-3,-1,2,0,0,-2
1511884983338356,0,0,0,-3,0,1,0,-2
1511884983338356,-3,0,1,5,-4,2,-6,-1
1511884983344390,-2,-2,-8,3,-1,0,2,1
1511884983344390,-2,0,0,-8,-1,-4,-4,-1
1511884983361418,-1,-1,-5,-1,0,0,0,-2
1511884983361418,-3,-2,4,-1,4,0,0,0
1511884983362396,-4,1,-2,-1,0,1,-2,-2
1511884983362396,0,-2,0,2,-2,3,0,-4
1511884983374428,-3,-2,0,4,4,-2,-2,2
1511884983374428,-3,-2,0,-1,1,-2,0,-3
1511884983383475,-2,0,-2,1,-2,1,-2,-1
1511884983383475,-2,-2,-2,0,-2,-5,-1,0
1511884983398491,-1,-2,2,1,-2,-1,3,-2
1511884983398491,1,0,-2,-3,-4,-2,1,-2
1511884983404511,-1,-1,0,2,-2,-2,0,-1
1511884983404511,0,0,0,2,2,1,-1,-2
1511884983420674,-5,2,-5,-3,0,1,-4,0
1511884983420674,0,-2,-2,1,0,2,-1,-2
1511884983421629,-2,0,1,0,3,1,0,-2
1511884983421629,-1,-2,0,-4,0,-1,-1,3
1511884983442715,-1,1,2,7,0,2,0,-4
1511884983442715,1,0,-4,0,-1,0,-1,1
1511884983443611,3,-1,-5,-2,0,1,0,1
1511884983443611,-2,-4,-2,0,-2,-1,-2,-2
1511884983458651,-1,0,-3,-6,0,-2,0,-3
1511884983458651,0,0,4,9,-2,3,4,0
1511884983464670,-3,-4,-1,-5,-4,1,-1,0
1511884983464670,0,2,-2,2,-2,-3,0,-1
1511884983479873,1,-2,-1,-7,-3,0,0,1
1511884983479873,-3,0,-4,-4,1,0,-4,-2
1511884983480857,-1,2,2,-1,-5,1,-1,2
1511884983480857,0,-1,-1,-1,1,-2,0,-2
1511884983502953,-2,-2,5,-2,0,-2,0,1
1511884983502953,2,-1,-3,0,1,-3,-2,-2
1511884983503920,-1,-2,1,-1,1,-2,1,0
1511884983503920,1,1,3,0,-5,2,1,1
1511884983518959,0,2,-1,7,-6,1,0,-1
1511884983518959,0,-1,-3,-5,-1,-4,-3,1
1511884983524987,1,-1,0,3,1,-1,-2,-1
1511884983524987,-3,-1,1,-3,0,-1,1,-3
1511884983540013,2,-7,-3,0,-4,0,-3,1
1511884983540013,-2,0,1,8,1,1,0,-1
1511884983541014,-1,-2,-1,-5,0,-2,0,-2
1511884983541014,-1,-2,-3,0,-1,0,1,-1
1511884983563119,0,0,-4,-8,2,2,-3,-1
1511884983563119,-4,2,2,3,-2,0,0,0
1511884983563119,-2,-3,-4,8,2,-1,-4,-5
1511884983563119,-1,-1,5,-10,2,-7,-1,6
1511884983578236,4,0,0,-4,1,-3,1,6
1511884983578236,3,-2,-8,-7,0,-2,2,2
1511884983584130,3,0,2,-4,-4,0,3,5
1511884983584130,-1,2,-5,1,-2,1,-2,-2
1511884983600170,-4,-2,3,7,3,1,-2,-2
1511884983600170,1,2,0,-4,-2,0,-1,0
1511884983607427,-2,-2,3,3,-2,1,1,-1
1511884983607427,0,-2,2,-2,-5,0,3,1
1511884983623381,-2,2,2,3,2,-1,-2,-4
1511884983623381,-4,-1,3,1,1,0,0,-4
1511884983623381,0,2,-1,-5,-2,1,-3,-4
1511884983623381,2,-1,-6,6,-2,0,-1,0
1511884983638420,-2,1,0,-1,-1,0,1,0
1511884983638420,0,-4,0,-4,0,-3,0,0
1511884983644511,0,1,1,-1,0,1,2,0
1511884983644511,-5,-2,-2,3,5,-1,-2,1
1511884983659652,-3,-2,-1,4,-2,-2,-2,-4
1511884983659652,-1,-2,2,5,2,-1,-2,-1
1511884983667588,1,-4,-6,-3,1,-1,1,0
1511884983667588,-2,-1,2,2,-2,4,-1,-3
1511884983682540,-3,-1,1,0,1,-3,1,-2
1511884983682540,2,-2,4,-3,-4,5,-4,-1
1511884983683539,-4,-1,-9,9,4,-1,-2,-1
1511884983683539,2,3,-1,-3,1,1,-3,-4
1511884983698580,-1,-2,1,-2,-4,-2,-1,1
1511884983698580,-3,3,-4,-4,-4,-3,-2,0
1511884983704919,-1,1,-1,4,2,1,0,-5
1511884983704919,-2,-2,-1,-2,-3,1,-1,-2
1511884983720133,0,0,2,2,0,1,-1,-2
1511884983720133,-4,-2,-10,-5,-2,-1,0,-2
1511884983727128,-2,0,4,1,-2,-3,1,1
1511884983727128,0,-3,-2,-6,0,1,0,-2
1511884983743178,0,-3,-2,7,-1,2,-1,1
1511884983743178,2,2,3,3,5,4,2,-1
1511884983744164,-1,-3,-3,-4,5,0,-1,-1
1511884983744164,-2,-1,0,0,-1,-1,0,0
1511884983759046,0,-1,-6,2,-6,-1,-2,1
1511884983759046,2,-3,2,-16,-3,-1,-2,0
1511884983765065,-2,1,-9,-3,-1,-5,-3,1
1511884983765065,-2,-1,1,4,2,-2,-1,-1
1511884983779140,3,0,0,-2,-3,0,-1,-5
1511884983779140,-1,-1,2,6,-2,-1,-2,-2
1511884983787164,4,-1,1,-5,-6,-2,-1,1
1511884983787164,1,2,1,-6,0,-1,0,0
1511884983803206,-3,-2,-2,-5,4,0,1,2
1511884983803206,0,0,-2,11,-1,-2,-1,-2
1511884983803206,-2,0,5,-8,-3,-1,1,-1
1511884983803206,0,0,1,4,1,-1,-3,-1
1511884983818246,-2,0,0,10,2,2,3,-2
1511884983818246,2,0,-2,-2,-3,-2,-1,2
1511884983825266,0,-2,3,1,0,0,0,-1
1511884983825266,3,2,-5,-7,0,-2,1,-2
1511884983839303,-2,2,-1,-5,-2,-1,1,-2
1511884983839303,-4,-3,-3,1,1,0,-3,-1
1511884983847323,-1,2,4,2,-1,2,-4,-2
1511884983847323,-1,0,-1,-3,-3,-1,0,-1
1511884983862537,-1,0,1,-2,-4,-4,-1,0
1511884983862537,-2,1,-3,-1,0,-2,-1,0
1511884983863364,4,1,-1,4,-1,1,0,-1
1511884983863364,-3,0,1,3,-1,1,2,3
1511884983878403,0,2,0,4,-2,1,-2,1
1511884983878403,1,-1,-1,-3,-2,-2,0,0
1511884983884552,-6,0,-2,3,-1,1,-1,-4
1511884983884552,-2,1,1,3,-2,-2,-4,2
1511884983899616,-1,1,3,-3,1,-4,-2,-2
1511884983899616,-3,0,4,-2,1,5,1,-1
1511884983906611,-2,0,1,5,1,1,-3,1
1511884983906611,1,-1,-3,0,-2,0,1,-1
1511884983922832,-4,-2,-6,2,0,3,1,-2
1511884983922832,-1,-1,4,0,1,1,-3,-3
1511884983923657,-5,-2,-4,-1,-1,-3,3,-2
1511884983923657,2,-7,1,0,0,-2,-3,-1
1511884983938696,1,2,2,-5,-1,1,0,1
1511884983938696,2,-1,-2,1,-1,1,-1,1
1511884983944816,-3,0,2,2,-2,1,-2,1
1511884983944816,3,-1,-3,-1,2,1,3,-3
1511884983959953,-5,-1,-1,-3,3,-1,-3,-2
1511884983959953,-1,2,0,-1,0,0,0,0
1511884983966967,3,4,5,-3,-3,0,-1,1
1511884983966967,-3,2,-1,-4,-4,-4,-2,2
1511884983982987,-2,0,-4,4,4,0,-1,-2
1511884983982987,-1,3,-2,-3,-2,2,3,0
1511884983983939,-2,-5,-2,-4,0,-3,1,3
1511884983983939,2,-3,-2,2,4,0,2,2
1511884983999000,0,0,5,-3,-2,-1,-1,-1
1511884983999000,-4,-4,-8,-6,0,-4,-2,-4
1511884984005047,3,3,-3,9,0,1,-2,-1
1511884984005047,-2,2,1,-2,1,3,-3,-2
1511884984020073,2,-4,0,-3,0,1,0,1
1511884984020073,1,-2,1,4,-2,2,-4,1
1511884984027101,-4,-1,-2,-3,-2,-1,-6,-3
1511884984027101,-3,-2,1,3,-1,0,1,-3
1511884984043121,-1,-1,-5,0,-2,-1,-1,-2
1511884984043121,-1,3,-1,2,4,0,2,-1
1511884984043121,1,-3,-1,1,-3,0,-1,-2
1511884984043121,-2,2,0,3,-2,3,-6,-6
1511884984058330,1,0,0,-2,-1,-2,-4,0
1511884984058330,-3,-3,-6,2,1,0,2,0
1511884984065151,0,0,-4,1,2,0,1,1
1511884984065151,-2,-2,-1,2,2,0,0,-2
1511884984080197,-4,-1,0,-2,-1,3,-1,-1
1511884984080197,-4,-4,0,2,-2,1,-5,-1
1511884984087258,-1,-2,3,-2,0,-1,3,-2
1511884984087258,2,2,-3,-3,-3,-1,2,2
1511884984103278,1,-3,0,3,-3,-2,2,-1
1511884984103278,-4,4,1,6,2,-1,-3,0
1511884984103278,0,-1,1,-10,-1,-2,-2,-2
1511884984103278,-2,-1,1,1,-1,1,2,-2
1511884984118321,-2,-1,1,2,-1,5,-1,-2
1511884984118321,-1,-3,-2,5,2,-2,1,-3
1511884984124317,-4,-2,0,2,-2,2,-2,-4
1511884984124317,-4,-1,0,3,3,3,-5,-4
1511884984139394,-1,1,-2,1,1,3,-2,-6
1511884984139394,0,1,3,-2,-2,-1,1,-3
1511884984147375,-2,4,-3,4,0,0,0,1
1511884984147375,2,-2,2,-1,-1,-3,-3,-2
1511884984162411,1,-2,-5,-3,-2,-1,-3,1
1511884984162411,1,1,-4,-1,-2,-3,-3,-2
1511884984163413,-2,0,0,-2,-3,-3,1,-1
1511884984163413,2,0,0,-2,-2,1,-4,3
1511884984178453,0,-1,-3,-1,2,-4,3,2
1511884984178453,3,-1,2,-10,-6,1,-1,2
1511884984184472,2,0,-2,3,0,2,0,1
1511884984184472,-2,-4,-3,-2,-1,0,-1,5
1511884984199509,-1,0,0,-2,-3,1,-1,2
1511884984199509,-4,-4,-3,-4,-3,3,-1,-3
1511884984207530,-2,0,-2,0,-1,0,0,-6
1511884984207530,-3,4,1,3,-3,0,-1,2
1511884984222755,-3,-1,3,1,-2,-4,3,0
1511884984222755,1,1,-4,0,-2,-2,-2,-2
1511884984223576,-3,-4,2,2,1,2,-6,-3
1511884984223576,-1,-2,-1,1,2,0,0,-5
1511884984238653,1,-2,2,-2,-2,0,-1,-1
1511884984238653,0,3,2,3,-2,-1,2,2
1511884984244767,2,-1,-1,-1,2,-4,5,4
1511884984244767,1,1,0,-8,-3,-2,-1,1
1511884984259671,-2,1,-2,5,7,2,-3,-2
1511884984259671,2,-3,1,-5,-5,0,-2,2
1511884984267730,-1,0,-3,3,-3,1,-1,0
1511884984267730,-4,1,-2,5,0,0,1,-3
1511884984282773,-1,-2,-2,-4,-2,1,-4,-2
1511884984282773,-6,-3,-2,5,3,1,0,-2
1511884984283762,-2,-3,-2,0,0,1,0,-6
1511884984283762,-2,-1,-3,-3,1,-2,0,-4
1511884984298773,-1,1,1,-1,2,0,-4,-1
1511884984298773,1,0,3,1,3,-2,1,2
1511884984304789,1,-5,1,-4,0,0,-1,2
1511884984304789,4,2,1,-1,-2,2,5,1
1511884984319873,2,-1,-6,1,1,-3,-1,-1
1511884984319873,-2,1,-1,-1,-2,-2,-1,1
1511884984326968,-5,-1,-1,2,1,2,1,-3
1511884984326968,-1,1,-4,0,-2,1,-3,2
1511884984342989,0,-4,0,-1,-2,-1,0,-4
1511884984342989,-1,0,-1,0,-4,-1,0,0
1511884984343895,1,1,1,-5,-1,2,-1,3
1511884984343895,-2,-2,1,1,0,0,-1,-1
1511884984358933,-2,2,1,3,0,-1,-2,-1
1511884984358933,1,-3,-3,1,3,2,-1,-5
1511884984365079,1,2,-2,1,0,-1,0,2
1511884984365079,-4,-1,1,-2,-3,-1,-2,0
1511884984380102,0,1,-3,-3,1,4,3,2
1511884984380102,0,0,3,-3,2,-2,1,-1
1511884984387138,2,1,-2,0,-1,0,0,-1
1511884984387138,-1,0,-5,0,0,0,0,1
1511884984403173,-2,-3,-2,0,-5,-4,1,0
1511884984403173,-2,-2,-3,2,-1,-2,2,3
1511884984403173,0,0,2,2,-2,-1,-3,-2
1511884984403173,-2,-2,1,-3,-2,-1,-3,0
1511884984418181,-1,-1,-2,0,-3,1,0,-2
1511884984418181,3,1,2,0,-1,2,-2,0
1511884984424501,3,1,-8,-1,-2,-6,3,4
1511884984424501,2,0,1,-1,-1,-1,-3,-1
1511884984439485,1,-3,2,-4,-2,-2,-1,-1
1511884984439485,-1,1,7,0,1,-2,-2,-2
1511884984447398,-3,-3,-6,-5,-2,4,1,3
1511884984447398,1,-3,0,1,1,-3,0,0
1511884984462436,0,-1,1,-1,-1,1,-1,3
1511884984462436,2,-3,-4,-2,0,1,-1,3
1511884984463438,-1,0,4,1,3,-1,1,2
1511884984463438,-1,-2,-1,2,3,2,3,-3
1511884984478478,2,2,-5,1,0,1,-1,0
1511884984478478,-2,-1,-4,-4,-3,-1,2,-1
1511884984484640,-2,1,-1,2,1,0,-4,-3
1511884984484640,-1,0,-1,3,-3,0,-1,-1
1511884984500804,1,2,-1,-3,2,-2,-5,0
1511884984500804,-1,3,-1,4,0,-1,-2,-1
1511884984506937,1,-2,2,0,-3,-1,-3,0
1511884984506937,-1,-1,2,0,2,-1,1,-2
1511884984529998,-1,-1,1,2,-2,-1,0,1
1511884984529998,-1,0,-2,1,0,0,0,-4
1511884984531001,-2,-2,4,4,-5,2,-2,-3
1511884984531001,0,-1,-1,-3,-1,1,-1,-2
1511884984545221,-3,-2,-1,0,1,2,-1,-5
1511884984545221,-2,-3,-7,0,-3,-1,-2,-4
1511884984546041,1,7,2,-2,0,-1,-3,-2
1511884984546041,-4,1,-3,1,1,0,-1,-3
1511884984561081,-3,-1,2,1,-1,-3,1,-2
1511884984561081,1,-1,4,1,-2,-1,0,-2
1511884984567099,-2,-4,-3,-8,3,-1,2,1
1511884984567099,3,-1,-3,2,-1,0,-3,0
1511884984582240,2,3,-2,-5,3,-1,4,4
1511884984582240,-1,-2,4,1,1,1,1,-2
1511884984589243,2,1,0,0,0,3,0,-3
1511884984589243,2,-2,-3,-1,-1,0,-2,4
1511884984605524,1,0,-1,0,-5,0,2,1
1511884984605524,-1,-2,-2,4,-3,-3,0,0
1511884984606503,1,-3,-5,0,3,-1,-1,0
1511884984606503,-1,-1,-2,-1,-1,-2,-1,-4
1511884984621382,0,-1,0,-3,-2,2,0,-2
1511884984621382,-5,-2,-3,3,5,-2,-2,-3
1511884984627502,-2,1,3,4,-1,2,0,-1
1511884984627502,-3,1,-4,-3,-2,0,2,2
1511884984642543,-1,-6,2,5,-4,0,-4,-3
1511884984642543,0,3,-1,-9,-4,1,-2,2
1511884984649565,0,2,1,0,0,-6,-6,-1
1511884984649565,-1,-4,-1,1,5,3,-2,-4
1511884984665502,0,2,2,3,0,-4,0,-1
1511884984665502,2,-3,-3,-4,1,3,2,0
1511884984666505,-3,1,-1,1,-4,-2,0,-2
1511884984666505,-3,1,1,5,2,1,-5,3
1511884984679550,4,0,-8,-8,-7,-4,0,-1
1511884984679550,-1,0,-2,1,-3,0,-1,0
1511884984687591,2,-2,-4,3,0,0,-1,-1
1511884984687591,3,-1,4,5,1,-1,1,-2
1511884984702710,-3,2,-2,-2,-1,1,-2,1
1511884984702710,-3,1,1,4,-2,7,-5,-1
1511884984709733,-2,-2,-5,-4,-3,1,4,1
1511884984709733,-1,1,0,-1,-3,2,-1,0
1511884984725660,-1,-1,2,0,4,1,1,-2
1511884984725660,-1,-5,-4,-1,1,1,-4,-1
1511884984725660,2,-4,0,1,3,-4,-3,1
1511884984725660,-4,1,3,2,0,2,2,-3
1511884984740701,-3,0,0,7,-4,2,-3,-3
1511884984740701,-2,-3,-7,-3,0,-5,0,-1
1511884984747720,0,0,3,5,1,5,1,-2
1511884984747720,-5,-2,-5,-3,-4,0,-3,0
1511884984761880,1,-1,-2,-2,5,3,0,1
1511884984761880,1,-1,2,0,-1,-1,2,2
1511884984769781,-4,1,3,0,1,4,-3,-3
1511884984769781,0,2,2,-1,-2,-3,0,-2
1511884984784863,2,0,-3,1,-1,0,-1,1
1511884984784863,-1,-2,5,-7,0,2,-1,-2
1511884984785823,1,2,0,-1,-3,-6,-2,0
1511884984785823,-1,-1,-4,3,-1,-1,-2,-1
1511884984800859,-3,2,-1,0,1,-3,-1,-1
1511884984800859,-1,1,-2,4,2,0,1,-2
1511884984806875,-3,-3,2,-5,-1,1,-1,0
1511884984806875,0,-3,-1,-9,-1,-1,1,1
1511884984821924,-2,-4,-1,7,0,-3,-2,-3
1511884984821924,-1,-3,0,-1,-6,-1,-1,0
1511884984830032,-1,1,-2,-3,2,1,-1,0
1511884984830032,-2,0,-2,-3,-3,-1,1,-1
1511884984845108,-3,-2,0,2,2,1,-1,-4
1511884984845108,0,0,1,3,0,-2,-2,0
1511884984845989,-2,-5,-3,3,-1,0,-2,0
1511884984845989,1,-1,0,2,-1,1,-3,0
1511884984861029,-2,0,-2,-3,2,-1,1,2
1511884984861029,2,3,1,0,3,-3,-2,-1
1511884984867133,1,-2,-2,2,-1,3,0,-6
1511884984867133,1,-2,0,2,0,0,-1,-3
1511884984882120,-4,-2,-2,-1,1,0,0,-1
1511884984882120,1,3,-4,-9,-2,-3,-3,-3
1511884984889267,0,1,-1,-1,-1,-3,-1,2
1511884984889267,-3,1,-2,5,-1,-1,1,0
1511884984905320,0,-1,1,1,-2,0,-1,0
1511884984905320,-1,-2,1,3,2,2,0,-1
1511884984906324,-3,-3,0,-6,-3,-6,1,-2
1511884984906324,0,-5,-1,-3,-3,-2,-2,3
1511884984929380,0,0,-1,-3,-2,-1,-1,2
1511884984929380,-1,1,-1,2,1,1,3,-1
1511884984930386,-3,0,-3,-1,0,-2,-2,1
1511884984930386,2,1,3,2,-6,-1,0,-2
1511884984942616,-3,-2,1,-1,1,-2,-1,-2
1511884984942616,1,-1,1,1,-3,-2,-1,-3
1511884984949436,2,-1,0,-2,5,1,-1,-5
1511884984949436,-3,0,-7,-4,1,-3,0,-1
1511884984965479,1,-1,2,-1,0,5,-5,-4
1511884984965479,-3,-1,-1,-2,-2,-2,0,0
1511884984972611,0,1,3,6,1,1,-3,1
1511884984972611,2,3,-1,2,0,0,1,-2
1511884984981552,1,0,-5,-3,-2,-2,0,0
1511884984981552,-4,-2,3,3,-2,1,1,-4
1511884984987596,0,-2,1,9,-3,-3,2,-1
1511884984987596,1,0,3,-5,2,-1,-4,-2
1511884985002632,1,0,-5,3,-1,-2,-2,-2
1511884985002632,0,-5,-7,-10,-2,-3,0,-2
1511884985009661,-5,1,0,4,4,1,2,0
1511884985009661,-1,0,2,10,-1,-1,-1,2
1511884985025786,0,2,1,-5,1,0,0,-2
1511884985025786,4,0,2,3,-1,1,0,-1
1511884985025786,-3,-1,-10,-3,1,0,-3,-4
1511884985025786,0,-1,0,-2,0,-6,-1,-1
1511884985040835,0,0,4,1,0,-1,0,2
1511884985040835,-1,0,3,-3,-3,0,0,0
1511884985046808,-3,-1,-1,-1,-3,-1,-1,-2
1511884985046808,-1,1,1,5,3,5,-4,-5
1511884985061888,-2,-2,-5,0,-4,-1,-1,1
1511884985061888,-1,-1,-3,1,-1,-1,-3,-4
1511884985069909,0,2,-1,-3,-4,0,1,-1
1511884985069909,-3,-1,-4,-5,-1,-1,0,2
1511884985084947,2,-2,-1,1,-3,0,-3,0
1511884985084947,-1,-1,-3,1,-2,-2,-2,-1
1511884985085911,-2,0,0,-5,1,-1,-3,0
1511884985085911,3,1,-3,-1,-1,0,0,0
1511884985101044,-3,-2,-1,1,1,2,-2,-3
1511884985101044,-3,-1,-4,-1,2,-1,2,0
1511884985107261,3,0,1,5,-2,-2,-3,-1
1511884985107261,-3,0,-3,-3,-2,0,0,-4
1511884985122254,-1,-6,5,-3,-1,0,0,-1
1511884985122254,1,5,0,3,1,1,0,1
1511884985138383,4,-3,-2,-3,-1,0,0,3
1511884985138383,-2,-4,1,0,2,-1,1,-3
1511884985145426,-2,1,3,4,-2,-4,0,-3
1511884985145426,0,-3,1,-4,1,-2,-1,-1
1511884985146317,-1,-5,-3,4,-5,-1,0,1
1511884985146317,0,1,-1,-6,-2,0,-3,-2
1511884985161499,-4,4,-1,-4,-3,0,-1,1
1511884985161499,-1,0,-3,3,2,-2,0,1
1511884985167489,-1,-1,4,-7,-4,-2,0,-3
1511884985167489,-4,2,-1,1,-1,1,-1,1
1511884985182526,1,1,-3,-5,-2,1,2,-2
1511884985182526,-3,1,0,4,3,1,-1,-4
1511884985189546,-1,0,-2,-12,-2,-2,-1,-2
1511884985189546,0,1,-2,9,4,-4,-4,1
1511884985205797,1,-3,3,-3,0,-1,1,-1
1511884985205797,-2,-5,-2,6,-6,2,0,0
1511884985206620,2,1,-2,0,0,-1,-2,0
1511884985206620,-1,1,-4,-3,-2,0,1,-2
1511884985221630,2,2,1,3,2,0,-1,0
1511884985221630,-3,-4,2,-1,-3,-2,-3,1
1511884985227686,-2,-1,0,-1,-3,-1,-2,2
1511884985227686,-3,-5,1,1,-2,2,0,-1
1511884985241708,-2,1,-3,2,0,0,0,-2
1511884985241708,-1,-3,0,-2,-2,1,-3,-3
1511884985249707,-3,1,1,6,3,3,2,-3
1511884985249707,-4,-3,-4,-1,-3,-4,0,-2
1511884985265772,1,-1,-2,-6,-5,-1,0,1
1511884985265772,2,0,-4,4,3,2,-2,1
1511884985265772,-2,-2,-2,0,0,-2,-1,-3
1511884985265772,0,-2,3,-3,1,-1,-1,0
1511884985279788,-1,1,-4,2,-1,-3,-2,0
1511884985279788,0,0,-3,-2,0,1,-1,0
1511884985286806,2,-2,0,0,-1,2,2,-2
1511884985286806,2,0,-2,-2,0,-4,-2,1
1511884985301884,-4,-1,-1,0,-1,1,-3,-3
1511884985301884,2,-1,-1,-4,-3,-2,0,-1
1511884985309871,-3,1,-1,-1,-2,1,1,0
1511884985309871,0,-3,-1,2,-4,2,-2,0
1511884985324945,0,-4,1,-2,-1,-3,-1,-2
1511884985324945,-1,2,0,-1,0,-3,-2,2
1511884985325912,0,-3,-1,-1,-1,0,1,1
1511884985325912,-3,-2,-1,1,3,-2,0,-2
1511884985339088,-2,-3,1,-5,2,1,-1,0
1511884985339088,-3,3,-1,16,0,0,-2,-6
1511884985347331,-1,-4,-3,2,-2,-2,-4,3
1511884985347331,0,-1,-2,-4,-1,2,-2,0
1511884985362367,2,0,-4,2,1,0,0,-2
1511884985362367,-1,-2,-1,-9,-2,-1,0,-1
1511884985369388,2,2,-1,0,2,1,-2,-4
1511884985369388,-2,1,0,4,-1,-2,0,-3
1511884985385547,-1,1,-3,1,1,-3,-4,-2
1511884985385547,-2,-3,0,-2,0,2,-1,-1
1511884985386544,-2,-2,4,5,0,-6,-1,2
1511884985386544,-1,-3,1,-2,3,1,3,1
1511884985399468,-3,0,-4,-2,-3,3,0,-3
1511884985399468,-2,-3,-4,-3,-2,-2,-3,-2
1511884985407642,-2,-1,1,-2,5,0,-1,-3
1511884985407642,-1,1,-1,2,0,-1,-1,-1
1511884985421790,1,1,1,-3,-2,-1,0,1
1511884985421790,0,-3,5,2,-2,-2,-1,0
1511884985429722,-3,0,-1,7,0,2,-2,-3
1511884985429722,0,-1,-1,0,-4,0,2,1
1511884985445830,-1,-3,-5,-8,0,-2,-1,-4
1511884985445830,-2,-1,3,4,4,-1,-1,0
1511884985445830,-2,-1,-2,-9,0,-2,0,-1
1511884985445830,-2,1,2,5,0,1,-3,-4
1511884985460872,1,-5,-1,4,1,-3,0,3
1511884985460872,0,0,-3,-12,-7,-3,-1,-1
1511884985466976,-1,2,-5,0,-1,-1,-1,-2
1511884985466976,1,0,2,1,1,0,-1,-2
1511884985481931,-3,1,1,5,1,0,-2,2
1511884985481931,0,0,-2,-3,1,0,0,0
1511884985489985,1,-2,0,0,-2,-1,1,0
1511884985489985,1,-2,-2,-4,-2,0,0,1
1511884985504994,-2,-3,1,-7,-3,2,-1,-3
1511884985504994,1,-5,0,10,4,-3,0,-3
1511884985512402,-1,-2,-2,-6,1,0,1,0
1511884985512402,-3,3,1,-2,-4,0,0,-2
1511884985521248,-2,-3,-4,2,0,0,-2,-1
1511884985521248,-5,4,3,0,-2,-2,5,3
1511884985527451,2,-1,3,-1,-3,3,-3,-4
1511884985527451,-1,-1,-2,-8,2,1,-2,2
1511884985542307,-2,1,5,11,-2,-2,0,1
1511884985542307,0,2,-2,-11,-3,2,-2,-1
1511884985549471,1,-2,0,6,8,-2,1,-4
1511884985549471,-1,-3,-2,-3,0,-2,-2,2
1511884985564736,2,5,-2,4,-3,1,0,-3
1511884985564736,1,-2,1,-2,3,0,1,0
1511884985571759,-3,1,1,0,-8,1,2,0
1511884985571759,0,1,-2,3,5,1,-1,-2
1511884985580803,-2,-4,-1,5,1,0,0,-2
1511884985580803,0,0,-1,4,-2,1,0,-3
1511884985586819,-2,0,-4,-9,-3,0,-2,0
1511884985586819,1,1,1,12,-1,0,-2,1
1511884985601837,1,-3,-3,-3,1,1,-1,0
1511884985601837,-2,-1,2,8,5,0,-1,-3
1511884985610079,-2,-2,-5,-6,-2,-2,0,0
1511884985610079,2,0,2,4,0,-2,-2,-3
1511884985625040,0,1,0,-5,-5,-3,-1,-2
1511884985625040,-1,-4,-3,2,-1,1,-1,1
1511884985632152,0,0,-6,4,2,1,-2,1
1511884985632152,-2,-3,-3,-3,-4,0,-2,0
1511884985647232,-1,2,3,3,3,-2,-3,-1
1511884985647232,-1,2,3,-5,-5,0,0,-3
1511884985648230,-1,2,1,3,-2,0,-2,4
1511884985648230,2,-1,0,-3,-2,-1,3,-2
1511884985663269,-2,1,-1,2,0,4,-1,0
1511884985663269,-3,-5,-5,-3,-4,0,2,1
1511884985669289,-2,-2,3,4,-1,-1,-4,-3
1511884985669289,1,0,-3,-2,3,-1,-2,-3
1511884985684458,-2,1,5,-1,-5,2,0,-1
1511884985684458,0,4,-1,0,2,-1,-4,-1
1511884985692670,-2,-2,3,-2,3,0,1,0
1511884985692670,-2,0,-2,1,-1,-1,0,-2
1511884985707518,-2,-2,0,-3,2,-1,1,-2
1511884985707518,2,-5,-2,-7,-3,-2,-2,0
1511884985708520,0,0,-2,10,-3,0,1,0
1511884985708520,-1,-3,-2,-6,1,0,-1,-1
1511884985722563,-1,-1,0,0,-1,1,-1,1
1511884985722563,2,0,-2,-5,-4,-4,-3,-1
1511884985729601,-5,4,3,-3,0,0,0,-3
1511884985729601,0,-4,1,1,2,-1,0,-1
1511884985744740,-4,-1,-2,1,2,-1,1,-1
1511884985744740,0,0,-2,1,-2,1,1,-2
1511884985752665,2,1,0,3,-1,1,-4,0
1511884985752665,-5,3,-1,0,-3,-1,2,-1
1511884985767680,0,-3,2,-2,0,0,-3,2
1511884985767680,-2,0,0,1,-1,1,1,0
1511884985768679,0,-3,-3,-4,-3,-3,-3,-5
1511884985768679,-2,-5,-1,-6,-2,-1,0,0
1511884985781843,0,-1,-3,4,1,-4,-1,2
1511884985781843,0,0,1,-9,-3,-1,-1,-4
1511884985789864,-3,1,-1,5,2,-4,1,1
1511884985789864,0,-2,1,1,0,3,-3,-1
1511884985804904,-1,1,-1,-1,0,0,-1,-1
1511884985804904,1,0,-3,7,4,0,-5,1
1511884985811923,0,-1,-2,-4,0,2,-2,-1
1511884985811923,-2,-1,1,0,-4,-2,0,0
1511884985828068,-3,-1,0,-2,-1,-1,-3,-3
1511884985828068,-1,1,-1,1,-1,0,-2,-1
1511884985829044,-2,-4,2,-4,-4,0,1,2
1511884985829044,-3,-1,-9,5,0,2,-1,-1
1511884985842225,3,-3,-2,-4,1,-4,0,-2
1511884985842225,-1,-1,-2,4,2,0,0,1
1511884985849262,-1,-3,-2,-2,-3,-3,0,-1
1511884985849262,0,1,1,-2,-1,2,-1,-1
1511884985864249,0,1,-3,-6,0,3,2,0
1511884985864249,-6,0,-2,2,0,-1,-4,-2
1511884985872273,3,0,1,2,1,-1,-1,1
1511884985872273,0,2,3,-1,0,-2,0,0
1511884985887352,1,-3,-2,0,2,3,-1,-1
1511884985887352,-4,-3,2,8,-1,-3,1,-1
1511884985888336,1,-4,-4,-5,-3,2,0,-2
1511884985888336,2,2,-2,-3,-1,1,1,-3
1511884985902352,-2,-2,1,6,-2,1,-3,-2
1511884985902352,-3,-1,-3,-3,-4,-1,1,-1
1511884985909370,-2,-1,-1,-1,-1,-3,-1,-1
1511884985909370,-1,-1,-1,-1,2,1,-2,0
1511884985924421,0,-2,3,2,-3,-1,1,-1
1511884985924421,2,1,-6,0,2,1,0,1
1511884985940494,-1,0,6,6,0,-2,0,-1
1511884985940494,-1,-3,2,1,-3,-1,-2,0
1511884985947578,-1,1,-9,0,-1,1,-1,1
1511884985947578,0,-7,6,-2,0,4,-1,-1
1511884985948481,-1,-3,-8,0,-1,1,-1,-3
1511884985948481,0,3,-2,3,1,-4,1,-2
1511884985962561,0,2,3,6,-2,-1,-3,-2
1511884985962561,-2,-1,-7,-5,1,2,-3,-1
1511884985969540,-3,1,-3,7,1,2,0,-3
1511884985969540,-2,-4,-2,-1,-1,2,0,0
1511884985984581,-1,-2,-2,-5,1,-4,0,0
1511884985984581,-1,3,4,-3,-2,-1,0,-2
1511884985992604,1,0,-3,-2,2,1,-2,0
1511884985992604,-6,-2,-5,-8,-5,-3,-1,3
1511884986007679,-3,1,1,4,2,-2,1,-2
1511884986007679,2,3,5,0,-4,-2,2,2
1511884986008679,-1,-3,-6,-6,0,-5,-4,0
1511884986008679,3,-2,5,2,-2,0,1,-2
1511884986021770,1,-1,2,-4,-3,2,-5,2
1511884986021770,-1,0,5,-5,-3,1,-1,-3
1511884986029791,-2,3,-1,-10,-5,0,-1,-2
1511884986029791,0,-2,-4,6,1,-1,-5,1
1511884986044928,-2,-4,-5,-6,0,-1,0,-1
1511884986044928,1,1,-4,0,0,-3,0,1
1511884986052126,-3,0,3,3,1,-1,2,-5
1511884986052126,0,2,-1,-2,1,2,-1,-4
1511884986068108,0,-3,-6,-6,-2,-5,-1,1
1511884986068108,-3,1,5,9,4,3,2,2
1511884986068108,-3,-7,-4,2,-2,-1,-1,4
1511884986068108,2,0,5,-2,-3,-2,-2,1
1511884986082146,-2,1,-2,4,6,4,2,-1
1511884986082146,-2,-3,-1,1,-3,-1,-2,-2
1511884986090125,3,2,2,-5,-2,2,2,-1
1511884986090125,0,-3,-3,11,0,0,-3,-2
1511884986104165,0,-3,-11,-9,-4,-1,0,0
1511884986104165,-2,3,0,-6,2,-3,-3,-3
1511884986112182,1,0,5,10,2,4,0,-1
1511884986112182,-2,1,-1,-10,-5,-1,-1,1
1511884986128310,0,3,2,3,-2,-2,0,-3
1511884986128310,0,-6,-9,-6,-5,1,1,0
1511884986128310,0,-1,-6,0,1,0,1,-3
1511884986128310,0,-2,5,-2,-1,-2,-3,-2
1511884986142526,1,0,4,-8,-1,0,-1,-3
1511884986142526,-1,-2,4,8,-3,-1,-2,0
1511884986149371,-1,-4,2,3,-3,-1,-1,0
1511884986149371,-3,5,-3,-5,-3,3,-1,1
1511884986164411,1,3,-1,7,-5,1,-1,2
1511884986164411,1,-5,-10,-6,0,-2,1,0
1511884986172433,-2,-1,-1,-3,-2,0,0,-2
1511884986172433,0,1,-1,2,3,-5,4,-1
1511884986187568,0,-2,0,-2,-2,-1,0,-1
1511884986187568,-2,5,2,8,4,-1,1,0
1511884986188472,2,-1,-2,4,1,-5,0,2
1511884986188472,-1,-8,0,-13,2,-3,2,-3
1511884986202513,-2,0,2,11,1,0,0,0
1511884986202513,-1,-3,-3,-2,-5,1,-1,-3
1511884986209531,4,-1,-1,-4,4,-4,0,0
1511884986209531,2,-2,-3,9,2,0,-2,-2
1511884986224573,1,-1,-2,-2,-2,-1,-1,0
1511884986224573,-3,-2,-1,1,4,-3,1,-3
1511884986232615,0,2,-1,-8,2,-1,-1,-1
1511884986232615,-1,0,-3,1,0,3,1,-2
1511884986247635,-2,-1,-3,-6,-1,0,0,-2
1511884986247635,6,-1,-1,5,-1,0,2,-2
1511884986248636,2,0,1,-2,-2,0,-3,-1
1511884986248636,-4,-2,0,1,-4,-1,-2,-1
1511884986261791,1,0,2,1,3,0,2,-3
1511884986261791,0,-2,-3,1,-1,2,-4,-3
1511884986269814,0,3,2,-2,-3,1,-3,0
1511884986269814,7,0,0,-5,-1,-3,2,1
1511884986284772,-9,-1,-3,7,-1,2,0,2
1511884986284772,1,-1,-1,-6,0,-1,-5,1
1511884986291750,-5,0,-1,-2,2,0,-5,-2
1511884986291750,0,-2,-2,0,-4,0,3,-2
1511884986307964,-2,2,4,0,1,0,1,0
1511884986307964,-2,2,0,-4,0,-2,1,-1
1511884986308793,-2,-4,0,0,-1,-3,0,-1
1511884986308793,0,-2,-1,-1,2,-1,-1,-1
1511884986322018,0,-2,1,-3,-3,-3,-3,-4
1511884986322018,-1,-1,2,11,-1,-1,0,0
1511884986330018,1,0,-1,-4,2,1,-2,2
1511884986330018,0,-1,-4,0,-2,-1,-1,1
1511884986345022,0,-1,1,0,-1,2,0,-1
1511884986345022,-1,3,0,0,0,-1,-1,3
1511884986351911,4,1,-1,0,-5,2,-1,0
1511884986351911,-9,-1,-4,1,1,-2,-3,-2
1511884986368087,0,-4,-1,-2,1,-2,-4,1
1511884986368087,-2,-6,-5,-3,2,0,1,2
1511884986368087,-1,-2,2,-1,-3,0,-1,-3
1511884986368087,1,-4,0,2,-1,5,-4,-2
1511884986382085,-5,1,-2,-1,-5,1,2,-2
1511884986382085,2,0,-1,-5,-3,-2,-3,-2
1511884986390103,-2,-3,-5,5,0,2,2,-1
1511884986390103,0,2,1,0,0,0,-1,1
1511884986404145,3,-1,-1,4,0,-1,1,-6
1511884986404145,-7,-1,-1,-3,0,1,1,0
1511884986412368,2,5,-1,-2,-3,-1,-1,0
1511884986412368,-2,2,0,6,3,1,-3,0
1511884986427204,4,1,-2,-5,-1,1,1,2
1511884986427204,-1,0,-1,-1,-3,0,3,-4
1511884986435226,-2,-4,3,-5,0,-2,0,-2
1511884986435226,0,-1,-1,2,2,1,-2,-5
1511884986442245,1,-3,-3,-1,-1,0,-4,1
1511884986442245,-3,2,0,0,-2,-2,-2,-3
1511884986449263,-1,0,2,5,1,3,-4,-2
1511884986449263,-5,-3,0,-1,0,-3,1,-2
1511884986464304,-6,0,2,0,1,0,-5,-2
1511884986464304,-1,1,2,3,0,2,-4,-4
1511884986472326,-3,3,-5,4,1,1,0,-2
1511884986472326,1,3,-1,1,-4,1,1,-4
1511884986487553,2,-2,2,-3,0,-2,1,-1
1511884986487553,-1,0,0,0,-3,-1,0,1
1511884986495488,-5,-1,-2,-1,1,-1,4,3
1511884986495488,1,1,-2,-5,0,-3,-2,2
1511884986502495,0,1,-1,-1,-1,2,-4,0
1511884986502495,0,-3,-2,-3,-3,0,0,3
1511884986509613,0,-1,-1,1,-3,-5,0,-1
1511884986509613,1,2,1,-1,-2,3,1,0
1511884986524595,-5,-3,-5,0,0,0,-4,-2
1511884986524595,0,2,-3,15,-2,2,-2,0
1511884986532597,-3,-3,-4,-6,3,2,3,-5
1511884986532597,-2,-1,3,3,-1,1,-2,-2
1511884986546612,-2,0,0,-4,-2,-3,2,-4
1511884986546612,-1,-2,-3,-1,1,0,-1,-2
1511884986555671,0,3,-2,-2,-6,-1,-1,0
1511884986555671,0,-5,-2,-2,-1,0,-1,0
1511884986570696,0,3,3,1,2,-2,-1,-2
1511884986570696,-3,1,0,-3,0,-2,2,-1
1511884986570696,1,-6,-1,1,4,1,-2,0
1511884986570696,2,0,-1,-1,-1,-1,-1,0
1511884986584786,-2,-1,0,-3,-4,0,1,3
1511884986584786,-1,-1,-2,-1,0,0,-3,-3
1511884986591769,-1,7,0,1,-5,1,-8,-2
1511884986591769,0,-1,-1,2,-1,-4,-3,2
1511884986606806,-2,-1,-1,2,1,3,2,-1
1511884986606806,0,-2,1,-5,1,-4,-3,-1
1511884986614828,2,-1,-4,-1,-1,-3,-1,1
1511884986614828,-1,-3,1,-1,-4,2,2,1
1511884986630051,-1,-1,0,-1,-1,-1,0,1
1511884986630051,2,-1,1,-4,-2,0,2,0
1511884986631024,1,0,0,0,2,-3,0,1
1511884986631024,-1,3,-2,-1,-2,2,0,-1
1511884986645082,3,2,-4,0,-1,0,2,-1
1511884986645082,3,-1,-1,-5,2,-2,0,-3
1511884986652075,0,-3,-3,1,2,-1,0,-1
1511884986652075,0,3,2,-2,-1,0,1,2
1511884986667277,0,-1,-2,3,-4,1,-6,-2
1511884986667277,3,-5,-1,0,6,0,-1,1
1511884986675661,-2,7,-3,-1,-3,2,-1,-3
1511884986675661,0,-1,0,-4,0,-4,-3,1
1511884986690606,4,1,2,-4,-3,-3,-2,0
1511884986690606,-4,-2,-2,0,0,2,-1,-1
1511884986691646,0,-4,0,0,-1,-1,0,1
1511884986691646,-1,2,3,1,1,0,-4,1
1511884986704755,-2,-2,-3,-1,2,1,0,0
1511884986704755,0,2,-4,-1,-4,3,0,0
1511884986711791,0,-5,0,-5,-3,0,2,1
1511884986711791,-7,-4,-3,0,-1,-1,-1,-3
1511884986726832,5,-2,-6,-1,-2,0,-1,-2
1511884986726832,0,-2,3,-2,0,0,-1,3
1511884986734861,-1,-2,-3,2,2,-1,-1,-1
1511884986734861,-2,2,-2,3,-2,1,-1,-5
1511884986749980,-3,-3,2,4,1,3,1,0
1511884986749980,-2,-1,0,2,-5,-2,2,1
1511884986750981,0,-1,2,-1,0,-4,-2,-1
1511884986750981,0,-3,-1,-3,2,-1,2,-1
1511884986765043,2,-1,-1,-1,-1,-1,2,2
1511884986765043,-2,-3,-3,-2,-6,-2,-2,-4
1511884986772075,-2,1,0,4,-1,0,1,0
1511884986772075,0,-3,-3,0,2,-3,-3,-3
1511884986787076,-4,1,-1,3,2,-3,-2,1
1511884986787076,-4,-2,0,-3,4,1,-2,-2
1511884986795097,0,-2,2,-1,1,-2,1,-1
1511884986795097,0,-1,-1,-3,1,1,-1,-1
1511884986810330,0,0,-2,1,0,1,-2,-2
1511884986810330,1,2,2,-1,-3,0,-1,0
1511884986811138,-2,0,-9,-1,0,0,0,0
1511884986811138,-1,2,3,2,0,0,-1,-1
1511884986824179,-2,-1,1,-4,0,-2,3,0
1511884986824179,1,1,-1,0,0,2,-1,-4
1511884986832198,0,0,2,0,-6,-1,4,0
1511884986832198,2,-5,-3,-1,-4,-2,1,1
1511884986847398,-5,-2,1,1,0,-1,2,0
1511884986847398,-2,1,0,-4,3,0,-2,4
1511884986855531,-2,1,-3,2,-2,-1,-2,3
1511884986855531,-2,-3,-4,-4,-1,-1,3,0
1511884986870572,1,4,-2,-1,2,-1,-2,-1
1511884986870572,-1,-2,-6,2,0,-3,1,1
1511884986871566,1,-3,2,0,-3,-1,0,-3
1511884986871566,2,2,-1,2,-1,-2,-1,-1
1511884986884639,0,0,5,-3,-4,0,-2,0
1511884986884639,0,0,-3,-1,2,-3,-2,-1
1511884986892551,-5,0,2,0,1,1,2,-1
1511884986892551,1,1,-8,0,0,4,-3,-1
1511884986906580,-6,-5,0,3,-1,-1,-1,-3
1511884986906580,2,-3,3,-1,-5,-3,0,0
1511884986915604,-3,1,2,3,-1,-1,-3,-3
1511884986915604,-2,3,2,-5,-2,1,-1,-3
1511884986930730,1,1,-5,2,2,3,0,-2
1511884986930730,-3,-1,-2,2,0,-3,3,-2
1511884986930730,-2,0,-3,-3,2,-1,-1,-1
1511884986930730,1,-2,3,3,1,1,-2,-1
1511884986944798,-1,-4,2,2,-3,3,1,-2
1511884986944798,-1,-1,-9,-3,-5,-3,-1,0
1511884986951705,1,1,5,0,-2,0,-2,-3
1511884986951705,0,0,0,3,-1,-3,-2,0
1511884986966836,-2,1,-7,-2,1,-3,0,0
1511884986966836,1,0,1,1,1,1,-5,-1
1511884986974984,1,-1,5,2,4,3,-1,0
1511884986974984,-1,2,0,-5,-1,-1,-1,1
1511884986990059,-1,-2,-1,3,3,-4,-4,0
1511884986990059,-2,3,2,0,3,1,1,-4
1511884986991060,-1,-1,-5,0,1,2,0,-1
1511884986991060,-1,0,1,0,-1,-3,-2,1
1511884987005069,-3,3,-5,-1,-5,3,2,-3
1511884987005069,-2,0,6,2,0,1,1,-1
1511884987012263,-1,0,-10,-3,-2,2,-3,-3
1511884987012263,-3,-5,0,7,0,2,4,-1
1511884987027246,0,1,1,-6,0,2,-1,2
1511884987027246,0,-2,2,-3,-1,2,0,-1
1511884987035148,2,-3,-2,0,0,-1,-2,-1
1511884987035148,-4,-4,-1,-1,4,-1,2,-1
1511884987050354,0,2,3,1,-3,-3,-2,-1
1511884987050354,-2,2,-3,2,-4,3,-1,-1
1511884987051470,-1,-2,1,-4,-4,-1,-1,2
1511884987051470,-1,0,-4,-1,1,-1,0,-2
1511884987064395,3,-4,3,-2,-2,2,2,-2
1511884987064395,-1,1,-4,2,2,1,0,-1
1511884987072588,-2,2,-3,0,-3,-1,2,-3
1511884987072588,0,0,-2,2,-3,-2,-3,-2
1511884987087662,-4,1,-5,-3,-7,-1,0,-1
1511884987087662,-1,-2,-1,-4,2,-1,-3,-2
1511884987094914,0,1,-2,-1,-6,2,-1,2
1511884987094914,2,-2,2,2,2,0,2,-2
1511884987110072,0,0,3,-4,-2,-3,-2,3
1511884987110072,3,0,3,-3,-3,-3,-3,-1
1511884987110899,-2,1,1,-2,2,1,-2,0
1511884987110899,1,2,-3,-1,-2,6,0,-3
1511884987125146,1,-6,3,9,-2,-2,-3,0
1511884987125146,-5,-3,-4,-5,-3,-1,1,0
1511884987132097,-1,0,-4,2,-2,-1,1,-5
1511884987132097,-5,-4,0,-2,-5,-3,0,2
1511884987147262,2,1,-3,-5,1,0,0,1
1511884987147262,-4,-1,0,8,1,-2,0,2
1511884987154451,1,-3,-1,1,0,-1,0,-3
1511884987154451,-3,5,-3,-1,-3,2,-2,-5
1511884987170579,-2,-4,-2,-1,1,-2,-3,0
1511884987170579,0,0,3,1,-2,-1,-3,-3
1511884987171549,0,-2,3,0,0,1,0,-1
1511884987171549,-2,1,-1,3,-2,0,-1,-1
1511884987184497,-3,2,-4,-2,2,0,0,-4
1511884987184497,-2,3,0,-4,-3,1,1,-4
1511884987192661,-1,-5,2,2,3,-2,-4,0
1511884987192661,2,-2,-4,1,-3,2,-1,0
1511884987215579,2,-5,-4,-1,-2,0,3,-1
1511884987215579,3,-2,-3,-4,-2,-3,-2,4
1511884987215579,0,0,-5,-5,-1,-1,2,0
1511884987215579,-4,1,0,-9,1,-2,-1,1
1511884987230621,-2,0,2,9,0,0,2,-2
1511884987230621,0,-1,-2,3,-2,0,-2,0
1511884987230621,2,-1,2,-3,-3,-1,0,1
1511884987230621,0,-3,1,3,-1,-1,-2,1
1511884987244778,-1,8,2,-5,-1,1,-4,-1
1511884987244778,-3,1,1,2,1,2,1,-5
1511884987251888,1,0,-1,1,0,-4,-2,-5
1511884987251888,-3,-2,-3,0,0,2,-3,1
1511884987267000,-3,-2,-1,1,-1,-4,-2,-1
1511884987267000,0,0,0,1,-1,0,1,-1
1511884987275023,-3,-2,-3,-8,-1,0,-3,-1
1511884987275023,1,0,-5,0,-2,0,0,-1
1511884987289969,0,-4,0,1,-1,0,-1,1
1511884987289969,-2,4,2,1,2,-1,-1,-2
1511884987290948,-4,2,3,-2,2,-1,-1,-1
1511884987290948,2,-2,-1,3,6,-1,0,-2
1511884987305061,0,1,0,-5,-3,0,0,-2
1511884987305061,2,0,-1,-2,-4,-4,-1,0
1511884987312263,-2,0,3,1,-4,1,0,1
1511884987312263,-1,1,2,2,4,3,-2,-3
1511884987327342,3,0,-3,-6,1,-2,-1,0
1511884987327342,-5,-2,-3,8,-2,-1,-2,-1
1511884987343352,-2,3,-2,4,-2,0,-2,-2
1511884987343352,-2,0,0,2,-3,-2,-2,-3
1511884987350292,-2,1,-1,3,2,2,2,-4
1511884987350292,1,-4,-5,-11,0,1,-2,3
1511884987351291,-1,1,-3,2,0,1,-3,-1
1511884987351291,-3,-1,1,0,0,1,0,-2
1511884987364494,-2,1,2,3,-2,1,-6,-3
1511884987364494,1,-2,2,6,-2,-4,0,-5
1511884987372661,0,4,-1,-7,-2,2,1,-2
1511884987372661,-3,-3,-1,3,-1,-1,1,-1
1511884987387605,0,-2,-2,-4,11,-1,0,3
1511884987387605,-2,1,1,-1,1,7,1,-2
1511884987394632,1,2,4,3,-2,-7,1,-4
1511884987394632,2,0,-9,-5,-1,-2,0,3
1511884987409797,-3,-1,1,0,-2,1,1,-3
1511884987409797,1,-2,-4,-4,2,-1,-5,-2
1511884987417650,0,-3,1,2,1,0,1,-1
1511884987417650,-1,0,-1,0,-1,0,4,-4
1511884987424669,-3,-2,-1,0,-3,-2,-2,2
1511884987424669,0,1,-1,-2,1,0,1,1
1511884987431687,-4,-4,-4,2,-1,0,-3,-1
1511884987431687,1,0,-1,-7,-1,-2,-2,-1
1511884987446730,3,2,0,2,0,2,-2,1
1511884987446730,1,-2,0,-4,-3,-3,-2,1
1511884987454789,2,-1,-2,-3,1,1,-3,-2
1511884987454789,2,1,5,2,-1,-3,-2,-2
1511884987469834,1,-2,-5,-3,-3,2,-2,-3
1511884987469834,-5,0,-1,-1,0,0,1,0
1511884987477852,1,0,1,-5,-2,-2,-2,1
1511884987477852,2,-2,0,-1,1,1,-3,-3
1511884987484872,2,3,0,-3,-2,-4,-1,-1
1511884987484872,2,-2,1,-2,0,-2,1,-1
1511884987491869,-3,-2,2,10,0,0,-1,3
1511884987491869,-2,1,-2,-2,-4,-1,1,-3
1511884987506884,-3,-4,-5,3,0,0,0,-4
1511884987506884,0,-1,1,-5,-3,3,1,0
1511884987514909,-1,3,-2,6,1,-4,2,1
1511884987514909,-3,1,1,-2,-2,2,-1,1
1511884987530109,-2,-3,-3,2,1,-1,2,-3
1511884987530109,-1,-2,0,-4,0,-2,-2,-2
1511884987538150,0,-1,-4,-3,-2,1,-2,1
1511884987538150,-1,-1,1,1,1,-5,-2,1
1511884987553149,-2,4,1,0,-6,2,3,-1
1511884987553149,-2,-4,-1,3,1,-3,0,0
1511884987553149,-2,0,-2,-2,0,4,-2,1
1511884987553149,0,-3,-2,1,-1,0,-2,-1
1511884987567348,0,-1,0,-2,2,-1,-1,-1
1511884987567348,1,-3,-2,7,-3,1,0,-3
1511884987575441,0,1,-1,-6,1,-1,1,-2
1511884987575441,-1,-4,-3,-3,4,0,2,2
1511884987589554,-1,-1,2,2,-2,-1,-3,-2
1511884987589554,-1,0,-4,2,-1,0,-4,1
1511884987597390,0,1,-1,-3,-1,0,0,0
1511884987597390,0,-3,1,0,-5,-1,2,0
1511884987612638,-3,-3,1,3,1,-3,-2,0
1511884987612638,0,2,-2,-1,5,-1,2,-2
1511884987613464,0,-4,1,0,-3,2,-1,-4
1511884987613464,-4,5,2,4,-1,-2,-2,0
1511884987627526,-3,-1,-4,-2,0,4,-1,3
1511884987627526,1,-2,1,-11,0,-1,-2,0
1511884987635594,-1,-2,-3,2,2,-4,0,-3
1511884987635594,1,-4,1,-1,2,-2,-1,-1
1511884987649612,-1,-1,0,0,-1,2,-3,-1
1511884987649612,-1,1,2,3,0,3,-1,-2
1511884987657629,-1,-2,0,0,-1,0,2,-4
1511884987657629,1,2,-2,-2,-3,-1,0,0
1511884987672803,-1,0,3,-1,2,-2,-3,-2
1511884987672803,-3,-4,-1,-1,3,4,-2,1
1511884987673675,-1,-3,-2,-3,-3,1,-1,1
1511884987673675,-4,0,1,1,2,3,0,-6
1511884987686748,-1,-5,0,16,-1,-3,1,0
1511884987686748,-1,-1,-2,-4,-6,-1,-1,0
1511884987695731,-3,-1,-5,-2,-2,-1,2,-1
1511884987695731,1,0,3,-6,1,2,-2,-1
1511884987709809,2,0,1,-5,-2,-1,-1,0
1511884987709809,2,1,0,2,-3,0,-1,-1
1511884987717792,-3,-3,0,8,1,-1,-1,-3
1511884987717792,-2,1,-1,-1,-3,0,1,0
1511884987741007,-2,0,-3,-3,-1,-2,0,-4
1511884987741007,1,2,1,4,2,0,1,-1
1511884987741855,0,1,3,-8,-2,-3,-3,-2
1511884987741855,1,0,-6,4,-1,-2,-2,-2
1511884987746866,0,0,1,1,0,3,0,1
1511884987746866,-5,1,0,0,-3,-1,1,-1
1511884987755896,1,1,-2,-2,-1,3,-1,-2
1511884987755896,-2,-2,-3,0,3,3,0,-1
1511884987769936,-1,3,-2,-3,-3,-2,-1,-2
1511884987769936,-3,-1,-2,5,0,-3,0,-1
1511884987777993,1,-5,3,0,-1,-1,-4,1
1511884987777993,-5,1,-1,0,-4,2,2,-1
1511884987793032,1,-3,-2,-4,-3,-1,-1,4
1511884987793032,-2,-1,2,-1,-1,1,0,-3
1511884987793996,0,-2,2,3,1,-2,-2,1
1511884987793996,0,1,0,-1,0,-1,-3,-1
1511884987807026,-2,-1,-2,4,0,1,-1,2
1511884987807026,0,0,2,-3,0,-1,-1,-2
1511884987815074,1,0,-4,1,-1,3,0,2
1511884987815074,1,-3,-2,0,-4,0,-1,-1
1511884987829430,-2,0,9,5,3,-1,0,-3
1511884987829430,-1,0,-2,-8,2,2,-3,1
1511884987838296,1,-1,2,6,-1,0,-1,-5
1511884987838296,0,-2,-2,12,2,0,-1,-1
1511884987852411,-1,2,2,-10,-1,-1,0,-2
1511884987852411,-4,0,-4,5,-3,2,-1,-1
1511884987853340,-3,1,-2,-5,2,2,0,0
1511884987853340,2,-6,-4,-1,0,-1,-1,1
1511884987867433,1,3,-2,4,2,-1,-2,-1
1511884987867433,-2,-2,1,2,-1,0,1,-1
1511884987875469,-5,1,-4,-2,-2,-4,-3,-2
1511884987875469,-1,0,2,0,2,1,-1,0
1511884987889690,-3,-1,-1,-3,-3,1,0,-4
1511884987889690,-2,-1,-3,-1,-4,-2,-2,2
1511884987897544,-1,-3,3,3,1,3,1,1
1511884987897544,-3,2,2,-4,1,2,0,-1
1511884987912661,1,-3,-8,-2,-2,5,3,-1
1511884987912661,1,0,1,1,3,-4,0,0
1511884987913568,-1,-4,0,-3,2,-2,2,-1
1511884987913568,-2,2,-1,-5,-2,0,0,-2
1511884987926720,-1,-4,0,2,1,-1,-1,0
1511884987926720,-2,2,-6,-3,-2,1,-1,0
1511884987935745,-3,3,3,11,1,3,-1,-1
1511884987935745,0,1,-2,-1,0,-3,-2,1
1511884987949835,-1,-2,-1,4,0,0,2,-2
1511884987949835,4,-1,-3,-1,1,0,-1,1
1511884987957965,-2,0,2,-4,-3,1,-2,-2
1511884987957965,0,2,4,1,-3,-1,0,-2
1511884987973075,2,2,2,3,-3,-1,-1,-2
1511884987973075,0,-2,-1,-1,1,-3,-2,-2
1511884987973895,-1,-1,-7,-4,-3,-3,1,1
1511884987973895,2,-2,5,-4,1,1,-2,-2
1511884987986961,0,-6,-5,-3,-3,1,1,-1
1511884987986961,0,-4,-2,-3,0,0,-2,2
1511884987995075,1,0,-4,1,1,-4,-1,0
1511884987995075,-6,-2,-1,1,-4,-1,2,-1
1511884988010077,1,0,-2,-3,-5,-5,-4,2
1511884988010077,-3,0,1,1,-1,0,2,-5
1511884988018054,0,-1,1,-1,4,3,-4,-3
1511884988018054,1,-4,-1,-1,1,-2,-3,1
1511884988033055,2,3,5,-1,1,4,0,-1
1511884988033055,0,0,-3,-2,-1,-2,1,-1
1511884988034127,-1,2,-5,6,1,2,-2,0
1511884988034127,-1,-3,-1,5,-3,-4,2,-2
1511884988047148,-1,-1,0,-5,5,1,2,-2
1511884988047148,0,-2,0,-8,2,-2,-2,-1
1511884988055400,-2,0,1,8,-5,0,-2,0
1511884988055400,0,3,1,-2,4,1,0,-2
1511884988069433,1,-3,1,5,-1,1,-2,-5
1511884988069433,-4,2,0,0,0,0,-4,-1
1511884988077674,4,-1,-8,-8,-1,-2,0,1
1511884988077674,-2,-3,2,4,-3,-3,-1,1
1511884988092539,-5,-1,2,-1,-1,-1,-2,0
1511884988092539,0,-2,4,5,1,5,2,-1
1511884988093542,0,-1,2,-4,-1,-1,-2,1
1511884988093542,2,1,-5,-1,0,-2,-2,-3
1511884988106580,-2,1,-7,2,0,-1,3,0
1511884988106580,3,-1,2,-1,-8,-2,-3,-2
1511884988115603,2,-3,0,-2,-2,0,-1,1
1511884988115603,-2,0,0,-2,2,4,0,-1
1511884988129639,-3,-1,0,-2,3,-4,-2,-1
1511884988129639,-2,-3,0,2,-2,-4,-1,-3
1511884988137783,0,3,1,-9,-3,1,-2,-1
1511884988137783,0,-3,0,3,-2,0,-1,0
1511884988152705,1,2,1,3,2,4,-2,-2
1511884988152705,-2,-2,-8,-4,-2,0,-1,2
1511884988160781,0,0,0,-4,0,-3,-2,-2
1511884988160781,-1,-1,-1,-2,2,1,0,0
1511884988167748,0,-2,3,-1,0,0,-2,-1
1511884988167748,-1,-2,-4,2,0,4,-2,-2
1511884988174765,-3,1,-1,6,-3,-3,1,-1
1511884988174765,0,-4,-2,-6,-3,0,0,1
1511884988189894,-1,-3,-3,4,-2,-2,-3,1
1511884988189894,1,2,2,-2,2,1,-1,-1
1511884988197918,-2,0,0,-1,1,-4,2,-3
1511884988197918,-4,1,0,1,0,0,1,-2
1511884988213107,-4,0,-7,-4,-3,-1,2,1
1511884988213107,2,0,-2,1,-3,-3,-3,0
1511884988213107,-1,-3,-2,2,3,1,-3,-1
1511884988213107,1,0,-2,-1,0,-2,-3,-1
1511884988227264,-2,-5,-4,-10,1,1,-1,-1
1511884988227264,-2,3,7,10,3,1,1,-1
1511884988234209,-5,-1,-7,3,1,4,2,-2
1511884988234209,-1,0,2,-4,-1,2,-2,-1
1511884988249199,0,-6,1,0,-2,2,-1,-2
1511884988249199,-1,-4,3,3,0,-2,1,0
1511884988258281,-2,1,-3,-7,-1,-2,-1,0
1511884988258281,2,2,2,7,-2,0,-1,-2
1511884988273347,-5,0,0,-14,0,3,-5,-1
1511884988273347,1,-2,0,6,0,1,0,-3
1511884988273347,2,-1,-2,-13,-4,-3,1,0
1511884988273347,-7,-2,1,5,-1,1,-1,2
1511884988287613,3,3,2,2,0,-2,1,0
1511884988287613,-3,-2,-5,-3,5,3,-1,-1
1511884988294628,-1,-5,0,3,2,-3,1,2
1511884988294628,0,1,-1,-5,2,1,-4,-2
1511884988309579,-1,-1,-3,1,-5,-3,0,-2
1511884988309579,-3,0,-2,-3,-2,0,2,-1
1511884988317499,-1,-5,1,2,-2,0,-1,-2
1511884988317499,-2,1,-4,-4,-4,-3,1,0
1511884988331717,-1,-1,-2,3,0,2,2,2
1511884988331717,-2,-2,-5,0,-1,-1,-3,0
1511884988340786,1,1,2,0,-1,0,1,-1
1511884988340786,2,-1,1,-4,3,-1,-1,-5
1511884988346718,-3,1,2,2,2,-3,-1,-3
1511884988346718,0,-1,-5,5,0,-1,3,-2
1511884988354740,2,0,3,4,2,0,1,-2
1511884988354740,-2,-1,-6,-3,0,2,-1,1
1511884988369794,4,3,3,4,2,-2,1,-3
1511884988369794,-5,0,-8,-5,-5,0,-2,-1
1511884988377901,0,-2,7,4,0,-1,-4,-1
1511884988377901,1,1,1,10,-1,-3,1,-2
1511884988391918,-1,-5,-2,2,-2,-1,0,0
1511884988391918,-1,1,7,-4,-2,0,-3,-4
1511884988400001,-1,0,-6,5,-4,1,-4,1
1511884988400001,-2,-5,0,-16,1,-1,-1,2
1511884988406990,-1,-3,0,3,0,0,-2,3
1511884988406990,2,0,-2,0,0,-1,2,1
1511884988415014,-2,0,-3,0,3,0,-3,1
1511884988415014,-2,3,0,7,1,2,-2,-6
1511884988430093,-2,-1,0,-12,-4,0,-3,-1
1511884988430093,1,2,1,4,1,2,0,0
1511884988438118,-1,-3,1,4,0,3,-2,-4
1511884988438118,4,-1,-4,-11,-2,-1,-2,1
1511884988452233,3,4,1,20,-1,-4,1,1
1511884988452233,-1,-1,3,-5,2,1,1,-1
1511884988460243,-2,-2,-6,-7,-2,-4,3,-3
1511884988460243,1,-2,5,12,-1,-2,1,4
1511884988475358,1,-3,-2,-7,-2,3,1,-3
1511884988475358,0,1,1,6,-3,-2,-1,-2
1511884988476174,-2,2,-1,-19,0,0,-2,-1
1511884988476174,-2,0,-1,21,1,0,-1,-3
1511884988489483,-1,-1,0,-3,1,0,1,0
1511884988489483,0,-3,-3,2,1,-2,-3,2
1511884988497693,-1,-1,0,-7,5,0,-1,0
1511884988497693,0,-1,0,3,-2,0,-2,0
1511884988511834,-2,-3,0,2,1,2,0,0
1511884988511834,1,2,-1,-3,-2,0,0,-2
1511884988519927,-1,3,-3,5,-2,-1,0,0
1511884988519927,3,-6,-3,-9,0,-6,1,-5
1511884988535014,-9,2,-6,10,-2,-2,2,-1
1511884988535014,-2,-3,1,-6,-2,-2,-2,-1
1511884988536017,-3,-1,-2,1,-6,-5,2,2
1511884988536017,-1,0,-1,-11,1,-1,-1,-1
1511884988550079,4,-2,-4,6,0,1,-3,2
1511884988550079,-2,-1,1,-6,-1,1,0,-2
1511884988558075,-8,-3,1,-4,0,1,-1,-2
1511884988558075,-1,-2,-3,3,0,-1,1,0
1511884988572112,0,1,-2,-11,4,2,-3,0
1511884988572112,-3,-2,0,2,3,0,-5,1
1511884988580135,3,-2,2,2,-1,2,0,-1
1511884988580135,-2,1,-1,-11,1,3,-2,2
1511884988595459,-3,-2,2,-2,-3,-1,0,-1
1511884988595459,-2,0,2,4,-2,-2,0,0
1511884988596311,2,0,-3,0,-2,2,0,-2
1511884988596311,-6,-1,-1,1,0,-2,2,-2
1511884988609457,2,2,-2,0,-2,-1,1,0
1511884988609457,1,0,-2,1,2,-1,-1,-3
1511884988617462,0,-1,-1,-1,-1,-2,-2,2
1511884988617462,-3,-1,-4,4,0,4,2,0
1511884988632563,2,0,0,1,1,-3,-3,-3
1511884988632563,-1,0,-1,-5,0,0,-2,-2
1511884988640601,-1,2,0,-1,0,1,-2,-4
1511884988640601,5,-2,1,2,2,-1,-2,3
1511884988655617,-6,1,-4,-5,-1,-1,0,-3
1511884988655617,-3,-2,-6,0,-2,-2,-2,1
1511884988655617,1,-2,1,0,-1,0,0,-1
1511884988655617,0,2,-2,1,1,-1,-4,-2
1511884988669702,5,0,1,-1,0,4,-2,0
1511884988669702,-6,0,1,1,3,-3,-2,-4
1511884988677722,0,0,-3,3,0,0,0,0
1511884988677722,-1,-1,-1,-7,-4,0,0,-2
1511884988691737,0,0,-1,3,-1,-1,1,0
1511884988691737,3,1,0,-3,-2,2,-1,-2
1511884988700737,0,0,3,3,-2,-3,0,0
1511884988700737,-3,-1,-1,6,-1,-1,-1,0
1511884988714950,-1,-3,4,-3,-2,-1,-2,-4
1511884988714950,-3,-3,-2,1,-3,1,1,0
1511884988715929,-1,0,3,0,0,-3,1,-2
1511884988715929,-2,-2,-4,-2,0,3,-1,-2
1511884988729939,-2,1,-2,4,-2,2,-3,0
1511884988729939,-2,-1,-4,-1,0,-3,0,-1
1511884988738146,2,-2,-2,-1,-2,1,-5,-1
1511884988738146,3,-3,-1,6,-3,-4,-4,-1
1511884988752000,-4,0,0,0,-2,-1,3,-3
1511884988752000,-3,3,-5,1,-1,-2,2,0
1511884988760021,-5,3,0,-2,0,-4,-2,-1
1511884988760021,-2,-1,-2,-1,-1,1,-3,-3
1511884988775062,-6,-2,-2,-1,3,-2,2,-3
1511884988775062,3,-2,6,0,-1,-1,-2,2
1511884988776061,-2,1,-8,3,2,0,3,-4
1511884988776061,-2,-1,-2,0,-2,1,-1,0
1511884988789427,3,-2,2,3,0,-4,-3,2
1511884988789427,-1,-1,-2,-5,-1,-1,2,-1
1511884988797461,0,-4,2,1,0,3,-1,0
1511884988797461,1,1,3,0,2,0,1,-3
1511884988812498,-4,-1,-4,1,2,1,-2,-5
1511884988812498,3,-3,-4,4,-1,1,-3,0
1511884988820632,-2,-3,3,2,1,3,-5,1
1511884988820632,-2,1,-2,-2,1,-2,-1,-1
1511884988835561,0,3,-5,-2,-2,0,-1,0
1511884988835561,0,-5,-3,-2,-2,0,0,-1
1511884988836561,6,-1,0,0,-5,-1,-2,1
1511884988836561,1,1,4,-2,-2,-3,4,-1
1511884988849634,-3,-1,-6,-2,0,2,-4,-2
1511884988849634,0,1,0,-2,-2,-1,-1,0
1511884988857620,0,-2,-5,3,1,1,0,-2
1511884988857620,-2,0,-3,0,1,-2,-4,-2
1511884988872686,-2,-1,3,-3,-2,-2,-1,-1
1511884988872686,-5,0,0,5,-4,3,0,-4
1511884988880678,-2,-2,0,2,2,-3,-4,-1
1511884988880678,-7,-3,-3,-1,-1,1,0,-2
1511884988895845,0,0,3,-1,-2,1,-6,-1
1511884988895845,3,1,1,-6,-2,-2,1,1
1511884988895845,4,0,-2,-3,1,-3,3,2
1511884988895845,4,0,-1,-2,-1,-3,2,6
1511884988910172,0,1,-2,-3,-1,-4,-1,1
1511884988910172,0,0,2,3,-2,0,-3,1
1511884988918216,2,3,0,-4,-3,-3,1,1
1511884988918216,-6,-4,-4,-6,2,-1,0,-1
1511884988932231,3,-5,0,-1,-7,3,2,-2
1511884988932231,7,-1,2,3,2,0,-1,-1
1511884988940421,-19,-3,3,-1,-3,1,-2,-4
1511884988940421,0,2,1,-1,-2,0,-1,0
1511884988955613,0,-1,-2,-1,1,-2,0,3
1511884988955613,-3,0,-1,-6,2,0,1,1
1511884988956584,1,-1,-1,-5,2,1,-3,6
1511884988956584,2,-2,2,-1,-2,2,7,2
1511884988969651,-2,-4,-1,3,1,-1,0,5
1511884988969651,4,3,-3,2,2,-2,-4,4
1511884988977590,-4,0,-3,1,-2,-1,-2,-5
1511884988977590,-2,-2,0,-5,-2,-6,-2,0
1511884988992554,6,-3,-4,-4,3,0,2,2
1511884988992554,-2,-1,-5,-2,-3,-3,3,0
1511884989000555,4,2,-2,0,-4,-1,-2,0
1511884989000555,1,1,-3,-1,1,-2,-2,-3
1511884989015741,-2,1,0,-3,-1,-3,0,-3
1511884989015741,-3,-4,0,-4,1,2,-2,1
1511884989015741,4,-1,0,-1,0,1,6,4
1511884989015741,-5,1,-4,-4,-3,-2,-6,0
1511884989029776,4,2,6,5,-1,1,0,-2
1511884989029776,1,-3,-2,2,1,-3,5,-1
1511884989037801,-1,2,0,0,-1,0,-3,-3
1511884989037801,3,-3,-3,1,2,-1,1,-2
1511884989052035,-3,-3,4,-2,-1,-4,2,0
1511884989052035,-2,-1,-1,0,-4,-2,-3,0
1511884989060360,4,0,0,-1,2,-2,1,-2
1511884989060360,0,0,-4,-2,2,3,-1,2
1511884989075388,-4,0,-3,0,0,0,-3,-1
1511884989075388,3,-1,3,1,1,-2,0,-1
1511884989076207,-1,-5,3,-4,0,0,3,-3
1511884989076207,2,0,-2,-1,0,2,-3,0
1511884989089244,-1,-4,-6,4,-2,1,-1,-3
1511884989089244,-2,2,2,-1,1,1,-2,0
1511884989098325,2,0,-2,1,2,4,-2,2
1511884989098325,1,0,3,-1,-2,1,-1,-6
1511884989112407,-2,0,-3,-3,0,1,0,-3
1511884989112407,1,-2,2,-1,-2,-2,-2,0
1511884989120326,-2,1,-3,-1,-1,-2,-2,-4
1511884989120326,0,-4,-4,0,0,-3,0,0
1511884989135610,1,2,3,1,1,2,-1,1
1511884989135610,-4,-1,-3,0,-2,2,-1,-6
1511884989136525,-3,-1,2,2,-4,2,-1,-1
1511884989136525,-1,5,1,1,-3,-3,0,-3
1511884989149541,-1,1,-1,-4,0,-1,-1,-5
1511884989149541,-2,-1,-5,-1,0,2,-2,0
1511884989157725,-3,-2,1,7,-2,-1,-1,2
1511884989157725,-2,0,2,-1,-1,-2,-3,-2
1511884989172633,2,-6,-2,-5,2,1,2,0
1511884989172633,-4,1,3,0,2,-1,-1,-4
1511884989180625,1,-6,-4,1,-1,0,-4,-5
1511884989180625,0,-3,-3,-2,-2,-1,0,0
1511884989195727,-2,-1,1,3,-5,-2,-1,-2
1511884989195727,1,-2,-1,0,1,-5,0,1
1511884989195727,0,2,0,-4,-1,-1,-2,2
1511884989195727,-1,0,1,3,1,-3,2,0
1511884989209855,2,0,-3,7,0,2,-1,-3
1511884989209855,4,0,-1,-8,3,1,0,-1
1511884989225831,0,4,-1,2,-2,-2,0,3
1511884989225831,1,-1,0,-5,-2,0,0,1
1511884989231821,-1,0,7,-4,0,-2,0,4
1511884989231821,-2,-1,0,2,-6,1,0,1
1511884989240981,-1,0,-4,-3,1,-2,0,0
1511884989240981,-3,-4,4,3,0,1,-4,-2
1511884989254288,-1,1,-1,-3,-4,-2,0,4
1511884989254288,-2,0,1,0,-3,2,-3,-7
1511884989272310,0,-2,-2,-5,0,-1,1,0
1511884989272310,-1,-1,-3,-3,1,0,0,0
1511884989272310,1,0,-5,4,1,-3,0,0
1511884989272310,2,-2,2,1,-3,-3,-2,-1
1511884989284260,1,-1,2,-1,-2,-3,4,-3
1511884989284260,0,2,-3,0,-1,0,0,1
1511884989292457,2,0,2,1,-1,2,-5,-1
1511884989292457,2,1,-2,-13,-3,-2,3,-1
1511884989301302,-1,-1,2,3,0,1,-2,-1
1511884989301302,-2,-1,-3,4,3,1,0,-1
1511884989314361,-4,-2,-5,-4,0,2,-4,-6
1511884989314361,-3,-2,1,-2,-1,-1,-3,1
1511884989323360,2,-1,-3,3,1,-1,-1,-2
1511884989323360,0,2,-2,1,0,-2,-1,-2
1511884989329377,2,-1,1,-4,1,-1,1,4
1511884989329377,-2,-1,-5,0,1,0,-1,-2
1511884989346421,-6,2,-1,-3,-1,-2,0,0
1511884989346421,-2,0,2,-5,-1,-1,2,0
1511884989352439,4,0,-4,7,2,-2,-3,-4
1511884989352439,-3,-4,-3,2,3,3,0,-3
1511884989361462,1,1,-2,0,0,-3,0,2
1511884989361462,0,1,2,-2,-3,3,1,0
1511884989374500,-6,0,-1,0,-4,-2,0,-3
1511884989374500,-1,-3,4,7,-1,-1,-1,0
1511884989383520,1,0,-5,6,0,3,-1,-1
1511884989383520,0,1,-1,14,-1,-1,-2,-3
1511884989397558,-3,1,1,-10,-1,-1,-3,-4
1511884989397558,0,1,-7,6,-1,-3,0,3
1511884989406585,-1,-6,6,-7,-5,1,0,-2
1511884989406585,0,-4,4,6,-1,-5,0,-2
1511884989411674,-1,-2,-4,6,0,1,0,1
1511884989411674,-2,4,3,-22,0,0,-4,-2
1511884989420770,-1,-1,-2,25,3,0,-5,-1
1511884989420770,0,-4,-3,-12,-3,0,0,-1
1511884989434710,0,1,0,-4,1,-1,-2,3
1511884989434710,1,-3,-4,-3,-2,-3,0,-1
1511884989443682,-3,-2,-2,-6,1,-2,-2,-4
1511884989443682,-2,1,2,-5,-2,3,-2,-1
1511884989456715,-3,-3,0,3,-1,-2,0,1
1511884989456715,-4,-1,0,-2,-1,1,0,0
1511884989465746,1,0,1,-3,0,1,0,0
1511884989465746,1,-4,0,4,1,-1,-3,-5
1511884989471937,-3,1,-1,1,-4,0,-1,-2
1511884989471937,2,-1,0,-2,-2,0,-2,1
1511884989480922,1,2,1,2,-1,-1,-2,-1
1511884989480922,-3,-1,-4,9,-1,1,-2,-2
1511884989494959,0,-3,-1,-1,-1,-1,2,-4
1511884989494959,1,0,-3,0,0,-2,-3,-1
1511884989503145,0,-1,-2,0,-4,2,-2,0
1511884989503145,-3,0,0,-4,0,3,1,0
1511884989517140,-1,0,4,2,0,-4,0,0
1511884989517140,0,-4,-1,4,-1,-2,-1,-3
1511884989526185,1,1,-1,-9,-2,-1,-1,-1
1511884989526185,1,1,-3,2,-1,-1,-3,3
1511884989532225,-2,-1,2,-1,-2,3,0,-1
1511884989532225,-3,-2,3,2,1,0,2,-1
1511884989541202,0,0,-4,-2,0,0,0,-1
1511884989541202,-2,-3,2,-2,0,-3,-4,-1
1511884989554520,0,-1,-4,-1,4,1,-1,-2
1511884989554520,-1,0,3,8,0,-3,-1,-2
1511884989563418,-2,-4,-4,-3,-1,-2,1,-1
1511884989563418,2,2,3,-5,-3,-5,1,-1
1511884989577608,0,-1,2,-4,-4,0,2,-4
1511884989577608,0,-1,-3,16,-1,-2,0,3
1511884989586561,-3,-2,3,-9,3,2,-3,1
1511884989586561,-4,-3,-3,-6,-6,-2,1,0
1511884989591517,0,1,-5,-8,1,-4,-2,-2
1511884989591517,4,0,-1,-4,1,1,0,-1
1511884989600751,1,1,2,-1,-5,-2,4,-1
1511884989600751,-2,0,-4,2,1,2,-1,0
1511884989614970,-4,-2,-3,6,2,0,-4,-2
1511884989614970,-2,-1,-3,1,-1,3,0,0
1511884989623863,-1,-1,-1,-2,-5,-3,0,0
1511884989623863,1,-2,0,3,-4,-2,0,-2
1511884989636995,-1,-4,0,-4,-4,-1,2,0
1511884989636995,-2,4,-1,5,1,2,1,-3
1511884989645926,-2,-2,-4,-4,0,-1,-3,-2
1511884989645926,-2,0,0,2,9,1,1,0
1511884989651983,2,0,-2,6,-4,0,-2,0
1511884989651983,0,-1,4,-7,-3,0,-2,-1
1511884989660963,1,-1,-1,-2,1,-2,2,0
1511884989660963,1,0,-2,0,-3,-1,0,-1
1511884989675027,0,-3,-6,1,3,0,0,-3
1511884989675027,-3,0,-4,1,0,-1,-3,-2
1511884989684028,2,-1,-4,-2,-1,2,-3,-2
1511884989684028,-1,-2,1,-5,-1,2,1,-2
1511884989697059,-5,0,-2,1,-1,3,-3,1
1511884989697059,-2,-1,0,0,0,-1,0,-2
1511884989706083,-3,-2,-1,2,4,0,1,-3
1511884989706083,1,0,-3,3,3,3,-2,-3
1511884989712130,1,1,4,2,-4,0,2,3
1511884989712130,-1,-1,-2,9,-1,0,-2,2
1511884989721276,-5,2,1,-4,1,-2,0,1
1511884989721276,1,-3,0,-3,-5,0,-1,1
1511884989734465,-2,-1,0,-4,-4,-2,-4,-2
1511884989734465,1,0,0,3,-5,-1,0,1
1511884989743371,-4,0,-2,-3,-3,0,2,0
1511884989743371,-1,1,-2,-2,0,-5,-5,-1
1511884989757491,-5,0,1,-1,2,0,-1,-1
1511884989757491,0,-2,-2,-1,1,-1,-1,0
1511884989766433,-1,0,0,2,-1,-1,0,-3
1511884989766433,-4,-2,3,1,1,2,-2,-1
1511884989772448,-1,2,-1,-1,0,2,0,-2
1511884989772448,-2,-2,0,-6,2,-2,-2,-3
1511884989781473,0,0,1,2,-2,-1,-1,-1
1511884989781473,-4,-2,-4,-2,2,-3,0,-3
1511884989794733,-1,1,-3,-3,0,-3,0,-1
1511884989794733,-1,-1,-2,-4,0,4,-2,0
1511884989803769,0,0,-3,0,1,-2,0,0
1511884989803769,-1,-3,1,-1,-3,0,0,-1
1511884989816830,1,-2,-2,-1,0,1,0,1
1511884989816830,-2,-2,-4,-2,-3,2,0,0
1511884989825828,-3,1,-2,3,4,5,-3,0
1511884989825828,-3,3,-4,-1,-2,-5,-1,1
1511884989832003,-1,-3,-1,2,4,-2,-2,0
1511884989832003,-1,0,1,-3,-3,-5,-1,-1
1511884989841147,-2,0,-1,-1,-1,-1,2,0
1511884989841147,-1,-4,0,3,2,1,-3,0
1511884989854185,1,1,-5,-5,-4,-2,-2,2
1511884989854185,-1,-3,-4,0,3,-3,-3,-2
1511884989863210,1,1,0,6,0,2,-1,-1
1511884989863210,3,2,-3,-1,-5,0,0,0
1511884989877351,1,-4,0,-1,0,-4,0,0
1511884989877351,2,-1,-1,-6,-2,3,2,-3
1511884989886266,2,-4,4,-3,-6,-7,1,0
1511884989886266,2,2,-1,2,0,4,-3,1
1511884989892633,5,-3,5,2,-3,3,-1,-1
1511884989892633,-2,2,0,1,1,2,2,0
1511884989900499,2,-1,3,2,0,-2,-2,-1
1511884989900499,-3,-1,-5,-4,-2,0,0,-1
1511884989914648,0,0,-3,6,1,-1,2,1
1511884989914648,-3,-1,2,-6,-3,-2,1,1
1511884989923563,-5,-3,-3,0,2,2,-2,-3
1511884989923563,-1,1,2,-2,-4,-1,0,-2
1511884989936634,-3,-3,-4,-2,-2,1,-2,-3
1511884989936634,1,1,1,2,0,-4,-2,0
1511884989945655,-1,1,-2,1,0,-1,-1,0
1511884989945655,0,3,0,-1,1,-1,0,-2
1511884989951639,-1,1,3,-3,-4,-2,-1,-1
1511884989951639,-2,0,-2,1,1,0,1,-2
1511884989960661,0,0,-3,0,-2,2,-2,-2
1511884989960661,-1,-3,2,-1,-2,1,-2,-1
1511884989974703,-1,0,-3,2,-2,0,-1,-3
1511884989974703,0,1,1,-6,-1,-1,-2,-1
1511884989983719,-1,0,-2,-4,-7,-3,0,2
1511884989983719,0,-2,3,1,0,2,-1,0
1511884989996874,-1,3,-3,-3,-3,-2,1,1
1511884989996874,-2,-1,-1,1,-5,0,-2,-1
1511884990005802,-3,-3,-4,2,0,0,0,0
1511884990005802,-1,2,1,-4,-2,-3,2,0
1511884990011930,-2,1,3,2,4,2,1,-2
1511884990011930,-2,-3,-1,-4,1,1,0,-1
1511884990020844,-5,-3,3,0,-5,-2,1,-1
1511884990020844,-2,-3,-1,0,1,1,0,-4
1511884990034900,-1,2,-2,5,1,0,2,-1
1511884990034900,1,-1,0,0,2,3,-3,-1
1511884990043995,2,-7,-5,-2,2,-1,-1,-3
1511884990043995,-2,0,1,2,-1,-2,0,-2
1511884990057003,0,0,-2,1,-1,4,-4,-2
1511884990057003,-2,1,4,-1,-5,-2,-2,-2
1511884990066027,1,-2,-2,-1,0,-2,-2,-1
1511884990066027,0,-2,-4,-3,1,-2,-2,-3
1511884990072046,-3,0,0,-8,0,-1,-4,0
1511884990072046,-1,-2,-6,3,-1,-1,0,0
1511884990081067,2,3,3,-2,-1,0,0,-2
1511884990081067,2,-1,0,-1,-1,0,1,0
1511884990094352,-2,-2,-3,-7,1,-4,0,0
1511884990094352,-1,-1,-2,-1,-1,0,1,-2
1511884990103288,-3,2,1,1,0,0,0,-2
1511884990103288,-1,-1,-2,-2,0,0,-1,0
1511884990117304,-2,-4,-2,1,0,3,-2,-2
1511884990117304,-1,0,-2,3,-2,-1,1,-2
1511884990126325,-2,-1,0,0,-3,-2,-1,0
1511884990126325,0,1,-2,4,0,-3,-3,0
1511884990132481,0,-2,2,0,-3,1,-3,-1
1511884990132481,-4,-1,-3,-1,-5,0,0,-1
1511884990141502,-1,-3,-3,0,6,4,2,-1
1511884990141502,0,-3,2,1,0,-3,-1,1
1511884990154539,1,1,-2,-1,-1,-4,-1,-1
1511884990154539,3,-4,-5,-1,-4,-2,-1,2
1511884990163567,0,-1,0,1,-3,-2,1,0
1511884990163567,-2,3,-3,-2,1,-4,-3,-1
1511884990177602,0,-1,-1,-5,0,0,-2,-3
1511884990177602,-1,-1,-2,-1,1,1,1,0
1511884990185685,-1,-2,3,3,-1,-1,-3,0
1511884990185685,1,-4,-1,-5,0,1,2,-2
1511884990191869,-2,0,3,5,1,0,0,0
1511884990191869,-2,-2,-1,-1,0,0,-2,-1
1511884990200848,-1,3,0,-4,-1,2,-4,-1
1511884990200848,-1,-5,-6,2,-3,2,-2,0
1511884990215036,-4,-1,1,-4,-5,-4,0,1
1511884990215036,2,-3,0,1,2,0,-2,-2
1511884990224051,-3,1,-2,-2,0,-1,2,-2
1511884990224051,0,1,0,0,1,-2,0,-2
1511884990237206,-1,-2,-1,-3,-1,-1,0,2
1511884990237206,1,1,-1,-1,0,-3,-1,-2
1511884990246109,1,-2,2,-4,-4,0,-1,1
1511884990246109,-3,1,-4,2,1,-3,-2,-2
1511884990252249,-1,-3,-1,5,4,0,-3,0
1511884990252249,0,-1,-2,-1,-2,-1,-1,1
1511884990261364,2,-1,2,1,-1,1,0,-3
1511884990261364,2,-3,-1,-4,-2,3,-1,-2
1511884990274523,0,-4,-2,3,-1,3,-1,-1
1511884990274523,1,3,1,-1,-1,-3,0,1
1511884990283385,-4,-1,-1,-1,1,-3,-2,0
1511884990283385,-2,2,-3,-1,-3,-3,-1,2
1511884990297596,1,2,1,-2,-3,0,-1,-1
1511884990297596,1,0,1,-3,0,2,-3,-2
1511884990305684,1,0,-3,-1,-3,2,-2,-2
1511884990305684,-2,-2,1,2,-1,4,1,1
1511884990312739,-1,0,-1,-2,1,-4,1,0
1511884990312739,-4,4,5,0,0,0,2,-2
1511884990320760,-2,-4,-4,2,0,-1,0,-1
1511884990320760,2,3,2,-3,0,2,0,-3
1511884990334762,-1,-3,-5,3,-2,2,-1,-2
1511884990334762,-1,-5,-4,2,-2,-1,2,-2
1511884990343809,-2,-2,1,-3,-3,-3,-1,0
1511884990343809,1,0,0,0,1,-3,1,3
1511884990356822,2,-1,-2,-2,-1,-1,3,-2
1511884990356822,-2,-4,2,-1,1,-1,-2,-1
1511884990365865,1,4,-1,3,1,3,1,-3
1511884990365865,0,-2,-2,0,-1,1,3,-3
1511884990380886,-3,0,2,4,0,-1,-3,-1
1511884990380886,-1,1,-2,0,0,0,-3,1
1511884990382912,2,0,-3,-3,1,-2,-2,-2
1511884990382912,-4,-2,-1,3,-1,0,0,2
1511884990394944,-1,-2,0,-3,-1,-2,0,0
1511884990394944,0,-4,-4,-2,-3,0,0,0
1511884990403945,-2,-1,-3,2,-2,0,0,0
1511884990403945,1,-1,-1,-1,-4,-3,0,-4
1511884990417036,1,-2,0,-3,-3,1,-1,-1
1511884990417036,-2,0,-1,0,1,1,0,0
1511884990426005,-3,-1,2,-4,-6,1,-3,-1
1511884990426005,-1,-1,1,-1,1,-3,-5,-1
1511884990441048,0,0,1,3,0,0,-2,-1
1511884990441048,-2,0,-2,-1,-1,-4,-4,-5
1511884990442044,-1,-2,-3,0,-2,-1,2,-1
1511884990442044,1,0,1,-1,-3,-1,-1,-1
1511884990455103,-4,-1,-3,0,-2,0,1,0
1511884990455103,-1,1,3,-2,-2,0,0,-1
1511884990463101,-1,3,-2,1,0,-3,-3,2
1511884990463101,0,0,-2,-1,-3,-2,1,1
1511884990477179,-2,-2,0,-1,2,-2,0,-2
1511884990477179,1,-2,1,-5,0,3,1,1
