timestamp,emg1,emg2,emg3,emg4,emg5,emg6,emg7,emg8
1511884322354016,-3,-1,-2,2,2,-1,-10,-7
1511884322354016,-4,-2,1,0,-2,1,3,-3
1511884322361034,-1,-1,-1,0,-2,-3,-1,2
1511884322361034,-2,0,0,0,0,0,1,-2
1511884322377236,0,-1,1,-1,-1,2,5,3
1511884322377236,3,1,1,0,0,3,2,6
1511884322384095,-1,-3,-1,0,-2,0,-2,-1
1511884322384095,-1,0,-1,-1,-1,2,7,2
1511884322400136,1,1,1,0,2,-5,-14,-5
1511884322400136,-3,-1,2,1,1,-2,-6,-10
1511884322401140,2,1,2,-1,0,-2,-2,-2
1511884322401140,0,0,-2,-3,0,-5,-5,3
1511884322414201,-1,-1,-2,-2,0,-1,1,2
1511884322414201,-1,-1,-2,-3,1,-1,4,0
1511884322421192,-6,-2,0,0,-2,-2,-2,-4
1511884322421192,3,-1,1,1,-3,1,-2,-1
1511884322437266,2,1,1,-1,-3,2,5,3
1511884322437266,-3,-1,0,2,-2,-1,0,0
1511884322443277,-1,1,0,-3,0,-1,-2,0
1511884322443277,-2,0,-3,-1,0,-1,-6,-1
1511884322460300,1,0,-3,2,0,2,3,0
1511884322460300,-3,-2,-1,0,1,1,4,-3
1511884322461303,-1,-2,-1,-4,-1,-1,-11,-1
1511884322461303,-3,-1,1,-1,-3,-4,-7,-11
1511884322474338,1,-1,1,-2,0,-2,3,1
1511884322474338,8,0,0,0,-2,0,4,12
1511884322481364,-1,0,0,1,1,-1,-4,-2
1511884322481364,-1,-3,-1,0,0,-2,-1,-3
1511884322496421,-1,-1,0,3,1,1,9,1
1511884322496421,-6,-1,-2,-1,-1,-3,-14,-2
1511884322503440,-5,0,-1,-1,-4,-4,-7,-7
1511884322503440,-3,-3,-1,-3,-3,-1,-1,0
1511884322519457,2,0,-2,-3,0,2,5,3
1511884322519457,1,-1,-1,-2,0,0,2,-1
1511884322521463,4,1,0,-1,2,2,10,4
1511884322521463,-3,-1,-1,1,-2,-3,-7,-3
1511884322534500,-3,-1,-2,0,-2,-5,-6,-4
1511884322534500,1,-2,-2,-2,-2,1,6,6
1511884322541547,-2,-1,-1,-1,1,-2,-9,-6
1511884322541547,-2,0,0,2,1,-1,5,-2
1511884322556587,7,1,0,-1,-2,-1,-2,5
1511884322556587,-5,1,-1,-2,-3,-3,-9,-11
1511884322563606,-1,-1,1,-2,1,3,9,3
1511884322563606,0,1,-1,-1,0,3,2,5
1511884322579649,-4,-2,1,-1,-2,-1,-2,-7
1511884322579649,1,-2,1,1,-2,-1,-3,-2
1511884322581676,-1,-2,-1,1,-3,0,5,3
1511884322581676,1,-1,-1,-1,0,-3,-8,-1
1511884322594689,-4,1,0,-2,0,0,-3,-4
1511884322594689,1,2,0,1,1,0,12,7
1511884322600704,-2,-1,0,0,2,-3,-7,-3
1511884322600704,-2,-4,-1,0,1,-3,-5,-8
1511884322616748,-2,-1,-1,0,1,0,-10,-6
1511884322616748,1,-1,-3,-1,-1,2,5,1
1511884322623792,3,-3,-2,0,-2,0,7,6
1511884322623792,3,1,0,-1,0,0,1,2
1511884322640313,-1,-1,-1,-2,0,1,2,-1
1511884322640313,-6,-3,0,0,0,0,-7,-8
1511884322641819,3,0,0,1,-3,1,5,8
1511884322641819,2,0,0,-1,0,-1,0,2
1511884322653850,0,-3,-2,2,-2,-3,-2,0
1511884322653850,-4,-2,-2,2,-2,0,3,2
1511884322662874,3,-1,-4,0,-1,-1,2,4
1511884322662874,-5,-2,-3,-2,-3,-2,-8,-10
1511884322676917,-2,-2,-2,-1,2,-2,-2,-2
1511884322676917,-2,-1,0,-2,2,-2,-6,-5
1511884322683931,-1,-1,1,0,1,-2,0,0
1511884322683931,4,2,0,-2,1,1,6,6
1511884322699974,0,1,1,-2,-1,0,3,4
1511884322699974,-2,-2,1,2,0,-1,-1,1
1511884322701985,-3,-1,2,0,-3,0,-5,-8
1511884322701985,-1,0,2,1,-2,2,1,0
1511884322714044,-1,0,-2,-1,-4,0,0,-2
1511884322714044,4,2,-1,-4,0,2,-1,2
1511884322723038,-2,-1,-3,-2,-1,-2,-2,-1
1511884322723038,-6,-2,-3,-1,-1,-1,3,-1
1511884322737183,0,-1,-1,-2,3,-1,0,0
1511884322737183,-2,2,0,0,1,-2,-5,-3
1511884322743276,-1,-1,-1,-2,1,-1,-3,-2
1511884322743276,0,-1,1,-1,-2,1,2,0
1511884322760350,1,-1,2,-2,1,5,14,9
1511884322760350,-3,-1,-1,-1,0,-3,-8,-4
1511884322761323,-3,-2,-2,-1,-3,-6,-13,-13
1511884322761323,-1,-3,-1,-1,-3,-4,-1,1
1511884322773394,1,1,0,2,-1,-2,1,-1
1511884322773394,1,-2,1,-1,-2,1,-1,0
1511884322782382,-7,-3,-1,1,-1,1,5,0
1511884322782382,2,0,-1,-1,-1,-1,-6,1
1511884322797420,2,-2,0,-1,-1,-2,1,-3
1511884322797420,1,-2,1,1,0,0,5,2
1511884322803464,2,0,1,-2,0,2,-6,-1
1511884322803464,-3,-2,-2,-2,2,3,3,-5
1511884322819664,-2,3,0,-1,1,1,5,10
1511884322819664,-4,0,-1,-1,-2,-6,-14,-9
1511884322820481,-1,1,-2,-2,-2,-3,1,-1
1511884322820481,-2,-1,0,-2,-1,-3,-1,-2
1511884322842188,4,2,1,-1,0,-1,-4,5
1511884322842188,-3,0,-1,-2,2,1,8,-3
1511884322842188,1,0,0,4,4,2,1,5
1511884322842188,0,-1,0,2,0,-3,-5,1
1511884322858291,-4,-3,-1,0,-1,1,-9,-3
1511884322858291,5,-1,-1,0,-2,-3,-1,5
1511884322864282,-1,0,-1,0,-2,1,7,-3
1511884322864282,-1,-5,-4,-1,-1,3,8,4
1511884322879476,-5,-2,-1,-2,0,-6,-7,-6
1511884322879476,-2,-2,-2,-2,-1,-1,-1,0
1511884322880287,1,0,-1,-2,1,2,5,3
1511884322880287,0,1,4,-2,-2,-1,-1,-1
1511884322902357,-3,0,-1,-2,-4,0,-3,-3
1511884322902357,0,2,-2,-1,-1,-1,3,1
1511884322902357,-2,0,1,-1,-2,-2,-8,-8
1511884322902357,-1,0,1,0,0,-1,-3,-3
1511884322917449,2,-1,1,1,-1,2,2,-2
1511884322917449,0,-2,1,1,-2,-3,-1,2
1511884322923402,2,-2,-2,-3,0,0,2,5
1511884322923402,-1,1,-2,0,0,0,1,2
1511884322938947,-3,-3,-4,-2,-1,-4,-9,-7
1511884322938947,-2,-2,0,-2,0,-1,2,2
1511884322945967,-3,-2,-2,2,0,-3,-4,-4
1511884322945967,1,-1,1,0,1,1,2,2
1511884322962010,5,-1,-2,2,-2,4,7,5
1511884322962010,1,0,2,1,0,3,9,1
1511884322963013,2,-1,2,0,-2,-1,-6,-1
1511884322963013,-4,0,2,-2,-3,-6,-7,-9
1511884322978053,-5,-1,0,-2,1,-3,-8,-4
1511884322978053,2,-1,-3,-1,0,1,4,5
1511884322984069,0,1,-3,-3,2,4,10,8
1511884322984069,0,0,-2,1,-3,-3,-8,3
1511884322999109,-10,-2,-2,-3,-6,-6,-9,-17
1511884322999109,-2,-1,-1,-1,-3,-3,-10,-6
1511884323006126,0,-1,0,1,0,2,4,5
1511884323006126,5,1,0,-1,2,4,7,7
1511884323022169,1,1,0,1,-2,-2,-1,1
1511884323022169,-1,1,-2,0,-1,1,3,2
1511884323022169,1,-1,-3,-2,-2,-2,8,2
1511884323022169,-1,-1,-5,0,-1,1,-12,-6
1511884323037715,-6,0,1,0,-1,-2,-3,-7
1511884323037715,-1,-2,-1,0,0,-1,-4,-1
1511884323043244,-1,1,-2,-1,-1,-1,8,4
1511884323043244,-2,-1,2,-1,2,1,-1,-3
1511884323058271,0,0,0,-2,1,-3,-5,-1
1511884323058271,-3,-3,0,-1,-2,-5,-6,-4
1511884323066292,-6,-1,2,0,-2,-7,-12,-8
1511884323066292,3,1,-2,-1,-2,-2,6,4
1511884323081333,6,2,-1,0,1,2,5,7
1511884323081333,0,0,1,-1,-1,1,9,3
1511884323082335,1,1,2,-2,-1,-2,-7,-7
1511884323082335,-3,-5,-2,-3,1,0,-1,-3
1511884323097375,1,-2,0,-2,1,1,0,0
1511884323097375,7,2,0,-1,3,3,13,11
1511884323103390,-1,2,0,-2,2,1,-2,3
1511884323103390,-4,-1,-2,-1,-1,-2,-2,-7
1511884323118431,-1,-1,-2,-2,0,-1,-2,3
1511884323118431,-2,-1,-2,-3,-2,-1,-4,-6
1511884323126456,-4,-1,-2,1,-4,-1,-7,-6
1511884323126456,-2,0,0,1,-3,-2,-1,-4
1511884323142094,0,-3,1,2,-1,1,10,6
1511884323142094,0,1,1,1,0,1,-2,-2
1511884323143097,6,0,1,2,0,1,3,4
1511884323143097,-1,1,-2,2,0,1,-2,-9
1511884323158137,2,0,-3,0,-3,-1,2,4
1511884323158137,-4,0,-2,-2,0,0,-6,-6
1511884323163150,-1,-1,-3,0,1,2,-7,-1
1511884323163150,-1,1,1,1,0,2,14,7
1511884323178190,-2,1,-3,-2,-2,-2,-9,-4
1511884323178190,0,0,2,-1,-2,-6,-5,-2
1511884323186212,-2,-1,3,0,-1,-2,2,-2
1511884323186212,-2,-3,-2,-1,-3,-2,2,3
1511884323202253,-3,1,0,-3,-5,0,2,-4
1511884323202253,1,-1,-6,0,5,1,-2,2
1511884323202253,-4,-1,-1,-1,0,-2,-1,-2
1511884323202253,-3,-1,-1,-1,2,-1,-6,-1
1511884323217294,1,-3,0,-1,1,-2,3,2
1511884323217294,8,1,1,0,-4,-3,-9,-5
1511884323223336,-3,1,1,-1,-3,-1,0,-3
1511884323223336,0,-2,0,-3,0,-1,-1,2
1511884323238855,0,1,-2,-3,-8,-1,1,2
1511884323238855,-1,7,3,0,2,1,3,-4
1511884323246377,2,-14,-7,1,-1,1,-2,2
1511884323246377,0,1,1,2,11,0,1,-4
1511884323261417,-7,-4,0,1,2,-1,-5,-7
1511884323261417,-2,1,-1,-1,-5,-2,5,2
1511884323262420,4,7,1,-3,-7,-3,5,7
1511884323262420,-7,-2,-1,-1,-2,-8,-12,-11
1511884323277460,3,3,0,0,2,1,2,6
1511884323277460,-6,-3,0,0,-16,-1,4,1
1511884323283476,-4,0,0,3,28,9,-11,-15
1511884323283476,13,4,1,1,0,1,-7,5
1511884323298516,2,2,-2,-3,2,3,3,2
1511884323298516,1,-1,-2,-1,-5,-2,-2,-1
1511884323306538,3,-4,0,1,-8,0,15,13
1511884323306538,-6,0,2,-2,-3,-2,-6,-8
1511884323321577,-2,0,7,1,1,-4,-15,-12
1511884323321577,-5,-6,0,-2,2,0,-7,-3
1511884323322580,-4,-2,-3,-5,-4,-3,2,-2
1511884323322580,-3,1,-3,1,-1,5,7,4
1511884323338125,5,1,-6,1,-3,3,10,9
1511884323338125,3,-2,-3,-2,2,4,10,13
1511884323343641,-17,-3,-1,0,1,0,-2,-13
1511884323343641,0,1,2,3,-4,-4,-4,-3
1511884323358681,8,-6,-3,-3,3,-1,0,9
1511884323358681,-10,8,1,0,2,-10,-33,-35
1511884323365700,12,4,1,0,-6,-2,10,10
1511884323365700,-11,-3,1,-1,-5,0,-7,4
1511884323381742,-5,-7,2,1,1,-2,4,-11
1511884323381742,1,-13,-6,-4,1,3,1,6
1511884323382745,-7,-2,-2,2,-3,-4,-13,-25
1511884323382745,7,-3,-6,-6,-3,6,31,26
1511884323397788,-8,7,4,5,1,-2,2,-14
1511884323397788,-14,-8,-4,-2,-4,-13,-28,-16
1511884323403801,8,7,-1,-3,-6,-6,-15,-4
1511884323403801,3,1,-2,1,-1,-3,-1,-4
1511884323418842,-4,-8,-6,1,3,6,13,9
1511884323418842,15,7,-2,0,-1,4,15,21
1511884323426365,-9,-4,3,-1,10,0,-2,-2
1511884323426365,-5,-4,0,-2,0,-1,-7,-13
1511884323441907,1,3,4,1,-2,-2,-4,5
1511884323441907,-6,-3,-1,2,1,6,8,1
1511884323442912,3,3,1,-2,-2,4,6,11
1511884323442912,0,1,1,-3,-5,-4,-6,-10
1511884323457951,3,-7,-5,-4,-3,-5,-10,-3
1511884323457951,10,10,8,0,0,-1,-2,-2
1511884323463966,-2,-16,-9,2,0,-3,6,9
1511884323463966,-4,-4,-8,-1,-2,-2,4,-3
1511884323479007,5,2,-2,1,-3,-3,-5,11
1511884323479007,12,4,-3,-1,3,1,12,19
1511884323486026,-15,1,9,-3,-2,-1,-16,-36
1511884323486026,-5,-12,-2,0,-2,0,9,15
1511884323502069,-5,1,-6,-8,-4,-6,-10,-17
1511884323502069,-2,2,12,7,8,1,4,6
1511884323503072,2,5,3,-1,-1,3,-1,-9
1511884323503072,-13,8,15,-2,-2,2,2,-12
1511884323518112,10,7,12,0,6,1,-9,-5
1511884323518112,6,20,11,-4,0,2,9,8
1511884323523125,-4,-19,-13,0,0,-4,-2,6
1511884323523125,13,4,-7,0,3,0,1,14
1511884323538670,-7,-5,-6,1,0,3,6,3
1511884323538670,-6,-2,-8,-2,-1,1,-4,-7
1511884323546191,3,5,-8,-1,-3,0,2,4
1511884323546191,3,3,-6,-2,-4,0,-2,-4
1511884323562235,-8,-12,-9,-5,-5,0,1,-7
1511884323562235,-2,-3,13,7,-3,-3,-4,-7
1511884323562235,1,-8,0,1,-5,-4,2,10
1511884323562235,4,0,9,2,0,-3,-3,1
1511884323577274,-2,-2,0,-4,-1,0,0,-2
1511884323577274,2,8,-41,-15,2,1,5,2
1511884323583290,-1,-7,16,4,-2,-1,-2,-2
1511884323583290,-1,4,3,-8,2,2,-4,-3
1511884323598331,1,-5,4,2,1,1,0,4
1511884323598331,-7,-9,-7,-8,-1,-1,-1,-5
1511884323606351,3,8,3,-1,1,-1,0,4
1511884323606351,4,3,-5,1,0,0,-3,0
1511884323621392,-2,7,-22,10,-1,-1,2,3
1511884323621392,-3,-7,-7,1,-1,-2,-2,-2
1511884323622394,1,6,-17,-4,-1,-5,-3,0
1511884323622394,-5,-8,-56,-1,1,-5,-6,-4
1511884323637940,0,-4,-107,10,5,2,1,-1
1511884323637940,-5,-12,-71,4,-5,-4,-3,-8
1511884323643980,2,3,20,10,0,-1,-1,3
1511884323643980,1,3,48,-2,-2,2,1,-2
1511884323660023,-1,2,65,-2,-2,0,0,-2
1511884323660023,-3,-2,-17,-3,0,-1,-1,-3
1511884323666039,-1,2,1,0,-4,-3,0,2
1511884323666039,1,1,9,-16,-1,-1,0,-5
1511884323682083,-1,-16,26,19,-1,-3,-2,1
1511884323682083,0,-10,-3,-3,3,3,2,1
1511884323683091,3,1,-18,0,1,4,2,5
1511884323683091,-2,3,-6,-2,-1,-2,-3,-2
1511884323698133,1,9,28,-7,0,0,1,-1
1511884323698133,2,9,59,-5,-6,-2,0,-1
1511884323704149,-1,-4,25,-1,1,-1,-2,-1
1511884323704149,-1,-3,37,8,0,0,-1,1
1511884323720184,-2,10,29,-10,-1,1,0,0
1511884323720184,-4,-7,30,4,3,0,-1,-4
1511884323726203,-1,3,13,1,4,-1,-1,1
1511884323726203,1,-5,-19,23,-11,-5,-4,2
1511884323741866,2,1,-24,0,1,-3,0,1
1511884323741866,-5,-5,0,-1,-5,-4,-5,-4
1511884323742882,1,-2,-12,-10,3,0,2,4
1511884323742882,-6,1,2,-5,6,1,0,-2
1511884323757921,-2,-1,10,1,-4,-2,-3,-9
1511884323757921,0,9,12,1,3,2,4,0
1511884323764034,-5,-12,-10,-8,3,3,2,-3
1511884323764034,8,-2,1,4,-1,-4,-2,3
1511884323779980,0,2,8,1,-1,5,1,1
1511884323779980,-2,-3,13,1,6,3,-3,1
1511884323785995,5,8,1,-4,-6,0,-1,2
1511884323785995,-5,0,-9,-16,-3,-6,-4,-5
1511884323802038,2,14,10,5,-2,0,-4,-4
1511884323802038,-2,-10,0,0,1,-1,-3,-2
1511884323803045,0,3,-9,-1,8,3,0,1
1511884323803045,-4,-24,0,22,-15,9,3,2
1511884323818186,-7,4,3,-15,-5,-11,-2,-2
1511884323818186,2,2,12,26,-10,-11,-3,-2
1511884323824177,3,7,9,-10,-9,-7,3,-1
1511884323824177,1,6,-6,-2,4,0,1,-2
1511884323840142,1,-12,-15,-5,9,8,2,2
1511884323840142,-4,-4,-2,2,6,12,6,2
1511884323846426,-2,3,-5,2,-3,-9,-3,1
1511884323846426,0,1,-16,-2,-4,-5,-3,-2
1511884323861440,0,-5,-12,-14,-8,1,0,2
1511884323861440,0,-9,-7,4,9,-4,-6,-1
1511884323868460,-2,7,5,-6,-16,0,-4,-9
1511884323868460,-4,-1,5,27,10,-4,-2,-2
1511884323877483,11,6,-2,-4,3,0,4,11
1511884323877483,-3,1,-2,-11,-2,5,3,0
1511884323883521,0,-2,-10,0,-5,-1,-4,-3
1511884323883521,1,4,1,-15,-2,-2,-5,-2
1511884323900548,-5,6,15,-6,5,2,-1,-6
1511884323900548,9,6,-8,21,4,1,0,4
1511884323906559,-2,3,2,4,5,3,4,3
1511884323906559,10,12,-22,-16,1,0,2,6
1511884323921600,-9,-12,-9,-11,-13,-4,-2,-9
1511884323921600,0,-1,-4,-13,-8,-1,2,1
1511884323929122,-2,-15,-14,-5,1,1,3,2
1511884323929122,6,11,4,-4,2,11,12,8
1511884323944301,-6,-17,-9,12,-1,0,-8,-4
1511884323944301,-5,2,-2,-2,-1,-7,-10,-9
1511884323945303,-8,-13,-11,1,9,0,0,1
1511884323945303,-12,-7,11,-2,-4,-1,1,-5
1511884323960343,23,7,-4,-1,-8,-8,-10,2
1511884323960343,-4,-3,13,0,14,1,-10,-6
1511884323966359,13,4,9,6,5,5,5,17
1511884323966359,-4,-3,-21,-10,0,-1,6,4
1511884323981426,-9,-16,-13,-5,4,2,3,-13
1511884323981426,7,23,-12,-21,-7,2,8,9
1511884323988419,-2,-18,-12,4,-3,0,6,-3
1511884323988419,-5,-1,3,-1,19,2,-9,-16
1511884324004460,2,4,8,3,-5,-13,-2,2
1511884324004460,-10,-18,-9,13,2,-1,-1,-3
1511884324005463,9,25,-3,-3,-3,7,3,10
1511884324005463,1,-11,-11,-6,1,4,6,9
1511884324020504,-2,6,-3,-2,-4,-3,-2,-6
1511884324020504,-2,-4,5,1,-14,3,-3,-1
1511884324026519,-7,3,7,-8,-23,-16,-8,-7
1511884324026519,6,-4,5,3,0,11,13,20
1511884324041577,7,19,-1,-10,1,-3,-4,0
1511884324041577,-11,-15,-1,-8,-18,-10,-6,-12
1511884324048162,-8,-6,-11,2,1,-5,-23,-19
1511884324048162,-4,6,-6,-8,-7,-5,-11,-12
1511884324064219,-6,1,-10,0,-5,4,10,-6
1511884324064219,11,7,-3,9,16,5,14,19
1511884324065199,1,-7,21,-9,0,2,8,8
1511884324065199,0,0,16,-19,-8,-5,-5,-5
1511884324080234,-4,-3,0,12,1,6,5,6
1511884324080234,-5,5,3,-3,-3,-4,-6,-17
1511884324086251,-10,-7,-13,7,15,10,7,0
1511884324086251,8,-9,8,5,-5,-8,-1,6
1511884324101290,-4,-6,-2,-27,1,-3,-2,0
1511884324101290,-5,32,19,0,3,-7,-10,-7
1511884324108310,11,11,0,13,10,5,0,7
1511884324108310,-3,-24,-29,-1,-9,-5,-4,-4
1511884324124351,-1,2,43,19,1,1,-5,-1
1511884324124351,9,-2,2,3,0,7,15,9
1511884324125354,-6,-9,-2,-4,-7,-5,3,-7
1511884324125354,1,17,10,3,-2,1,-2,-1
1511884324153349,-4,18,-13,3,3,1,-1,-4
1511884324153349,-1,-27,-22,-17,-7,1,3,12
1511884324162345,-4,2,3,3,6,-8,-17,-21
1511884324162345,-8,-5,-1,7,-8,-8,-4,-9
1511884324185408,-23,-30,6,17,7,3,4,-7
1511884324185408,14,-17,-12,-6,-12,-7,-10,-3
1511884324186410,14,19,-4,-2,-15,-1,-4,10
1511884324186410,-11,1,-1,3,11,1,-3,-14
1511884324207466,10,9,-15,-1,10,5,3,17
1511884324207466,1,11,6,-1,9,7,14,6
1511884324209470,-7,-14,-29,-13,-3,4,7,-5
1511884324209470,8,20,28,-4,0,0,-3,11
1511884324229052,-6,4,-2,5,2,2,6,-4
1511884324229052,-2,-7,5,7,-3,-2,0,2
1511884324239554,-3,-19,7,-3,6,-1,-8,-5
1511884324239554,-2,4,11,-1,-1,2,-1,-9
1511884324259608,9,-11,-14,-10,0,0,1,7
1511884324259608,-5,0,4,-4,2,1,-6,-3
1511884324261613,3,-2,0,-2,-7,-9,-1,0
1511884324261613,2,-1,-2,0,1,5,11,11
1511884324280695,5,-9,-1,-2,-3,-1,-4,7
1511884324280695,-13,-4,-2,-6,-8,-8,-18,-24
1511884324289687,0,14,12,2,-2,-4,-1,-6
1511884324289687,-3,-14,-7,3,0,-5,-7,-4
1511884324312750,-1,-1,3,-4,-1,-3,5,8
1511884324312750,1,-1,2,-4,-1,3,7,9
1511884324313753,-3,-4,-4,2,1,2,5,-1
1511884324313753,14,16,-21,-4,4,2,0,9
1511884324334812,-2,-20,16,1,-6,-2,-7,-9
1511884324334812,0,-5,-1,9,2,-1,-4,1
1511884324342335,1,1,8,-4,2,1,0,1
1511884324342335,-8,-3,0,0,0,0,5,0
1511884324365437,9,1,-3,-11,-3,3,-4,3
1511884324365437,-6,3,2,1,11,-1,-4,-6
1511884324366425,5,-2,-6,-2,2,2,15,27
1511884324366425,-6,-5,-3,0,0,-4,-9,-20
1511884324387511,-4,10,-10,0,-2,-6,1,2
1511884324387511,-2,-2,1,-8,-5,-1,-4,1
1511884324389518,-4,5,-3,1,10,1,-13,-16
1511884324389518,-2,-14,10,4,-1,-3,-1,3
1511884324408538,-1,-1,2,3,-1,0,-5,-5
1511884324408538,6,6,-3,-2,-12,-1,12,7
1511884324418565,-3,-4,-2,3,2,0,0,-3
1511884324418565,-1,5,6,1,-1,0,-14,-14
1511884324440124,1,6,3,-28,-1,1,0,-3
1511884324440124,1,-10,-17,10,0,3,6,8
1511884324441634,-4,-4,4,5,-15,-6,-3,-4
1511884324441634,4,1,-6,11,2,1,6,9
1511884324462185,-1,-1,-1,-6,2,0,-4,0
1511884324462185,-2,13,-1,-10,0,-1,0,-5
1511884324464190,6,-3,2,3,2,1,10,14
1511884324464190,3,2,-8,-6,-3,0,7,-2
1511884324483241,-8,-3,-6,10,3,0,0,-2
1511884324483241,-4,-16,11,3,-12,-10,-16,-21
1511884324492276,-4,0,-3,0,1,-7,-17,-6
1511884324492276,-5,-3,1,-3,0,4,8,8
1511884324515352,1,10,-3,4,-5,-8,-2,-4
1511884324515352,-1,-5,-2,1,4,0,7,2
1511884324517332,2,-2,2,-6,-1,2,0,0
1511884324517332,-3,-4,-1,-3,-3,1,-5,-6
1511884324537941,6,-1,3,7,1,-2,4,4
1511884324537941,-2,2,3,-6,1,3,-5,-11
1511884324539445,2,6,-1,2,0,0,4,0
1511884324539445,0,-2,-6,-9,-8,-5,3,8
1511884324544483,-9,-2,-7,5,0,0,-10,-10
1511884324544483,1,0,-10,-29,6,4,-1,-1
1511884324545490,8,6,5,2,-14,1,4,5
1511884324545490,0,-7,4,11,5,-4,-5,-2
1511884324551479,-2,-4,-7,-7,-1,-1,3,4
1511884324551479,-2,4,0,1,0,0,8,9
1511884324552481,-4,11,2,-8,-5,1,-3,-9
1511884324552481,-3,-7,-5,-7,-5,-3,-9,0
1511884324575542,1,0,6,8,-14,0,7,3
1511884324575542,-6,1,1,12,18,-2,-7,-6
1511884324578550,-1,4,-1,0,2,-4,-12,-11
1511884324578550,-2,1,-4,2,-2,-5,-13,-12
1511884324596599,-5,-12,-5,-3,-2,-3,-1,-4
1511884324596599,7,9,22,11,-7,-1,8,11
1511884324605640,-1,-6,-1,0,2,1,7,5
1511884324605640,4,-1,1,-8,1,-2,-4,1
1511884324627682,1,8,4,2,2,3,6,1
1511884324627682,3,0,-29,-6,-7,-2,5,4
1511884324629190,-3,-10,8,5,5,-4,-8,0
1511884324629190,5,3,-4,2,1,2,7,10
1511884324650261,-4,2,-1,2,1,3,3,2
1511884324650261,8,-2,0,4,-3,-1,1,8
1511884324651264,-5,13,6,1,2,-1,-7,-10
1511884324651264,-4,-3,-2,-5,-7,-4,-5,-6
1511884324672319,-4,-5,-5,-3,2,-1,-6,-13
1511884324672319,-4,0,1,-4,-1,-2,-3,0
1511884324680339,0,-3,-3,-3,1,-2,-2,-3
1511884324680339,4,-3,-13,-8,2,-1,3,5
1511884324702524,0,5,-3,-2,0,-3,-3,-3
1511884324702524,0,-3,-2,0,0,4,3,3
1511884324704405,1,-3,2,3,0,7,11,7
1511884324704405,-1,8,-2,-1,-2,2,1,-1
1511884324725573,1,-9,3,6,-3,-6,-10,-5
1511884324725573,5,-4,-5,-7,0,6,8,7
1511884324726463,-4,-6,-11,-6,-4,-2,-2,-2
1511884324726463,-5,5,-9,-6,0,0,-5,-9
1511884324747566,2,10,16,-3,0,-2,-1,-1
1511884324747566,0,3,6,1,-3,-7,-8,-5
1511884324749571,-2,1,-9,-2,-3,-3,-4,0
1511884324749571,-5,-6,1,2,0,-2,1,-2
1511884324754588,0,-4,-4,3,-1,-1,-9,-2
1511884324754588,-5,-6,-5,3,-2,-1,0,-6
1511884324756590,-3,-5,2,0,-3,2,7,6
1511884324756590,2,24,21,3,1,2,5,0
1511884324761607,4,-23,-8,0,-10,-3,0,11
1511884324761607,0,3,2,2,0,-1,-2,-4
1511884324762606,0,-2,-7,-6,0,-2,-3,-2
1511884324762606,-1,-10,0,1,0,0,-5,-1
1511884324769628,4,2,5,0,6,4,10,11
1511884324769628,-1,-7,-6,-1,1,3,10,3
1511884324769628,-2,2,10,3,-1,-6,-16,-14
1511884324769628,-3,-10,-3,-1,-2,-5,-9,-6
1511884324777832,-4,-6,-10,0,-2,1,0,-2
1511884324777832,-2,0,-4,-3,-2,2,-1,-2
1511884324779657,4,2,-4,-1,1,-1,9,2
1511884324779657,3,7,1,3,-2,-4,-3,2
1511884324784665,-3,-14,-4,-3,0,0,-3,1
1511884324784665,-3,25,8,2,-2,-4,0,-1
1511884324784665,-4,-8,1,-2,-2,1,8,7
1511884324784665,-3,-8,-4,0,-1,-6,-8,-1
1511884324791784,-2,9,2,-1,-1,-3,0,-7
1511884324791784,-3,-10,-5,0,0,-2,-9,-8
1511884324792687,3,-3,-9,-2,2,3,2,-1
1511884324792687,5,-11,-5,1,2,6,12,12
1511884324799708,0,10,8,1,1,0,-3,-6
1511884324799708,-3,-4,-1,-3,-1,-2,-8,-2
1511884324801711,12,-2,-5,-1,0,5,8,7
1511884324801711,-2,9,6,0,1,3,5,2
1511884324806723,2,7,-1,1,0,-5,-5,-2
1511884324806723,-4,-6,-2,1,-1,-5,-12,-9
1511884324807726,-5,1,-1,-4,-3,-7,-4,-1
1511884324807726,-8,-19,-3,-5,-2,-1,5,-7
1511884324820764,5,4,1,-1,2,0,-2,3
1511884324820764,-1,-5,-6,-1,0,2,-2,-2
1511884324828940,-4,-2,1,0,2,1,-4,-3
1511884324828940,7,7,1,2,1,4,8,8
1511884324843915,-8,-5,-1,-3,1,0,3,-4
1511884324843915,4,1,-7,-3,-4,-4,-4,4
1511884324850955,-6,-6,-1,1,0,-4,-3,-7
1511884324850955,-9,-12,-4,0,5,6,-1,-5
1511884324859977,2,3,-4,0,0,4,6,3
1511884324859977,2,2,0,-3,0,3,11,9
1511884324866016,-5,7,0,1,0,-5,-15,-7
1511884324866016,-8,1,4,-1,-2,-3,-5,-11
1511884324881033,6,5,-3,-1,0,0,-1,8
1511884324881033,1,-2,1,-1,-3,0,2,-2
1511884324889161,-1,-6,-1,-2,-2,4,7,1
1511884324889161,3,-5,1,1,-2,-4,-7,-3
1511884324904253,0,20,2,-1,-3,-5,-7,-5
1511884324904253,-7,-10,3,1,-4,-2,-1,-8
1511884324911113,1,-7,0,5,0,1,2,4
1511884324911113,3,8,-1,1,2,-1,6,7
1511884324920136,-8,-3,-1,-1,0,-3,-1,-4
1511884324920136,4,-13,3,2,2,-5,-6,1
1511884324926154,-1,11,-2,-2,-3,2,10,-2
1511884324926154,8,-5,12,2,0,1,-6,3
1511884324941198,-3,-19,-2,0,-3,0,6,7
1511884324941198,-3,11,3,0,2,-3,-11,-6
1511884324948768,-6,-10,-4,2,0,-5,-18,-25
1511884324948768,-7,-5,0,-1,-4,-4,3,3
1511884324963806,8,2,-1,-1,0,5,5,10
1511884324963806,5,2,-4,-7,-1,4,17,7
1511884324970826,4,10,9,0,0,3,9,17
1511884324970826,-5,-2,-5,1,1,-5,-21,-15
1511884324986896,-8,-3,-3,2,1,-2,-4,-14
1511884324986896,1,3,-1,-1,2,-2,2,3
1511884324987872,3,-1,-2,-3,-2,1,7,6
1511884324987872,-9,5,0,-4,-5,-4,-5,-11
1511884325000906,1,-5,-3,-1,-2,-4,-10,-2
1511884325000906,2,2,4,1,0,3,4,-1
1511884325008927,1,-1,1,-2,0,4,5,7
1511884325008927,0,-3,-3,-1,-2,0,-3,-3
1511884325023968,-3,-3,-3,-2,-4,-2,-3,-7
1511884325023968,-5,-12,0,-2,-2,-2,-3,-3
1511884325031491,5,29,6,-2,2,0,4,6
1511884325031491,4,-8,-7,-2,2,2,8,1
1511884325047125,1,15,4,2,0,-2,-4,-1
1511884325047125,-5,-24,-13,-4,-2,-3,-2,0
1511884325047125,4,15,7,0,0,0,-5,3
1511884325047125,-1,5,-5,0,-1,-2,0,-7
1511884325061161,-6,-6,0,-1,-2,-1,4,-5
1511884325061161,1,-10,-5,1,-3,1,0,2
1511884325068180,-3,-4,-2,0,-3,-7,-10,-3
1511884325068180,8,-1,-2,-2,4,3,8,5
1511884325083221,2,-2,-4,-4,1,3,4,9
1511884325083221,-3,7,3,1,0,-5,-11,-5
1511884325091242,-7,-9,-3,0,-3,-3,-3,-11
1511884325091242,0,3,3,-1,-2,-7,-1,-1
1511884325106282,-2,-10,-6,-3,0,-1,-2,-1
1511884325106282,2,9,3,-2,0,0,1,3
1511884325107285,3,-8,-5,-2,0,0,-8,0
1511884325107285,2,5,2,3,0,-2,2,2
1511884325121322,0,5,1,1,-3,0,-2,-4
1511884325121322,-4,7,3,-1,0,-1,0,0
1511884325128846,-7,-12,-3,-1,-1,1,-4,-2
1511884325128846,5,-8,-2,-4,-1,3,1,7
1511884325143886,2,1,0,-1,-1,1,3,-2
1511884325143886,2,12,4,2,0,1,2,-2
1511884325151298,-3,-2,-6,-2,-2,0,6,-1
1511884325151298,-3,-5,-2,1,-1,-3,-5,1
1511884325166336,4,3,-5,-4,-2,-4,-3,6
1511884325166336,4,18,14,6,1,-5,-7,-3
1511884325167339,-9,-31,1,2,0,0,2,-7
1511884325167339,2,13,5,-1,0,5,6,6
1511884325181377,-1,-6,-4,0,4,4,2,4
1511884325181377,-4,-1,-1,0,-1,-2,-3,-4
1511884325188396,-1,1,2,2,1,-5,-2,-4
1511884325188396,4,7,2,0,1,2,0,8
1511884325203436,-9,-1,4,-1,-3,1,-3,-14
1511884325203436,3,-7,-5,-4,-1,2,7,5
1511884325211457,4,1,-1,-5,-1,-1,2,7
1511884325211457,-2,-5,-2,0,-3,-3,-11,-5
1511884325226498,0,0,-1,0,-1,0,-4,-5
1511884325226498,-1,-5,0,-2,-4,0,1,-1
1511884325227499,-7,-9,-4,0,-2,-2,-2,-7
1511884325227499,-5,10,0,1,-2,-1,1,-2
1511884325241541,1,-9,-1,2,1,-2,-2,-3
1511884325241541,10,10,3,-2,0,1,5,13
1511884325248581,2,-12,-6,-3,0,-2,2,5
1511884325248581,6,30,14,1,-1,-2,0,-2
1511884325263602,-12,-19,-7,-3,2,-2,-2,-4
1511884325263602,-4,-5,-8,0,-1,-4,-10,-3
1511884325270621,0,7,-2,-4,-2,1,5,4
1511884325270621,-3,-9,0,-4,0,0,0,-3
1511884325286663,4,11,-2,-3,-1,1,-1,5
1511884325286663,-6,5,2,-1,-2,-6,-4,-16
1511884325287666,-3,-11,-1,1,1,1,-11,-9
1511884325287666,1,-16,-5,0,0,2,5,4
1511884325300700,6,0,1,-1,2,4,14,10
1511884325300700,8,4,0,-1,2,3,7,16
1511884325308721,-10,11,4,2,-6,-7,-18,-30
1511884325308721,-10,-3,-4,0,-3,-1,-5,-6
1511884325323762,5,-6,-3,-1,-2,-3,2,9
1511884325323762,2,-3,-1,1,-2,3,4,6
1511884325331285,-1,14,3,1,-2,-1,2,0
1511884325331285,-5,-14,-5,1,-1,-2,1,-4
1511884325346416,6,5,4,2,0,-1,0,5
1511884325346416,0,-16,-6,-1,4,2,2,7
1511884325347418,-2,-6,-2,-1,3,2,4,2
1511884325347418,3,4,-2,-2,0,-4,-13,-3
1511884325361456,-1,-4,1,-2,0,-4,-3,3
1511884325361456,-5,-2,-10,-3,-2,0,-2,-8
1511884325368474,4,-3,-2,-1,2,1,9,8
1511884325368474,-4,-8,-2,-1,-1,-1,7,3
1511884325383514,4,12,2,-2,-2,-3,-4,-4
1511884325383514,-11,-13,-5,-3,-2,-1,-4,-12
1511884325391534,-11,10,9,-1,-6,-4,-12,-22
1511884325391534,13,-7,-8,2,0,2,1,8
1511884325406575,-7,2,-3,-4,-4,-1,0,-13
1511884325406575,-7,-13,5,0,-1,0,-4,-8
1511884325407589,13,21,4,2,0,3,3,16
1511884325407589,-11,-12,-7,-4,-3,-1,0,-7
1511884325421615,1,6,4,2,0,-1,-2,-1
1511884325421615,1,1,-4,-1,1,0,2,9
1511884325428634,-1,-14,-4,1,2,1,1,7
1511884325428634,6,1,-1,0,-1,-2,-3,0
1511884325443676,-3,-2,2,3,2,1,0,-7
1511884325443676,1,14,8,-1,0,-1,-3,-2
1511884325451278,6,-13,-6,-4,0,0,7,12
1511884325451278,4,10,8,-1,-1,0,4,-6
1511884325466318,-3,6,5,-2,-3,-5,-16,-6
1511884325466318,0,-5,-6,-1,-3,-2,1,-1
1511884325467321,-2,6,8,-1,1,1,-4,-8
1511884325467321,-3,0,-19,-2,-2,-5,-5,0
1511884325481358,-7,-9,-10,2,-1,1,-1,0
1511884325481358,-1,-6,7,2,0,1,-1,-3
1511884325488376,2,-6,-7,-1,1,4,11,8
1511884325488376,0,9,10,-2,-1,2,8,3
1511884325503417,-3,-3,-3,-1,-4,-4,-2,-2
1511884325503417,-2,3,-4,-1,-2,1,3,-4
1511884325511436,5,6,3,2,1,4,9,7
1511884325511436,-2,-13,-5,-1,-2,-3,-17,-11
1511884325526477,1,4,4,-1,-2,-1,-8,3
1511884325526477,-1,-3,-5,-1,1,0,10,4
1511884325527480,11,20,11,-1,2,10,20,18
1511884325527480,0,7,-4,-2,0,2,30,21
1511884325541521,-5,-12,-9,-4,-6,-6,-5,-5
1511884325541521,-14,-23,-10,-6,-8,-21,-41,-27
1511884325548540,-13,11,6,-2,-5,-22,-58,-54
1511884325548540,-4,-9,-7,-1,3,1,-9,3
1511884325563580,7,7,10,3,5,10,24,-1
1511884325563580,3,2,1,3,-2,6,24,21
1511884325570600,-5,-9,-4,-12,-7,-8,-10,-4
1511884325570600,-3,-5,9,10,-2,-2,-18,-11
1511884325586642,1,-6,-1,2,0,5,6,12
1511884325586642,11,-4,-1,-2,6,10,16,10
1511884325587645,3,-14,-8,-4,0,4,18,18
1511884325587645,2,14,8,4,6,3,10,7
1511884325600680,0,13,8,3,-1,0,0,1
1511884325600680,5,8,-3,-2,0,-3,-3,-3
1511884325608701,-3,-15,-3,3,1,2,4,7
1511884325608701,-10,-1,-3,-10,-2,4,15,2
1511884325623741,-4,-50,-10,4,3,-2,4,-7
1511884325623741,-9,2,1,-4,-6,-10,-26,-23
1511884325631262,5,21,3,0,0,-4,-5,-1
1511884325631262,-2,-11,-2,-3,-3,-4,-18,-9
1511884325646342,-5,5,2,-4,-2,-1,3,4
1511884325646342,-17,-1,-4,0,-1,0,-13,-16
1511884325647344,11,2,6,3,1,4,0,9
1511884325647344,-11,-6,6,-1,-3,-1,-3,-14
1511884325661382,3,3,-3,-6,-5,-8,-27,-6
1511884325661382,3,2,1,-1,-3,-3,-9,-9
1511884325668400,0,-3,-13,1,-1,4,16,13
1511884325668400,15,4,3,0,5,6,17,18
1511884325683444,4,-4,-11,-1,5,8,28,23
1511884325683444,2,10,20,4,1,2,17,16
1511884325691528,-10,-6,0,0,-2,-7,-14,-16
1511884325691528,-6,1,-6,-3,-6,-10,-28,-23
1511884325706546,-9,-2,1,-1,-1,-5,-20,-21
1511884325706546,3,-2,-4,0,3,6,13,11
1511884325707508,4,3,1,3,0,2,13,10
1511884325707508,4,4,1,-2,-1,0,-1,2
1511884325722545,3,31,11,-3,-2,-2,-3,1
1511884325722545,0,-25,-3,-1,0,-2,-7,-7
1511884325729072,-7,-5,-5,-5,-2,-2,6,-1
1511884325729072,-4,-6,-4,0,-1,-1,-3,-5
1511884325743641,7,2,-20,-3,-2,0,-4,-1
1511884325743641,4,12,-15,1,1,2,5,7
1511884325751166,-6,5,-7,1,-2,-1,-5,-4
1511884325751166,4,1,5,-2,-1,-2,0,5
1511884325766321,-1,1,15,2,3,0,4,3
1511884325766321,-1,0,-9,-1,-1,0,-3,1
1511884325774338,2,-6,17,1,-2,1,-1,3
1511884325774338,-3,-12,11,-2,-2,0,2,-5
1511884325781244,1,4,14,2,0,-1,2,2
1511884325781244,0,3,7,-2,-3,-1,-2,-1
1511884325788360,-7,-8,-13,-1,1,1,-6,-9
1511884325788360,0,-9,-6,0,-4,-1,8,5
1511884325803305,-3,-9,-2,0,6,0,-2,-2
1511884325803305,-6,3,1,-4,3,3,-2,-5
1511884325811496,4,-1,-21,-7,0,0,0,4
1511884325811496,4,9,-12,-3,-1,1,2,3
1511884325826365,-3,-9,-14,-3,-6,-2,-1,1
1511884325826365,-2,-2,4,-2,0,-3,1,3
1511884325834777,-6,-15,-4,-4,-5,-3,-3,-5
1511884325834777,1,11,-5,15,2,1,-2,-2
1511884325841405,0,2,0,1,-2,0,-1,-3
1511884325841405,3,8,10,7,3,-2,0,0
1511884325848927,0,-8,0,6,5,-1,-2,-1
1511884325848927,-4,-20,12,-9,-11,-7,-3,-1
1511884325864140,-1,12,11,-37,-8,0,0,-1
1511884325864140,4,6,-7,5,-6,0,-1,2
1511884325870987,-3,-9,16,37,6,-3,-3,-4
1511884325870987,-4,-3,0,-21,-6,-1,0,0
1511884325886029,-5,-1,4,16,1,0,-1,-2
1511884325886029,0,0,-31,-12,-1,-1,1,0
1511884325894231,-2,5,-19,-10,0,0,-3,-3
1511884325894231,2,8,-40,-5,7,2,2,2
1511884325901069,-2,-5,-30,3,0,0,-2,-1
1511884325901069,0,-1,17,4,-2,-1,0,-2
1511884325909111,0,2,15,-5,-4,0,1,-1
1511884325909111,4,9,36,6,6,1,2,1
1511884325924127,-3,-7,8,-2,4,-1,-2,-1
1511884325924127,-3,-1,8,6,1,-2,-3,-1
1511884325931148,1,4,-59,-8,-7,-1,0,-2
1511884325931148,3,4,-18,3,3,0,1,2
1511884325945689,-1,0,6,-6,-2,0,1,-1
1511884325945689,-1,0,19,20,0,-4,-4,-1
1511884325954712,-2,-2,49,13,5,1,0,-2
1511884325954712,-3,-7,21,-6,0,1,-3,-5
1511884325968750,1,-17,8,13,-18,-8,-4,4
1511884325968750,0,-2,6,-14,9,8,1,2
1511884325969753,3,4,13,0,16,13,6,4
1511884325969753,3,3,1,14,4,1,2,1
1511884325983817,1,3,3,1,1,-2,-1,-2
1511884325983817,-7,0,-5,-11,-19,-11,-2,-5
1511884325990809,11,5,-10,-10,-6,-8,-2,8
1511884325990809,1,0,-11,-8,3,1,0,-3
1511884326005849,-8,-14,3,-3,-4,-3,-4,-9
1511884326005849,1,0,-8,-1,1,1,-1,0
1511884326013871,1,18,-5,4,2,1,0,-2
1511884326013871,-4,-12,-15,1,-5,-1,0,0
1511884326029414,4,13,-20,17,12,6,3,2
1511884326029414,0,-4,-5,-11,-9,-1,-2,-1
1511884326030416,-4,-7,6,31,4,-1,2,1
1511884326030416,3,13,-7,-16,-14,-7,-2,4
1511884326043952,-1,-1,-11,-7,12,6,3,0
1511884326043952,-1,2,-1,-24,-1,3,2,-1
1511884326051014,0,-5,-5,-21,-43,-26,-12,-5
1511884326051014,0,1,4,16,24,12,5,4
1511884326066044,-5,-8,4,-8,-6,0,-1,-1
1511884326066044,3,-1,-5,0,4,4,2,2
1511884326074066,-2,-5,2,-3,-4,4,1,1
1511884326074066,-3,1,1,13,2,-3,-2,-1
1511884326089134,1,23,7,-1,0,0,-1,-4
1511884326089134,1,-12,3,12,2,-5,-3,0
1511884326090107,-5,-11,-3,-4,5,0,-3,-7
1511884326090107,-16,-34,-31,0,-1,2,7,5
1511884326103141,15,15,16,7,0,1,-8,-13
1511884326103141,4,18,2,-11,-3,0,2,0
1511884326111190,-5,-9,2,3,2,2,2,-2
1511884326111190,7,34,18,-13,0,3,3,1
1511884326126204,-13,-13,-11,-10,-15,-10,2,4
1511884326126204,2,-5,-1,-10,6,-1,-6,-4
1511884326134728,3,5,-10,28,11,11,1,-2
1511884326134728,-5,-6,-3,-28,-39,-24,-5,-4
1511884326149269,-3,-4,4,29,19,-2,0,1
1511884326149269,-2,-4,3,-6,-17,-5,-4,0
1511884326150271,-4,8,9,15,16,8,1,1
1511884326150271,4,-9,-1,-9,-6,2,1,0
1511884326163306,3,1,-2,8,0,-8,-1,1
1511884326163306,2,-7,-27,-28,-8,11,9,6
1511884326171350,7,-2,13,29,-2,-11,4,5
1511884326171350,2,14,2,-9,-2,6,11,9
1511884326186394,3,-4,-18,-4,1,-6,-2,5
1511884326186394,-17,-6,12,10,1,-4,-26,-31
1511884326194388,-4,-17,-10,-26,-3,-5,-13,-12
1511884326194388,10,8,7,10,17,10,10,13
1511884326209429,-14,-6,8,-7,-2,16,19,9
1511884326209429,15,-5,-3,10,-12,-15,-4,0
1511884326210431,-6,21,11,-24,0,0,-3,-1
1511884326210431,-4,-12,2,16,2,-1,-9,-4
1511884326223492,-1,14,-6,-19,-8,0,-1,-2
1511884326223492,-6,-23,19,28,4,1,3,-1
1511884326231490,6,17,10,-10,-6,-4,5,5
1511884326231490,9,15,-4,-17,-1,9,22,20
1511884326246106,0,-10,-3,13,-9,-4,5,4
1511884326246106,-5,27,-14,-22,-5,-10,-27,-24
1511884326253094,-9,-30,-23,-5,0,-15,-35,-22
1511884326253094,-4,-8,-3,-12,-2,-1,-7,-11
1511884326269135,8,8,6,36,2,6,10,10
1511884326269135,7,11,-9,7,26,19,34,26
1511884326270138,-5,-16,-8,-24,-22,-1,9,7
1511884326270138,-5,-2,-4,15,13,3,-16,-17
1511884326283172,-1,-3,0,-21,-14,-11,-5,-3
1511884326283172,2,-14,11,19,6,6,14,17
1511884326291194,6,13,0,-11,3,6,10,9
1511884326291194,0,15,5,5,4,-5,0,-12
1511884326306261,-11,-13,-6,-3,1,0,-12,-7
1511884326306261,-1,10,3,-4,-4,-2,-7,-6
1511884326313280,1,-22,-15,-8,-3,-3,2,2
1511884326313280,2,24,11,10,-2,0,0,5
1511884326329323,-1,-6,-1,-24,0,1,-2,2
1511884326329323,-8,-4,-11,6,5,1,7,2
1511884326330354,1,-23,-7,-17,0,5,11,6
1511884326330354,-3,-15,-6,-8,14,-9,-20,-13
1511884326343863,1,10,-1,-6,-10,-5,-8,-10
1511884326343863,7,4,-11,8,23,12,11,11
1511884326350914,6,12,17,3,-14,-7,-2,2
1511884326350914,-10,-34,-12,-2,1,-3,-6,-9
1511884326365925,5,12,-4,-6,11,13,-4,-3
1511884326365925,-3,-13,-11,-1,-10,-7,5,6
1511884326373945,3,-3,27,10,8,7,4,-1
1511884326373945,-4,4,7,5,-15,-7,-14,-12
1511884326389013,-4,-14,-7,-7,-8,-14,-11,-6
1511884326389013,-3,-2,2,-15,-7,-1,1,1
1511884326389988,-4,16,6,13,10,6,16,7
1511884326389988,-1,-3,2,5,-5,0,6,9
1511884326404025,-5,-13,9,1,5,1,-5,-7
1511884326404025,6,23,22,-1,-7,-5,-4,-4
1511884326411071,11,17,-9,-10,-2,-3,-15,-4
1511884326411071,0,-1,-1,3,5,6,0,-3
1511884326441187,2,8,2,8,4,1,7,2
1511884326441187,-2,-15,6,5,-6,-5,10,19
1511884326449712,-17,-28,-14,2,4,-3,-24,-29
1511884326449712,0,-11,10,4,-1,-7,-12,-8
1511884326472773,-2,-1,6,18,-5,1,6,0
1511884326472773,2,-1,-9,0,-2,0,0,2
1511884326473776,6,8,13,-2,-1,3,18,13
1511884326473776,0,6,5,-4,2,-4,-9,-3
1511884326493856,1,-9,-5,-21,-1,1,0,-4
1511884326493856,-5,-5,-1,-6,-1,2,-1,-4
1511884326502852,-2,20,-8,-2,-7,-7,-2,0
1511884326502852,-2,-7,8,-8,-5,-2,0,5
1511884326524911,0,7,4,14,-14,-6,-5,-2
1511884326524911,-10,-37,-17,3,8,2,-9,-9
1511884326526917,-3,16,-2,-6,1,2,-5,-5
1511884326526917,1,-2,-1,8,-4,-4,7,5
1511884326547974,0,17,-2,-6,-3,2,1,3
1511884326547974,-11,-38,-2,-2,6,-11,-8,-11
1511884326548977,2,6,1,3,-1,-1,-5,-8
1511884326548977,8,-4,2,8,10,0,8,12
1511884326569058,0,13,5,-3,3,1,4,3
1511884326569058,5,22,3,-2,-7,-5,-5,-1
1511884326578083,-6,-8,3,0,1,-2,-7,-3
1511884326578083,-3,0,-4,0,-3,2,6,7
1511884326601124,2,-5,-3,-3,2,5,10,1
1511884326601124,4,16,4,1,-2,1,-4,-3
1511884326603122,6,-7,-8,-7,-4,-1,-3,-1
1511884326603122,-7,3,-4,-3,-5,-5,-16,-12
1511884326607162,1,-14,-4,-6,4,2,3,3
1511884326607162,1,14,2,-3,1,14,12,7
1511884326607162,-4,0,-1,-2,1,-1,4,5
1511884326607162,-14,-7,0,13,-8,-4,-5,-16
1511884326629221,-3,-8,-9,-65,-6,-6,-22,-12
1511884326629221,4,-6,1,43,5,13,13,11
1511884326636744,-4,-6,4,-8,10,-5,6,-9
1511884326636744,22,18,-11,1,-11,-24,-1,19
1511884326637747,-4,11,8,12,-3,-4,4,9
1511884326637747,3,10,1,-5,2,-7,-10,-6
1511884326645237,-5,-6,-3,14,-6,-8,3,-5
1511884326645237,0,19,-12,-15,5,21,3,-3
1511884326651849,15,-2,-1,6,9,1,-2,-4
1511884326651849,-16,-10,0,-8,-9,-10,-2,-2
1511884326652850,4,17,0,2,3,15,10,10
1511884326652850,-7,-24,-5,-8,-6,3,1,0
1511884326659844,7,-6,-2,17,6,3,17,19
1511884326659844,-4,9,12,-1,-4,-9,-22,-30
1511884326661849,-1,-3,-11,-17,1,-3,-13,-7
1511884326661849,1,-11,-2,-1,-7,1,11,2
1511884326665858,3,2,3,10,-1,-3,-3,12
1511884326665858,2,8,-6,-18,0,-1,-5,-3
1511884326673879,-7,-8,-3,1,-4,-7,-12,-12
1511884326673879,-14,-15,10,-3,1,-1,1,-10
1511884326688952,4,7,-2,7,7,4,4,2
1511884326688952,8,8,0,-5,-7,-3,9,12
1511884326696973,6,-4,-3,-3,-1,7,7,9
1511884326696973,-3,8,4,-21,-3,-8,5,1
1511884326711985,-15,-14,-5,3,-4,0,-5,-13
1511884326711985,-5,-1,-2,1,1,-4,-10,-9
1511884326712985,6,4,3,1,-1,0,-3,3
1511884326712985,3,12,-14,5,0,-6,-1,-7
1511884326726030,-3,-7,4,5,2,-1,-2,-1
1511884326726030,-3,15,-2,-6,1,-1,4,2
1511884326734068,-3,-27,-3,6,1,8,17,12
1511884326734068,-4,-10,-7,1,-5,2,6,9
1511884326748643,1,-6,-3,15,-5,-11,-15,-6
1511884326748643,-20,-8,0,-2,-5,-8,-20,-31
1511884326756663,3,0,-3,-7,-2,-6,-9,1
1511884326756663,-7,-6,6,11,7,5,-1,-12
1511884326763719,7,9,5,-4,-1,-1,-2,7
1511884326763719,15,-13,-1,3,1,11,23,25
1511884326770704,-4,6,-1,4,-4,-2,7,-1
1511884326770704,13,6,12,7,1,-4,-19,6
1511884326785741,-10,0,-5,11,-2,8,4,-10
1511884326785741,1,4,1,0,-8,-10,-10,-1
1511884326793762,-5,10,3,2,3,1,-7,-5
1511884326793762,-4,-5,6,9,-16,-19,-3,-2
1511884326808997,-5,-7,-1,-16,-8,2,4,-1
1511884326808997,5,3,2,0,0,4,8,9
1511884326816825,-3,0,-5,1,-3,-4,3,-4
1511884326816825,0,-4,10,-1,4,6,1,-2
1511884326832248,8,-2,-7,-2,4,1,-3,2
1511884326832248,3,6,-13,-5,-1,-3,6,13
1511884326833074,-5,-7,5,-3,7,7,7,-1
1511884326833074,2,-1,-9,-4,5,0,-11,-6
1511884326869856,5,-2,0,-4,-4,-3,4,4
1511884326869856,-3,-2,-1,0,4,3,-5,-6
1511884326871858,2,-4,2,-1,-2,0,2,5
1511884326871858,6,13,0,-5,1,5,11,9
1511884326877877,-9,9,-2,0,-1,-2,-5,-3
1511884326877877,1,-14,1,-5,-6,-10,-9,-3
1511884326877877,-4,0,2,0,0,1,-16,-7
1511884326877877,-3,1,-1,0,4,6,5,5
1511884326892087,-6,-1,-2,-7,1,-7,-4,-10
1511884326892087,4,0,2,2,-1,7,6,-1
1511884326892943,3,9,-12,-12,-18,-11,8,11
1511884326892943,-3,-6,1,0,3,-6,-12,-9
1511884326905949,-1,-5,-2,0,12,4,-3,-2
1511884326905949,-2,3,4,4,-8,-1,2,2
1511884326913973,7,-5,-6,-3,-4,-6,2,3
1511884326913973,4,-6,-3,4,10,21,19,13
1511884326929015,4,-10,0,1,-37,-18,0,-3
1511884326929015,-5,4,-13,-9,24,-5,-7,-4
1511884326937040,-3,6,1,0,5,1,-3,5
1511884326937040,-4,-10,-6,-4,1,-4,-11,-21
1511884326951948,6,9,3,-1,0,-1,-4,5
1511884326951948,-6,5,7,0,-3,2,5,0
1511884326952951,3,-36,-22,-3,-2,0,-5,-8
1511884326952951,5,4,10,1,-1,1,4,12
1511884326981036,-1,29,-4,3,9,5,5,-4
1511884326981036,6,-11,-1,4,0,1,1,10
1511884326990049,-5,-4,-4,-2,6,3,1,5
1511884326990049,-6,20,16,4,-12,-13,-10,-11
1511884327012109,0,0,7,-3,2,2,-1,3
1511884327012109,-9,-12,0,-1,-4,0,-1,-9
1511884327014114,10,3,6,3,0,4,6,11
1511884327014114,0,-5,-6,3,-1,1,5,1
1511884327035672,-5,-6,-1,-2,-8,-5,-7,-6
1511884327035672,-3,4,2,-2,3,0,-13,-10
1511884327037678,-4,3,5,0,-3,-3,0,-5
1511884327037678,4,1,-6,-3,0,4,9,8
1511884327056282,-5,-10,0,-2,4,-3,4,2
1511884327056282,1,2,3,0,-4,-1,-7,-3
1511884327065284,-3,-20,-7,-1,1,2,-3,-3
1511884327065284,2,15,2,-2,-1,1,0,2
1511884327087368,-2,-7,3,2,2,1,2,-2
1511884327087368,2,-1,0,-4,-5,-4,7,4
1511884327089373,2,6,-1,0,-3,-4,-4,0
1511884327089373,-7,-6,-3,-5,-4,-5,-6,-5
1511884327110439,6,7,-21,-6,5,6,3,0
1511884327110439,2,2,6,2,0,3,6,4
1511884327111402,-5,-8,3,5,7,-1,-1,-7
1511884327111402,-4,-2,-1,2,3,-2,-9,-6
1511884327131957,1,3,-6,-3,-3,-3,-6,1
1511884327131957,-4,1,-3,-2,-1,-3,-6,-4
1511884327146524,2,0,5,3,0,6,12,16
1511884327146524,0,10,-8,-5,-2,1,-5,-14
1511884327163569,-1,-5,6,1,4,-2,-2,7
1511884327163569,6,2,0,0,0,-2,3,0
1511884327165574,0,5,0,-2,-2,-4,-6,-1
1511884327165574,-3,-7,-4,-4,-3,0,1,-4
1511884327184625,-6,-4,5,1,-2,1,0,-2
1511884327184625,2,-2,-3,3,-2,2,4,2
1511884327186632,-4,9,3,-2,2,2,-2,0
1511884327186632,-5,-10,-2,-3,1,2,6,6
1511884327191672,3,0,3,0,-1,0,-5,-5
1511884327191672,4,1,-1,-1,0,-3,-4,-1
1511884327192674,27,23,2,-2,-5,-3,-5,-3
1511884327192674,-26,-23,-3,2,-4,-4,-3,-3
1511884327199694,-14,-17,-2,2,8,7,5,-1
1511884327199694,-3,-1,-1,-2,-7,-4,-1,-1
1511884327201671,-8,25,3,-1,4,4,1,-7
1511884327201671,17,-20,-11,-3,4,-2,0,7
1511884327206713,7,20,9,1,-1,-1,-2,0
1511884327206713,-4,-2,-3,-1,-1,-5,-3,-3
1511884327207715,1,-2,-1,-1,1,0,0,-1
1511884327207715,-1,0,-5,1,-4,-2,3,-2
1511884327214705,-4,-13,1,0,-1,1,2,-2
1511884327214705,5,8,-1,0,1,4,2,2
1511884327214705,-9,-3,6,2,-3,-3,-1,0
1511884327214705,1,13,8,-1,1,0,-5,2
1511884327228744,-5,-26,-11,0,-5,-8,-9,-11
1511884327228744,1,5,2,-1,-1,-3,-7,-3
1511884327237276,-2,-3,6,0,-1,-2,6,9
1511884327237276,4,-23,-13,-4,1,-2,3,4
1511884327251862,-2,19,18,2,3,3,1,-6
1511884327251862,-4,-6,0,-2,-1,2,5,5
1511884327252865,-14,-10,-3,-1,-5,-2,-1,-9
1511884327252865,9,16,8,2,-3,1,-2,8
1511884327265873,10,-12,-11,-1,-2,0,2,7
1511884327265873,-1,-9,-7,-1,2,2,3,4
1511884327273924,-4,2,1,2,1,0,2,-5
1511884327273924,1,9,5,-1,-1,0,4,1
1511884327288933,-7,-2,-9,-5,1,-2,-6,-9
1511884327288933,7,9,6,2,1,0,-5,-2
1511884327296956,3,-5,-4,0,-2,-1,3,2
1511884327296956,0,8,-15,-6,-2,0,-1,3
1511884327312025,-1,-6,0,-1,0,0,-3,-10
1511884327312025,-3,-2,-1,0,1,-1,1,-2
1511884327313028,0,-4,-1,0,2,-1,-6,1
1511884327313028,-3,5,1,3,0,-2,-6,-11
1511884327326033,0,8,0,-5,-5,-1,7,6
1511884327326033,-4,-10,2,1,-2,-1,-3,-5
1511884327334058,-1,-5,-3,-1,1,2,-2,-3
1511884327334058,6,4,7,-2,-11,-4,-1,0
1511884327348629,-8,-4,-6,-2,0,0,-1,-5
1511884327348629,6,-4,-1,3,-1,0,2,3
1511884327356650,7,13,8,2,-2,0,0,5
1511884327356650,3,-9,-3,3,5,2,-2,-1
1511884327371716,1,11,0,-1,1,2,4,6
1511884327371716,-9,1,-10,-5,-1,1,3,-3
1511884327372692,-2,-10,1,0,-1,-4,-4,2
1511884327372692,-9,8,3,2,1,-3,-6,-13
1511884327385727,-6,-3,0,2,0,-2,-8,-11
1511884327385727,3,-6,-9,-1,1,0,5,2
1511884327393779,4,1,7,0,0,3,0,0
1511884327393779,-3,-1,-2,-3,0,0,-1,1
1511884327408815,2,-12,-3,0,0,-3,1,5
1511884327408815,1,5,2,-2,1,-1,1,0
1511884327416840,0,17,-4,-3,-1,-1,2,4
1511884327416840,0,-24,-7,-1,0,-2,-1,-3
1511884327431851,-2,-1,2,-1,-1,-2,-11,-8
1511884327431851,-8,2,-3,-4,-3,-2,-7,-12
1511884327432854,-1,3,-1,-1,-3,-2,-7,-6
1511884327432854,2,-9,0,-1,2,4,6,11
1511884327446390,5,10,0,2,-1,1,6,11
1511884327446390,-2,1,6,1,1,-1,4,-1
1511884327453410,-3,-11,-5,-2,-1,-2,-7,-7
1511884327453410,1,-4,-3,-1,1,0,3,0
1511884327468451,-1,-10,-4,-1,-2,-1,-2,-3
1511884327468451,-3,7,7,1,1,-2,-2,1
1511884327476472,-3,-6,-3,-2,1,0,2,0
1511884327476472,-2,8,3,1,-5,-1,-1,-6
1511884327491511,3,5,-4,-3,0,0,2,-1
1511884327491511,-4,-4,-6,-1,-2,2,-1,2
1511884327492514,4,2,4,5,2,0,-2,1
1511884327492514,1,-5,-8,-5,-1,-2,4,2
1511884327506551,0,0,3,0,3,4,3,9
1511884327506551,-1,0,-1,-2,-4,-2,-10,-6
1511884327513597,-7,-7,-5,-4,-4,-2,2,-3
1511884327513597,-4,5,4,2,-1,-1,-7,-3
1511884327528610,-1,-3,0,4,1,-2,0,-1
1511884327528610,-1,10,4,-2,-1,-1,6,5
1511884327537162,7,-4,-4,1,3,6,11,11
1511884327537162,-2,2,1,-3,-4,-3,-3,-7
1511884327551432,-9,-8,-6,-3,-6,-7,-16,-14
1511884327551432,3,3,13,2,-1,-3,-11,3
1511884327552435,-7,4,-4,-4,-1,-2,3,-11
1511884327552435,-3,-3,-3,-4,0,-1,4,6
1511884327566499,-3,4,3,-1,-1,-1,-9,-14
1511884327566499,8,2,2,4,5,6,6,10
1511884327573519,-6,-4,0,1,-5,-3,-2,-5
1511884327573519,5,12,5,2,0,-1,2,8
1511884327588562,4,-16,-5,-4,-5,-3,4,13
1511884327588562,-3,-10,-11,-3,-3,-2,-2,-7
1511884327596554,-3,3,-1,-6,-4,0,-1,-5
1511884327596554,-7,2,0,3,1,1,-5,-6
1511884327611592,0,6,5,1,1,0,4,3
1511884327611592,5,-6,-4,-1,-1,-2,0,4
1511884327612595,-1,-1,4,0,-1,1,4,3
1511884327612595,2,-6,-8,0,2,-3,-13,-8
1511884327625630,-2,6,14,1,2,1,1,-2
1511884327625630,-1,-5,-1,-4,-2,2,4,3
1511884327633714,-11,1,-1,0,-3,-2,-8,-12
1511884327633714,0,-1,0,1,1,4,10,5
1511884327648339,3,7,-2,-2,-2,0,-3,4
1511884327648339,-12,-17,-3,-1,-5,-5,-7,-16
1511884327656390,8,6,-2,0,-2,-3,-5,6
1511884327656390,-2,-11,-3,2,-2,-3,-5,-3
1511884327671426,5,8,-5,-1,2,0,2,4
1511884327671426,1,4,1,1,0,2,5,4
1511884327679546,-3,-5,-5,2,2,1,0,-2
1511884327679546,-3,0,1,-4,-2,-1,-1,-3
1511884327686443,9,2,4,1,-3,-1,1,6
1511884327686443,-1,-6,-13,-3,1,-3,-3,1
1511884327693463,2,7,11,3,1,-1,1,-3
1511884327693463,3,0,-2,0,1,3,0,3
1511884327708501,-9,-4,-4,-3,0,0,-3,-4
1511884327708501,-7,-1,0,0,-3,-3,-4,-2
1511884327716523,0,-3,-3,-2,-2,-4,-1,1
1511884327716523,6,8,8,-1,-2,-3,1,5
1511884327731753,-3,-13,-8,1,3,4,6,-2
1511884327731753,2,5,1,0,0,-2,-3,-4
1511884327739779,-5,-7,-6,-2,1,-2,-9,-3
1511884327739779,1,2,2,0,1,0,0,2
1511884327746320,2,-1,-4,1,-2,-2,5,3
1511884327746320,4,8,7,3,1,2,4,3
1511884327753821,-5,2,-8,2,0,2,0,-2
1511884327753821,2,-4,-1,-1,-3,-3,0,0
1511884327768862,-5,9,13,0,-1,-3,-6,-5
1511884327768862,-6,-11,2,0,-1,-5,-9,-9
1511884327776880,4,6,0,-1,0,-1,0,2
1511884327776880,-3,-4,-1,2,1,1,3,0
1511884327790920,0,9,1,-1,-3,2,8,2
1511884327790920,5,3,-1,-1,-1,2,8,6
1511884327798942,0,-14,-3,-3,0,0,-4,0
1511884327798942,-2,-5,-3,-2,-3,-2,-7,-1
1511884327814156,-12,-6,-1,0,0,0,0,-7
1511884327814156,8,3,1,2,-1,0,-5,7
1511884327814981,-2,-5,-2,-3,0,-1,1,-3
1511884327814981,-4,3,-2,-3,1,-2,1,-7
1511884327829124,5,-4,-3,-3,-2,-3,-3,9
1511884327829124,2,-1,0,-2,1,-1,1,4
1511884327837049,-3,-4,1,1,-1,-4,-3,-7
1511884327837049,4,10,4,-1,-4,-2,-1,-1
1511884327851630,-7,-13,-13,1,1,3,3,-3
1511884327851630,7,6,11,3,1,4,6,15
1511884327859651,-5,9,2,-2,-2,3,-3,-12
1511884327859651,-5,-6,0,1,1,1,1,1
1511884327874891,6,14,1,-2,-3,-5,-6,-3
1511884327874891,-4,-1,-4,0,-1,-3,-1,1
1511884327875722,1,-6,1,1,2,-3,-1,-1
1511884327875722,1,0,-2,-2,2,1,3,-1
1511884327888897,-1,-10,-5,0,-2,0,3,7
1511884327888897,-3,0,-4,-4,-3,-3,-2,-1
1511884327896771,2,0,-2,-3,-3,-2,-3,-3
1511884327896771,-2,7,1,1,-2,-1,0,5
1511884327911804,0,-15,-4,0,0,-1,2,-3
1511884327911804,-3,-2,-8,-1,0,-1,-6,-6
1511884327919811,4,0,-4,-1,0,-1,5,5
1511884327919811,0,-3,2,-2,2,1,4,2
1511884327934349,2,4,-4,-4,-1,-2,-6,-2
1511884327934349,-7,-2,12,-1,-5,-5,-11,-17
1511884327935352,-5,-3,0,2,-2,1,2,5
1511884327935352,6,5,3,0,1,0,-5,4
1511884327948388,2,9,2,1,0,0,2,-5
1511884327948388,-3,-5,-6,0,0,0,4,-4
1511884327956409,1,2,0,-1,-2,0,3,8
1511884327956409,-3,-12,-2,-1,0,1,3,1
1511884327971450,-8,-2,-1,-4,1,1,2,-5
1511884327971450,7,1,-2,-5,-5,-2,2,3
1511884327979497,4,2,0,3,1,-2,-14,1
1511884327979497,4,-2,-4,0,-2,3,9,10
1511884327994537,-14,-3,1,-1,-2,-6,-18,-21
1511884327994537,8,4,-4,-2,1,1,4,2
1511884327995540,0,11,0,-1,-1,2,2,1
1511884327995540,-8,-28,-11,-2,-2,1,5,-1
1511884328008576,1,3,5,-1,-2,-3,-6,-4
1511884328008576,-5,5,3,2,-1,-4,-7,-6
1511884328016570,0,-2,-12,-3,-1,-2,2,3
1511884328016570,-3,19,9,1,0,0,-3,-3
1511884328030636,-1,-9,-5,0,0,3,6,10
1511884328030636,-2,-1,-2,-1,1,1,3,0
1511884328039691,-1,-12,0,0,-1,0,2,1
1511884328039691,-3,8,-5,-1,-1,-4,-5,-5
1511884328054230,2,-7,-3,-2,0,-2,1,8
1511884328054230,-2,2,4,2,2,-2,-6,-9
1511884328055232,2,-11,-4,-3,-1,0,3,5
1511884328055232,-2,2,3,2,-5,-1,-9,-10
1511884328068268,-3,6,4,3,-4,-2,-1,-3
1511884328068268,-3,-10,-10,-15,-5,-2,1,3
1511884328076290,5,1,8,2,5,2,6,8
1511884328076290,0,-1,-1,2,1,-2,2,5
1511884328091328,5,1,0,2,3,2,1,-12
1511884328091328,-12,-7,-4,-1,-2,-1,0,-4
1511884328099351,4,9,5,-1,-2,-2,-5,-6
1511884328099351,-6,-18,-8,0,-1,-3,-3,-4
1511884328114391,4,8,3,-2,-2,0,2,8
1511884328114391,-3,0,-6,-3,0,1,-1,-2
1511884328115394,-3,2,0,6,0,1,-3,-2
1511884328115394,2,0,-2,-1,-1,0,1,4
1511884328128451,0,-2,-2,-2,0,0,3,5
1511884328128451,-2,-5,5,3,1,0,0,-2
1511884328136953,1,-7,-6,-3,-3,-3,-3,1
1511884328136953,-1,6,-4,-6,0,-1,-1,-4
1511884328151524,4,-1,-1,-3,-2,2,4,13
1511884328151524,2,1,-2,0,0,1,2,-3
1511884328159515,-11,-2,2,2,1,-1,1,-11
1511884328159515,-2,1,2,4,2,-2,2,-3
1511884328174582,1,-1,-4,-6,-4,-5,-5,-2
1511884328174582,3,1,0,1,0,0,-2,5
1511884328174582,2,-3,-4,-4,-7,-7,-12,-5
1511884328174582,6,3,6,4,5,4,6,14
1511884328188624,-10,14,4,-11,-5,-4,-2,-23
1511884328188624,4,5,-4,9,1,2,3,9
1511884328196613,-3,-12,4,-2,-1,2,2,-2
1511884328196613,0,2,-1,-1,-1,1,0,7
1511884328210678,0,-7,-3,2,0,-3,-2,0
1511884328210678,-4,-5,-2,-7,-5,-2,-1,-3
1511884328219674,2,6,2,-2,1,1,3,4
1511884328219674,3,-3,-2,-2,-1,0,3,-3
1511884328234716,-9,-3,-1,2,0,-4,-12,-14
1511884328234716,0,-1,-1,-2,2,-1,-3,-1
1511884328235244,-3,-5,-2,0,1,2,1,2
1511884328235244,0,-1,0,-5,-3,-2,0,-2
1511884328248253,13,-1,-4,2,0,2,7,16
1511884328248253,0,-5,2,7,4,1,0,5
1511884328256414,0,1,-4,-5,-5,-5,4,2
1511884328256414,-2,4,-1,-3,-5,-7,-26,-29
1511884328271427,-7,-8,2,4,3,0,1,-1
1511884328271427,0,5,-3,-7,-6,-4,-2,4
1511884328279476,-5,-8,-8,-4,2,1,-3,-8
1511884328279476,-4,-2,2,1,0,0,7,3
1511884328294489,8,0,1,4,5,0,-8,6
1511884328294489,5,1,-1,-6,-4,0,4,7
1511884328295492,-8,5,0,-1,1,2,1,-7
1511884328295492,0,7,1,2,-4,3,1,2
1511884328308526,14,-7,-1,-1,-4,2,8,19
1511884328308526,-16,-6,-4,1,0,2,5,-10
1511884328316575,5,11,0,-1,-2,-2,-4,4
1511884328316575,-14,-4,-1,-1,-1,-8,-13,-30
1511884328331587,7,1,-1,0,0,-2,-2,11
1511884328331587,14,3,1,1,1,-2,-3,-3
1511884328339665,-16,-10,-3,0,-2,-1,-3,-3
1511884328339665,3,4,0,-1,3,5,15,21
1511884328354679,-3,-2,-2,-1,0,-1,-5,-7
1511884328354679,-20,-13,-4,-2,0,-2,-9,-15
1511884328354679,8,7,2,1,-2,-3,0,-1
1511884328354679,3,2,1,-2,-1,-1,-3,4
1511884328368717,-2,2,-2,-2,0,4,13,10
1511884328368717,14,0,3,4,0,-2,-4,-6
1511884328376765,0,12,2,2,0,3,5,-1
1511884328376765,-8,-23,-15,-6,-4,-6,-2,3
1511884328390807,-32,10,-2,-5,-2,-5,-22,-28
1511884328390807,20,-6,-10,-1,0,-2,-9,4
1511884328398798,13,19,7,-3,3,4,7,2
1511884328398798,8,-12,5,5,5,3,12,17
1511884328413837,-11,-16,-9,-3,0,-2,2,10
1511884328413837,-12,15,9,-2,0,-3,1,-8
1511884328414839,-16,-10,-8,-2,-2,-1,0,1
1511884328414839,40,15,7,-3,0,3,-4,-4
1511884328428877,15,-5,1,1,-1,0,8,5
1511884328428877,-10,-8,2,2,0,0,1,-1
1511884328436901,2,-9,-5,1,-4,-3,-3,4
1511884328436901,-17,0,-1,0,-4,1,-1,-7
1511884328451552,-15,-1,-1,-1,-4,-1,-3,-13
1511884328451552,-5,-8,-3,0,-2,-1,-1,-1
1511884328459552,12,8,0,-2,-2,-3,-3,6
1511884328459552,-23,-18,-6,-1,0,-2,-2,1
1511884328474622,-1,3,2,-3,-2,0,-4,-10
1511884328474622,19,29,13,3,3,4,10,17
1511884328474622,-3,-18,-18,-1,-1,-2,-5,-1
1511884328474622,-6,-8,-3,2,-2,-2,-6,-7
1511884328488659,7,7,-7,-2,-3,-3,0,-3
1511884328488659,-7,-16,-1,0,1,2,5,5
1511884328496677,-2,7,9,-1,-2,-5,-6,-2
1511884328496677,-9,6,4,2,2,-1,-5,-6
1511884328510714,16,-6,-6,-1,2,3,6,8
1511884328510714,-17,-3,-24,-8,-1,2,1,0
1511884328519726,1,4,23,8,-2,-1,-1,-3
1511884328519726,-4,3,-5,-2,-3,-3,-5,-2
1511884328556362,10,9,-18,-1,2,2,3,6
1511884328556362,-3,1,-4,2,-1,-5,-7,-8
1511884328565387,-13,-10,-16,-1,2,-1,-3,-12
1511884328565387,0,11,5,-3,-3,1,2,3
1511884328565387,-2,0,44,3,-1,0,-3,0
1511884328565387,14,9,13,-15,-1,2,5,10
1511884328566358,-11,-8,48,13,1,-4,-3,-2
1511884328566358,1,5,19,0,0,-4,-5,-7
1511884328571405,7,-12,-8,-9,1,3,1,2
1511884328571405,-3,3,-20,-12,-5,2,-2,-1
1511884328580429,1,-4,-18,-6,-2,2,2,1
1511884328580429,6,8,-22,12,12,1,1,1
1511884328593459,-6,-4,2,-29,-10,-1,1,0
1511884328593459,-6,0,-10,-5,-9,-3,-3,-4
1511884328601451,3,-8,-14,-6,-5,-1,0,-2
1511884328601451,4,-4,-14,0,-5,-6,0,0
1511884328608497,-5,-1,-5,4,1,-3,1,2
1511884328608497,-8,-6,-9,14,5,-3,-6,-8
1511884328616518,5,-6,-32,-2,0,-2,-1,0
1511884328616518,10,5,-2,-9,-1,2,2,3
1511884328631532,-3,-5,-22,9,0,-2,-3,-3
1511884328631532,-1,-7,3,2,-1,-1,0,-2
1511884328639610,-1,0,5,-16,1,3,0,0
1511884328639610,-4,-7,28,26,1,1,2,2
1511884328653622,-1,4,27,-4,0,0,0,0
1511884328653622,-5,-4,29,13,-2,-4,-5,-4
1511884328661645,-4,3,5,-7,0,-1,-1,1
1511884328661645,1,2,-5,-19,-4,0,0,0
1511884328668695,2,7,-4,6,-2,-1,0,1
1511884328668695,-1,1,-12,-1,2,0,2,1
1511884328676719,3,3,-19,-16,-5,-2,0,-1
1511884328676719,-3,-7,-6,0,-2,-2,-3,-2
1511884328690855,8,6,-9,11,6,-2,-5,0
1511884328690855,-2,0,0,-30,-4,-2,-1,-6
1511884328699749,3,-2,8,32,-3,-1,1,2
1511884328699749,-4,-3,-4,-5,7,1,0,-2
1511884328713899,-5,-2,0,29,5,0,-3,-4
1511884328713899,1,-5,-4,-72,-22,23,4,1
1511884328722807,1,5,-3,27,7,-22,-3,0
1511884328722807,-5,-1,-6,-12,-9,-12,-5,-3
1511884328728826,-8,-6,8,23,5,-1,0,-5
1511884328728826,7,0,-1,-8,1,7,1,3
1511884328745373,-1,-3,-1,-2,12,19,1,0
1511884328745373,-3,-6,10,12,-14,-27,-7,-1
1511884328751536,-3,-8,-5,-11,-2,-2,-2,-1
1511884328751536,0,2,11,30,-5,-6,0,3
1511884328760557,7,-2,-2,-21,-4,2,-1,0
1511884328760557,6,21,-13,-7,7,10,7,4
1511884328773595,-2,3,-7,-30,-7,2,-3,-3
1511884328773595,-2,-2,-1,32,0,-11,-1,-1
1511884328782617,-3,8,-7,-19,-2,7,1,1
1511884328782617,-12,-15,2,29,-2,-11,-7,-4
1511884328796666,15,24,1,-20,-6,0,5,2
1511884328796666,-1,-4,5,5,5,-6,-2,0
1511884328804677,6,-11,2,24,6,3,4,4
1511884328804677,-1,3,1,-13,-16,2,0,-2
1511884328810694,-3,-11,0,-1,25,8,-1,-1
1511884328810694,7,2,-1,11,15,1,4,10
1511884328819717,-8,2,-11,2,-8,-4,-7,-22
1511884328819717,-10,-9,-8,-45,-18,2,2,-1
1511884328833754,16,11,20,28,2,-6,0,11
1511884328833754,0,4,-2,-12,-19,-5,-5,-3
1511884328842779,-1,5,7,8,33,9,6,8
1511884328842779,-2,-11,-4,-2,4,11,-2,-12
1511884328856366,-5,-3,-10,-9,-1,1,1,0
1511884328856366,2,-3,8,-3,-2,-4,1,-1
1511884328865409,-7,-6,10,-41,-30,-19,-5,-3
1511884328865409,0,1,-1,29,5,7,-2,-3
1511884328871406,-9,-2,11,18,-1,-1,3,1
1511884328871406,-9,-19,-28,-12,-28,-13,2,-3
1511884328880430,7,-9,-2,-2,7,-14,-13,1
1511884328880430,4,16,13,13,30,23,11,4
1511884328893621,-13,-9,-9,-7,-1,6,4,-4
1511884328893621,-4,-13,0,0,7,-8,-7,-1
1511884328902488,-13,9,-48,-31,-10,5,8,-5
1511884328902488,0,-11,-1,0,-14,-7,0,-7
1511884328916529,25,4,8,35,16,3,-9,-1
1511884328916529,-11,19,9,-7,-18,-19,-16,-17
1511884328925667,33,3,13,10,-9,3,8,31
1511884328925667,-30,-19,-7,-5,7,-2,-5,-15
1511884328930563,-10,-3,21,-1,-14,-7,-14,-14
1511884328930563,14,0,-11,2,22,13,9,3
1511884328940092,-11,-2,9,16,-5,-2,-7,-5
1511884328940092,0,2,2,-9,0,2,10,5
1511884328953128,1,13,14,-1,-6,-3,4,9
1511884328953128,-3,-42,-22,4,0,5,4,1
1511884328962179,6,26,28,7,8,2,1,3
1511884328962179,-18,-11,3,-2,1,0,-3,-12
1511884328976190,20,13,-17,-20,-14,-8,-7,0
1511884328976190,1,-3,13,19,16,11,9,14
1511884328985213,-6,-17,-4,1,-10,-1,8,12
1511884328985213,-1,17,-9,-12,-12,-5,-12,-14
1511884328991260,-31,-6,-3,-5,-1,-10,-11,-14
1511884328991260,10,22,22,24,3,-1,-6,1
1511884329000253,12,-3,1,6,6,5,1,3
1511884329000253,6,10,6,-3,-2,2,2,12
1511884329013289,10,-4,-6,-9,-2,7,15,5
1511884329013289,-18,-3,-2,3,-4,2,8,5
1511884329022312,-6,-3,-5,-4,-3,-6,-12,-8
1511884329022312,10,-1,-5,-20,-16,-10,-20,-13
1511884329036378,-4,-19,-9,6,13,3,4,5
1511884329036378,-23,6,-10,-10,6,6,-2,-7
1511884329045430,3,0,5,14,9,5,2,-12
1511884329045430,14,-2,-3,-4,-6,-6,18,18
1511884329051473,30,10,-1,-31,-8,-2,5,21
1511884329051473,-14,-1,-1,-2,0,-5,-14,-24
1511884329060500,-7,2,-4,-10,1,6,-6,-8
1511884329060500,4,-10,-7,10,2,-3,-4,7
1511884329073505,-21,6,-12,-5,-4,-7,2,-3
1511884329073505,12,19,12,5,1,-3,2,6
1511884329082529,10,-24,-28,-9,-3,2,0,1
1511884329082529,7,0,15,-3,-1,3,-2,1
1511884329112636,-10,-5,-1,10,7,2,3,0
1511884329112636,4,-3,-7,-9,-3,-1,2,-1
1511884329113639,-9,4,6,2,-5,-6,-2,-5
1511884329113639,-1,4,-4,5,9,11,13,15
1511884329134718,-4,-13,-11,-10,-9,-9,-1,-2
1511884329134718,1,6,-8,8,9,0,-12,-9
1511884329142239,-4,8,8,-5,-8,-5,-9,-4
1511884329142239,20,-6,-2,3,3,4,9,14
1511884329165278,-16,3,5,4,-4,-7,0,-22
1511884329165278,-3,-3,6,1,-9,-8,-7,-3
1511884329166281,0,4,8,1,-3,-4,-8,3
1511884329166281,-12,-8,2,4,3,-3,-5,-3
1511884329171314,-3,-7,-13,0,-2,6,-2,3
1511884329171314,1,-3,-3,4,4,10,11,-1
1511884329172298,2,-3,3,-2,2,-5,14,16
1511884329172298,15,7,-22,-3,-5,-3,-9,-7
1511884329180317,0,-10,-6,3,1,5,1,5
1511884329180317,-5,0,5,-20,3,-4,-4,-17
1511884329181320,1,-3,4,-1,-3,-1,-3,-3
1511884329181320,-8,14,7,6,-1,1,3,3
1511884329193383,2,-12,3,-1,4,6,7,15
1511884329193383,12,5,4,2,6,-3,0,8
1511884329202377,-13,0,-2,1,0,3,-5,-7
1511884329202377,-4,10,-2,-4,-6,-8,-4,-9
1511884329216414,-7,-7,-5,-6,-14,-8,-12,-10
1511884329216414,15,0,7,8,6,6,12,19
1511884329225468,-17,-5,-1,3,5,3,4,-22
1511884329225468,1,-2,7,3,3,0,-3,3
1511884329231478,-2,6,5,5,0,-3,-16,-9
1511884329231478,7,-4,-10,-5,-4,4,10,13
1511884329240526,6,8,0,0,-9,-6,9,9
1511884329240526,-7,-5,1,-2,2,0,-2,-8
1511884329268626,1,0,1,-1,-4,-4,-8,-2
1511884329268626,-1,-2,0,1,1,-1,-5,-1
1511884329277626,-5,9,3,-5,2,5,3,-6
1511884329277626,-1,-20,-12,-3,-4,0,5,-6
1511884329300687,17,34,6,4,3,2,5,14
1511884329300687,-13,-31,5,12,-3,-1,-5,-4
1511884329302692,3,-2,-4,2,8,0,3,5
1511884329302692,2,12,-7,-2,2,2,1,1
1511884329320753,-2,-3,-1,2,-4,-6,-4,-11
1511884329320753,3,9,-4,4,-11,-8,-5,-5
1511884329329766,-6,-6,-7,-7,-2,14,2,1
1511884329329766,-2,3,5,17,5,-11,-5,3
1511884329352832,-4,-9,-1,-12,-13,3,4,-3
1511884329352832,1,5,0,-13,-2,-5,0,3
1511884329353835,-8,-18,-5,7,4,-8,-5,-3
1511884329353835,4,7,7,-16,-1,6,2,4
1511884329374891,-2,-6,-8,2,-1,13,9,5
1511884329374891,-3,8,6,0,-3,-14,-10,-13
1511884329376897,7,-9,-13,-7,-5,-2,-4,2
1511884329376897,-4,14,8,-6,-4,-5,-2,1
1511884329395974,-7,-8,3,4,5,-2,6,-2
1511884329395974,3,-13,-7,-7,-3,-1,-6,4
1511884329404998,-10,2,2,-1,-3,-3,-15,-18
1511884329404998,0,-1,1,4,4,7,11,12
1511884329428031,4,1,1,3,0,3,1,-1
1511884329428031,-2,2,-6,5,5,4,-2,-6
1511884329431041,8,9,10,4,-1,-4,1,6
1511884329431041,-4,-13,0,0,1,0,-1,-2
1511884329450121,2,0,1,-1,1,-4,-6,-2
1511884329450121,-3,-1,-5,-1,3,7,6,3
1511884329451152,-5,-2,7,-2,-19,-8,-5,-6
1511884329451152,1,-2,0,1,9,0,-2,0
1511884329471176,-2,-6,-2,-2,4,5,1,-2
1511884329471176,0,-2,-3,-13,-8,-7,0,2
1511884329480200,-2,11,-11,-7,1,1,6,3
1511884329480200,-1,-15,6,9,-10,-6,-1,1
1511884329503289,-6,-11,-9,-3,13,3,-7,-6
1511884329503289,-2,-22,0,0,9,6,4,3
1511884329505286,-1,-9,9,-4,-3,-4,4,4
1511884329505286,-2,0,-3,-5,-2,0,-2,-2
1511884329523339,0,10,4,3,-4,-4,-5,-6
1511884329523339,9,26,2,5,0,0,3,9
1511884329532342,-6,-23,-10,-4,2,0,4,-2
1511884329532342,8,-1,-4,0,0,0,-1,-3
1511884329554962,-5,3,5,0,-8,-8,-12,-12
1511884329554962,0,3,-1,2,2,6,-1,-4
1511884329556967,3,26,9,5,1,-3,11,6
1511884329556967,1,-5,-3,-1,-2,-9,-11,-1
1511884329578022,-2,1,-2,-4,-2,-5,-10,-10
1511884329578022,-1,6,0,-1,-6,-1,-4,-3
1511884329580058,1,-4,-3,4,5,3,3,6
1511884329580058,0,1,-2,-1,-1,6,18,9
1511884329599102,1,3,-1,-5,-2,-3,0,3
1511884329599102,-3,-5,11,8,-2,-4,-9,-5
1511884329606099,-3,-2,3,4,4,3,-2,-1
1511884329606099,-1,4,2,-2,4,0,-2,0
1511884329630189,-2,-8,-12,-2,5,5,8,5
1511884329630189,5,19,7,2,5,6,11,5
1511884329631191,3,-19,-7,-1,-3,-6,-9,0
1511884329631191,-2,-5,8,6,-3,-11,-13,-12
1511884329637223,-3,1,-5,-18,-21,-9,-1,-4
1511884329637223,-4,-10,-9,-2,15,9,0,-3
1511884329637734,9,27,10,3,3,-1,5,6
1511884329637734,-3,-13,-14,-7,-3,2,-7,-6
1511884329645231,-3,-9,6,6,1,-2,1,5
1511884329645231,0,-3,-3,-5,-13,-5,1,2
1511884329646735,5,1,1,-4,-3,4,0,3
1511884329646735,-3,1,1,0,2,4,7,1
1511884329652252,-8,-5,4,1,-1,-4,-8,-9
1511884329652252,-5,-14,-2,-2,-2,-5,-8,-8
1511884329652252,-3,4,-9,-1,3,1,-2,-4
1511884329652252,7,2,-4,0,-2,2,-3,6
1511884329659271,7,5,3,6,2,4,10,8
1511884329659271,0,17,4,1,2,-2,-2,0
1511884329660273,-6,-22,-12,-3,-5,1,-1,-4
1511884329660273,-3,2,-2,-3,-4,0,1,-2
1511884329667318,2,5,-1,-1,4,4,6,5
1511884329667318,3,12,3,-3,0,-2,5,3
1511884329669327,0,2,-2,-2,-2,-4,-6,-5
1511884329669327,2,4,5,0,4,2,-1,1
1511884329674309,2,-4,-3,2,5,0,-5,-4
1511884329674309,0,4,0,-1,-5,-4,-4,-1
1511884329675312,-2,-7,-2,0,-3,1,2,0
1511884329675312,-2,7,0,-8,-1,-3,-5,-7
1511884329682335,-4,-1,-7,-2,0,-8,-6,-5
1511884329682335,1,0,3,-3,-5,-3,2,3
1511884329684340,-2,-4,3,9,4,4,-4,-2
1511884329684340,-4,-2,-5,-7,-4,-2,2,0
1511884329696371,7,-1,5,1,-2,2,3,7
1511884329696371,-10,-12,-2,-2,-5,-1,-4,-15
1511884329703390,7,14,3,-3,0,3,2,5
1511884329703390,-1,-22,-1,0,0,2,0,-2
1511884329720459,-3,-12,-9,-4,-1,0,3,-1
1511884329720459,3,24,-1,2,3,0,-3,3
1511884329721435,-7,-4,2,-4,-2,-7,-3,-5
1511884329721435,-2,8,2,1,1,-4,-1,0
1511884329733470,-2,0,-2,2,-2,0,4,3
1511884329733470,0,-14,-3,3,0,-3,0,0
1511884329742994,0,0,-4,-4,-4,-4,-2,0
1511884329742994,-1,8,-3,-1,0,1,2,0
1511884329756148,1,-3,2,1,3,4,0,3
1511884329756148,-3,-8,-1,-2,-6,-3,-4,-4
1511884329765169,-5,10,3,0,-1,-2,-12,-11
1511884329765169,-1,-4,1,0,-6,-4,-2,-1
1511884329780375,-2,-13,2,2,-8,2,6,2
1511884329780375,4,12,3,2,13,6,4,4
1511884329781338,1,-19,-5,-2,1,4,7,6
1511884329781338,4,28,13,4,2,2,-4,1
1511884329794275,1,6,7,2,-7,-1,-4,-7
1511884329794275,-1,-14,-8,-5,-7,-2,-4,4
1511884329802271,-3,2,2,-3,2,-2,0,-5
1511884329802271,0,-5,-3,-2,-1,2,3,3
1511884329816309,-1,1,-2,1,2,0,8,4
1511884329816309,-5,-9,-4,2,-2,-3,0,-2
1511884329825332,-1,0,1,1,-4,-3,-10,-4
1511884329825332,-1,3,-1,0,-1,-1,-4,-4
1511884329840527,-3,-6,-3,-1,2,-2,-6,-2
1511884329840527,2,-6,0,-2,1,5,9,6
1511884329841997,4,1,-2,1,-3,0,4,1
1511884329841997,-6,3,-4,0,-3,-1,-10,-9
1511884329854150,-2,-6,9,6,3,2,1,0
1511884329854150,-1,4,1,1,0,0,-1,-4
1511884329862351,3,-1,1,0,2,2,2,9
1511884329862351,2,-4,-3,0,1,-6,4,0
1511884329876199,-2,2,-10,-2,2,-3,-7,-5
1511884329876199,-2,-10,1,1,-6,-7,-5,-4
1511884329885219,2,14,14,2,0,0,-2,-1
1511884329885219,-5,-18,-14,-5,-1,3,-2,-3
1511884329900263,7,9,1,0,0,1,0,4
1511884329900263,-2,-2,-8,-4,0,3,7,7
1511884329901267,-4,13,7,2,0,-1,-7,-9
1511884329901267,-5,-23,-5,-1,-1,-3,-3,-3
1511884329913327,-3,-1,-2,-2,1,0,-5,-2
1511884329913327,1,-11,0,0,-1,-1,0,1
1511884329922353,2,13,-8,-2,2,2,6,4
1511884329922353,-1,-4,0,1,-1,-1,-1,1
1511884329936388,3,8,-2,-1,2,7,9,5
1511884329936388,-1,-1,-1,-1,-1,-4,-11,-6
1511884329945412,-5,-11,-9,-2,-3,0,7,-1
1511884329945412,0,8,2,1,0,-1,1,-4
1511884329960022,4,6,1,-1,-2,-1,-3,4
1511884329960022,0,2,1,0,-3,-4,-5,-5
1511884329962000,0,-9,0,-1,-1,-1,-1,2
1511884329962000,-3,5,0,3,2,1,1,0
1511884329974032,-3,1,4,-5,-2,-2,4,1
1511884329974032,0,-7,-4,-1,-1,-1,-1,2
1511884329983057,-1,-21,-9,-3,0,-3,-5,-5
1511884329983057,2,19,-1,-4,-1,-1,-4,-5
1511884329996118,-5,-16,2,-2,-5,-7,-6,-5
1511884329996118,-3,2,3,-3,-5,1,-1,-1
1511884330005114,-1,-3,-4,-1,2,4,4,5
1511884330005114,-1,-6,-6,-1,-2,6,1,3
1511884330020155,-3,10,8,2,6,5,2,-5
1511884330020155,3,1,-2,0,-2,3,1,1
1511884330021185,-2,1,-8,-6,-3,-4,-6,-5
1511884330021185,-4,-4,4,-2,-4,-3,-1,0
1511884330033216,5,-2,-1,-1,-3,-3,-6,2
1511884330033216,-1,-3,2,2,2,4,5,-1
1511884330042718,-2,0,-1,0,-1,-4,-4,-1
1511884330042718,3,5,-1,-3,2,-2,-4,3
1511884330055755,-9,-17,-7,-4,-1,-3,1,-3
1511884330055755,0,6,-6,-1,2,-2,2,5
1511884330064779,5,4,3,-2,-1,4,4,1
1511884330064779,-2,-6,-7,0,-6,-10,-10,-5
1511884330079844,-2,-12,-7,-2,-1,-1,2,-3
1511884330079844,-1,3,1,-1,-1,-1,1,-1
1511884330081827,-5,-4,2,-1,0,1,2,2
1511884330081827,6,9,10,1,3,2,2,-4
1511884330093887,2,-24,-22,-2,-1,2,-3,1
1511884330093887,1,5,5,-1,-1,-1,-2,0
1511884330102879,1,1,-2,-2,0,0,3,3
1511884330102879,-2,-7,-7,-1,-1,1,-4,-4
1511884330115914,1,3,3,1,-1,-5,-9,-1
1511884330115914,-1,16,3,0,0,-1,1,1
1511884330124938,-3,-6,-1,3,1,-2,0,-6
1511884330124938,-1,3,3,-1,-1,0,3,-3
1511884330140008,-3,4,1,0,-3,1,3,1
1511884330140008,-4,-9,-5,1,2,1,-2,-1
1511884330142013,2,4,1,1,0,-1,-1,1
1511884330142013,-3,-4,-5,0,3,2,3,3
1511884330153074,2,21,10,0,-2,-2,-6,-5
1511884330153074,1,9,2,-2,0,0,-3,-4
1511884330163092,-2,-12,-10,-1,-3,1,-1,-2
1511884330163092,-1,-2,1,-3,-1,2,6,5
1511884330176108,-3,0,-5,-2,0,1,3,2
1511884330176108,1,-9,-1,-3,-1,-1,1,0
1511884330185132,-1,4,4,1,-1,0,0,0
1511884330185132,1,-2,0,3,1,-5,-3,1
1511884330200173,-1,8,2,0,-1,-2,3,0
1511884330200173,-3,-9,-2,-2,-4,-1,-5,-3
1511884330201176,5,5,3,-2,-2,-2,4,1
1511884330201176,-4,-13,-6,-4,-1,-1,-5,-4
1511884330213208,-1,4,0,0,2,0,-2,-7
1511884330213208,-2,-2,1,1,1,-1,-4,-4
1511884330222231,-3,-2,-5,-2,-1,-1,-2,-2
1511884330222231,3,10,4,-1,-1,1,4,3
1511884330236272,1,-3,-2,-1,2,3,6,8
1511884330236272,-3,-4,-2,-2,-3,-1,-2,-4
1511884330245296,-5,4,14,-2,0,-2,-5,-4
1511884330245296,1,-3,-2,0,-1,-1,1,0
1511884330260336,-4,5,0,0,-2,-2,3,-1
1511884330260336,-4,-14,-5,-1,1,-2,-2,-2
1511884330261339,2,1,-3,1,1,-1,-3,1
1511884330261339,6,2,-1,1,1,0,-1,4
1511884330273399,-1,-8,-1,2,-2,2,2,4
1511884330273399,0,3,-2,-1,-5,-3,1,-2
1511884330282406,-2,-2,-1,-2,-2,-5,-18,-10
1511884330282406,0,-7,-1,-2,-1,2,-1,-1
1511884330296462,-1,3,2,0,1,0,1,1
1511884330296462,4,0,6,5,3,0,4,2
1511884330305458,-2,-1,-2,3,0,-1,4,1
1511884330305458,4,-6,0,2,0,1,7,9
1511884330319495,-7,-7,-8,-3,-4,-7,-9,-14
1511884330319495,1,11,-1,-1,-2,-5,-11,-7
1511884330321509,4,-6,-6,-1,-3,-1,2,5
1511884330321509,-4,1,5,0,-1,2,-3,-5
1511884330333531,4,-3,-3,0,0,2,11,7
1511884330333531,0,-4,-1,-1,2,3,2,7
1511884330342585,-4,-4,-5,-3,0,-1,-9,-13
1511884330342585,-6,-2,-9,-1,-1,-3,4,2
1511884330356169,-6,4,2,-3,0,-4,-9,-9
1511884330356169,10,-3,-1,-1,0,6,4,7
1511884330365177,0,-6,0,-2,-3,2,3,3
1511884330365177,1,1,2,-3,1,1,-2,2
1511884330380233,1,11,7,-1,2,0,-4,-7
1511884330380233,-6,-16,-11,-4,0,-1,2,0
1511884330381226,-4,1,0,1,0,-3,0,1
1511884330381226,-1,0,1,1,-6,-5,-9,-11
1511884330393267,7,4,1,1,-1,2,1,7
1511884330393267,0,0,0,0,-2,2,9,9
1511884330402266,-3,-5,-2,-3,-1,0,0,-6
1511884330402266,-13,-1,0,-1,-2,-4,-11,-13
1511884330416303,3,0,-2,-4,-3,1,2,5
1511884330416303,-4,6,13,3,-1,0,-8,-12
1511884330425327,0,-12,-6,0,0,2,7,1
1511884330425327,5,5,0,-1,-1,-2,0,6
1511884330440407,0,-8,-4,0,0,-2,-3,5
1511884330440407,-5,10,-12,-6,-1,-4,-1,-2
1511884330441901,1,-8,0,-2,-3,-7,-10,-4
1511884330441901,2,2,8,6,3,5,8,4
1511884330453431,-9,-5,-6,1,0,-2,-1,-8
1511884330453431,4,3,1,-1,3,1,3,4
1511884330462453,0,2,0,-2,1,-1,3,2
1511884330462453,-2,-5,-4,-2,-4,-4,0,-2
1511884330476492,3,5,3,-2,-4,-3,-5,-1
1511884330476492,-13,-13,-5,-5,-5,-4,-9,-9
1511884330484545,-2,-2,0,0,0,0,-2,0
1511884330484545,1,-1,-2,-1,2,3,5,6
1511884330499552,0,2,1,2,1,4,6,3
1511884330499552,4,0,-3,-1,-2,1,1,-2
1511884330506572,4,3,9,3,0,2,0,-1
1511884330506572,0,-12,-8,-3,0,1,2,1
1511884330513591,4,-1,0,1,-1,-5,-1,-2
1511884330513591,-9,-8,-2,0,0,1,0,2
1511884330522615,-4,5,-5,-2,-2,-1,-5,-5
1511884330522615,-2,7,0,-2,-1,-2,0,1
1511884330536206,-2,3,2,2,2,-1,-6,-4
1511884330536206,4,2,3,3,1,-3,-1,-3
1511884330545202,0,-3,-3,0,-1,-1,2,2
1511884330545202,0,4,-3,-5,-2,-3,-4,1
1511884330559743,1,-4,-1,-2,1,3,9,2
1511884330559743,-2,5,7,2,0,0,-3,-7
1511884330565787,-9,-4,-13,-9,-9,-8,-6,-13
1511884330565787,8,3,9,3,2,0,-5,0
1511884330573780,-8,-14,-2,2,2,-2,-9,1
1511884330573780,-1,5,-2,1,-1,-4,2,-1
1511884330582835,-3,1,2,4,4,2,6,5
1511884330582835,-4,-7,-6,-4,-5,-1,4,2
1511884330595841,-4,1,1,-2,-4,-3,3,-4
1511884330595841,1,-2,-9,-3,0,-1,-4,0
1511884330604865,7,1,0,-1,0,1,-4,2
1511884330604865,0,-1,-1,2,0,0,6,3
1511884330618928,4,-4,5,0,-4,-3,-8,-3
1511884330618928,-2,-3,-8,0,-4,-5,-5,-10
1511884330625921,-9,2,-2,-1,-5,0,0,-2
1511884330625921,2,19,7,0,-2,2,-2,-1
1511884330642488,3,-20,-10,-1,0,3,0,2
1511884330642488,-2,1,4,-4,-2,0,0,-3
1511884330644520,6,-1,0,1,1,4,6,13
1511884330644520,-3,2,3,-2,1,-4,-4,-5
1511884330656026,-1,5,-5,-4,-5,-4,-4,-4
1511884330656026,-3,0,4,1,0,-2,-5,-1
1511884330665051,-3,2,1,2,2,1,1,-3
1511884330665051,-9,-3,-4,0,4,4,9,-4
1511884330679220,2,-2,-3,-2,-3,-2,0,1
1511884330679220,5,-16,-5,0,3,0,2,10
1511884330686234,-1,6,9,3,2,0,-3,-6
1511884330686234,-2,-7,-3,-2,-3,-4,-10,-4
1511884330702193,-3,11,5,-1,1,2,-4,-5
1511884330702193,0,3,-3,-1,2,3,4,-1
1511884330704190,9,1,0,-3,-3,1,-2,10
1511884330704190,-3,-6,0,1,-4,-2,-3,-6
1511884330716218,-6,4,1,0,1,2,-3,-13
1511884330716218,10,3,1,-3,-1,6,7,16
1511884330725215,-4,6,-2,-4,-3,-1,-4,-6
1511884330725215,6,-7,-4,1,2,4,12,14
1511884330739853,-12,7,11,5,-1,-11,-22,-32
1511884330739853,7,-1,-6,-5,-5,-8,-5,9
1511884330746331,-5,-12,-2,2,5,3,5,3
1511884330746331,1,-2,4,1,5,3,-3,0
1511884330763033,3,4,-5,1,0,1,5,1
1511884330763033,-18,-2,-2,-1,-4,0,-2,-15
1511884330763919,3,-1,-1,-1,0,-4,-6,0
1511884330763919,2,3,-5,-3,-1,-1,7,7
1511884330775998,3,-5,-5,3,6,6,8,7
1511884330775998,0,7,14,7,2,5,5,4
1511884330784974,0,5,-6,1,-4,-5,-14,-14
1511884330784974,-3,-1,-1,2,-6,-4,-8,-7
1511884330799041,3,5,0,-3,-2,-3,-1,2
1511884330799041,5,4,-2,-1,4,5,14,7
1511884330806053,-3,-13,7,3,3,5,12,12
1511884330806053,1,3,4,1,0,-3,-7,-7
1511884330822074,1,-3,-13,-3,-7,-1,-7,4
1511884330822074,1,11,14,3,-5,-5,-5,-10
1511884330824078,-2,-7,-4,-4,-2,-5,9,0
1511884330824078,-7,-11,-5,-5,4,-2,-3,-5
1511884330836616,2,6,1,-5,2,-2,5,10
1511884330836616,-12,-9,-5,-3,-1,-2,-3,-11
1511884330845139,-3,7,5,4,-2,-3,-21,-19
1511884330845139,-16,2,0,0,-3,0,0,-15
1511884330859178,18,-21,-12,-1,-5,-3,-7,12
1511884330859178,5,25,8,2,-4,-4,-8,7
1511884330866204,12,-1,1,-3,0,3,11,12
1511884330866204,-7,-14,-2,2,5,14,19,1
1511884330882241,-4,1,0,0,1,1,14,18
1511884330882241,-15,-17,-11,-4,-3,-9,-31,-26
1511884330884245,-7,-2,-10,-8,-9,-7,-12,-17
1511884330884245,6,12,4,-1,0,2,2,9
1511884330896282,-7,5,5,-3,0,3,1,-7
1511884330896282,7,-9,-4,1,0,1,-1,12
1511884330905307,-19,-2,-5,1,3,-2,-4,-17
1511884330905307,26,-2,-3,1,2,0,2,16
1511884330919346,4,1,1,-1,2,6,15,14
1511884330919346,-6,0,-4,-3,-2,-4,4,-4
1511884330926405,8,0,-1,-1,0,-3,1,-3
1511884330926405,10,14,1,-4,-9,-13,-17,-11
1511884330942410,-17,-19,-4,0,-6,-5,2,-1
1511884330942410,11,0,2,4,2,5,14,20
1511884330944416,-10,-1,11,3,2,7,16,14
1511884330944416,-20,-16,-14,-2,0,-6,-6,-12
1511884330989133,4,10,3,-6,-2,-3,-16,-20
1511884330989133,12,-4,-3,-4,-2,2,1,0
1511884330993114,17,5,0,1,-1,1,-3,25
1511884330993114,13,11,8,0,1,5,0,2
1511884331034221,10,-6,0,4,3,4,6,13
1511884331034221,2,-2,-3,0,-1,0,-2,-9
1511884331038763,-12,-10,-4,-3,0,-1,-5,-18
1511884331038763,-10,-2,-6,-2,-6,-3,-1,7
1511884331064929,-17,-5,-3,0,-2,0,-4,-16
1511884331064929,9,17,12,5,4,7,11,14
1511884331069942,19,-4,-2,-2,2,-2,0,7
1511884331069942,-56,-7,-8,-1,0,-3,-8,-20
1511884331070944,58,15,5,0,-2,-5,-4,7
1511884331070944,-12,-14,-1,-5,-2,-1,-8,-4
1511884331071946,18,19,15,0,1,-1,2,6
1511884331071946,-1,3,6,0,0,-3,3,-1
1511884331076961,-33,-26,4,-4,-1,-4,0,-9
1511884331076961,4,0,-2,-1,-3,-1,-1,2
1511884331077962,3,4,3,0,3,2,0,-2
1511884331077962,-11,-8,7,0,0,3,-3,-2
1511884331084981,-6,8,10,-2,0,1,-6,-6
1511884331084981,-11,-7,14,-6,0,-2,-2,-5
1511884331086996,-1,-6,1,5,-1,1,2,1
1511884331086996,19,4,-7,-6,-2,0,0,2
1511884331092031,-8,-2,-25,-7,-10,-3,0,1
1511884331092031,-17,0,-10,-2,0,-5,-3,-9
1511884331093010,-3,6,-6,7,3,-2,-3,-1
1511884331093010,13,-1,-4,-3,-6,0,0,10
1511884331099018,-8,-2,8,13,11,2,-1,-4
1511884331099018,3,-2,-24,-15,-4,-1,-2,-4
1511884331106037,-5,-9,4,-7,-7,-3,-1,-2
1511884331106037,10,3,-8,-11,-9,-2,-1,-1
1511884331122106,-16,0,0,26,18,0,0,-6
1511884331122106,5,-13,23,12,-6,-1,-1,4
1511884331124085,-4,4,-2,2,11,3,0,-2
1511884331124085,0,-1,-11,-14,-5,0,3,-2
1511884331136118,4,2,3,-10,-11,-3,-2,1
1511884331136118,3,3,-7,-3,5,1,4,3
1511884331145145,5,9,-21,-26,-10,1,-2,1
1511884331145145,0,-9,9,52,4,-5,-3,0
1511884331159184,1,9,-26,-2,-2,1,1,-3
1511884331159184,-5,-10,3,14,4,-4,-4,-1
1511884331166229,-3,1,1,-1,-2,-3,-3,-1
1511884331166229,3,-8,9,-9,-1,0,-3,-1
1511884331182246,7,15,36,-4,-1,1,2,-1
1511884331182246,-9,-23,-5,-5,-6,0,2,-3
1511884331184251,-7,-1,-20,-11,-9,2,5,-2
1511884331184251,7,7,-47,24,13,4,3,6
1511884331196309,4,0,-41,-5,-5,-2,0,1
1511884331196309,6,24,-8,-11,18,4,1,0
1511884331205307,4,3,6,-32,-15,-4,1,4
1511884331205307,-3,-3,19,-8,-4,1,-3,-4
1511884331219374,-4,7,17,-20,-5,0,-1,-2
1511884331219374,-1,-4,20,9,-1,-2,-5,-3
1511884331226362,-6,-9,4,-9,12,1,3,2
1511884331226362,-2,5,20,-8,-18,-4,0,-1
1511884331242466,0,-1,11,7,8,1,0,4
1511884331242466,-1,1,0,-4,-2,-3,-1,-1
1511884331244480,0,0,3,11,2,2,2,0
1511884331244480,-2,-5,7,3,0,-6,-1,-2
1511884331256483,3,0,-5,-12,-10,6,4,3
1511884331256483,3,-2,-15,12,13,-8,-2,2
1511884331264504,-7,-2,7,15,0,1,-2,-3
1511884331264504,4,0,16,-7,1,-2,-2,0
1511884331279579,2,-9,4,6,-4,0,1,0
1511884331279579,1,0,-5,-4,-9,-2,2,-3
1511884331285591,-5,-12,13,13,-1,-5,-3,-2
1511884331285591,0,5,-14,-30,2,2,-2,2
1511884331302636,-6,-11,12,16,2,0,-5,0
1511884331302636,-3,-4,-4,2,-1,5,-1,0
1511884331303639,1,7,-12,-17,0,3,-2,-3
1511884331303639,-1,-3,-7,-2,2,0,1,-1
1511884331315653,-4,2,-10,-8,-4,-8,-2,-3
1511884331315653,-3,-4,-7,11,-2,0,-2,-3
1511884331324698,1,2,2,13,9,-3,1,4
1511884331324698,0,3,-7,-10,-4,-3,-1,-3
1511884331339738,0,-7,-5,-15,-11,-3,1,2
1511884331339738,2,-3,-6,27,21,0,-2,3
1511884331346255,7,15,-23,-71,-22,12,4,2
1511884331346255,-4,-5,4,64,3,-19,-8,-8
1511884331362326,-3,-5,0,-9,-12,1,3,-3
1511884331362326,2,11,-14,-9,-6,14,5,1
1511884331364332,2,4,3,-3,-16,-12,-3,2
1511884331364332,4,3,-1,-9,7,4,2,1
1511884331376370,-8,-18,-6,13,16,3,0,0
1511884331376370,2,16,-1,-44,-2,9,5,4
1511884331385413,-9,-12,-16,14,12,-10,0,5
1511884331385413,7,-11,-5,-8,-1,5,5,-4
1511884331398423,-11,6,-1,5,-10,-13,-12,-11
1511884331398423,0,-5,4,-3,-4,3,3,4
1511884331407445,-2,-1,7,13,3,-3,-5,-9
1511884331407445,3,6,7,-10,-3,-2,-1,2
1511884331421484,11,5,3,-2,12,6,0,-1
1511884331421484,-1,-7,2,7,-8,-3,3,1
1511884331428502,-8,-6,6,30,0,0,-2,-7
1511884331428502,0,3,0,-16,-4,-2,0,3
1511884331436523,10,-13,-21,31,2,3,-4,1
1511884331436523,0,28,41,6,-6,-4,-2,-2
1511884331445582,0,-20,-14,9,1,0,6,6
1511884331445582,-14,0,-2,-26,-3,2,-14,-8
1511884331458176,6,-2,-12,23,12,-2,-3,2
1511884331458176,6,-4,1,21,2,-6,-3,0
1511884331467230,-3,6,0,9,9,14,7,-2
1511884331467230,-2,-4,0,1,8,-4,2,-2
1511884331482253,2,20,2,-9,-11,-3,1,-1
1511884331482253,-7,-14,-10,-14,-6,0,0,0
1511884331488256,10,10,40,8,2,0,2,1
1511884331488256,-10,13,-8,-1,-3,4,7,4
1511884331496305,-14,-17,-10,-22,-8,-9,-6,-11
1511884331496305,1,3,-2,-8,4,4,4,-3
1511884331505302,3,-15,-18,-6,6,4,-15,-6
1511884331505302,-7,9,22,3,0,-2,3,0
1511884331518362,2,-2,0,-7,2,0,-2,3
1511884331518362,-25,-9,-12,-7,-9,-4,-3,-11
1511884331527360,7,-9,0,-4,-2,-4,-1,7
1511884331527360,-2,-16,-7,2,-2,2,0,-2
1511884331541899,-1,16,20,-4,-4,0,5,16
1511884331541899,-1,2,11,11,-2,-4,-13,-36
1511884331548920,17,16,8,10,-3,-6,6,21
1511884331548920,5,-2,-5,4,-3,-4,-4,-1
1511884331555981,7,-3,6,5,0,-3,-7,1
1511884331555981,14,-2,-20,-15,-8,1,6,19
1511884331564978,-8,-20,7,10,-2,0,-1,-8
1511884331564978,-2,11,-16,-2,0,6,9,0
1511884331587035,-7,-23,10,-7,-1,4,4,-1
1511884331587035,9,27,3,-17,4,0,-6,1
1511884331589041,-5,29,-15,18,6,1,0,-2
1511884331589041,-1,-26,18,-1,-30,-10,-5,2
1511884331602097,-4,1,0,11,25,7,6,-4
1511884331602097,2,-7,3,26,0,-2,2,7
1511884331608130,-2,4,7,3,4,-4,-7,-5
1511884331608130,1,14,-10,-3,4,2,-5,-2
1511884331625138,-3,1,-10,-12,-11,-1,3,-1
1511884331625138,-8,-12,4,0,2,-2,3,3
1511884331626141,6,-3,-2,-4,-12,1,5,1
1511884331626141,0,-2,-7,15,17,2,-2,1
1511884331638677,11,14,4,-13,0,3,10,18
1511884331638677,-21,-10,-13,-5,1,1,4,-34
1511884331647700,-12,5,2,-3,-4,-8,-15,-16
1511884331647700,-1,-11,-8,-17,-4,-14,-32,-10
1511884331661279,3,-5,-8,-15,1,-1,-8,1
1511884331661279,11,-7,5,-4,-9,1,9,24
1511884331668286,-8,7,-7,15,6,8,16,2
1511884331668286,-25,-34,55,39,3,7,14,-7
1511884331700455,9,33,13,-1,-2,8,-4,-5
1511884331700455,2,-15,0,7,-1,-8,-7,4
1511884331701379,-12,-19,-16,-20,-9,1,2,0
1511884331701379,22,31,-11,-8,12,4,8,16
1511884331721477,-16,-14,2,-10,-7,-8,-6,-13
1511884331721477,-5,-12,5,8,-6,-2,-3,-2
1511884331730452,6,18,4,-6,17,4,-1,1
1511884331730452,1,-16,-7,14,5,6,7,1
1511884331752727,3,-1,-7,1,6,0,10,5
1511884331752727,5,-2,-15,-9,-4,-4,-11,-4
1511884331753661,3,3,2,-16,3,-1,-7,-9
1511884331753661,-3,6,-11,-10,-6,5,5,10
1511884331774812,-2,-11,-5,-8,-3,-7,-4,-6
1511884331774812,-7,3,8,-1,1,-6,-22,-19
1511884331780847,-21,-3,-4,-3,-10,-10,-11,-22
1511884331780847,25,8,-4,-14,0,0,-9,6
1511884331795884,-7,18,18,11,-7,6,11,1
1511884331795884,13,8,-5,-9,-1,4,16,14
1511884331806798,-9,-12,10,7,-1,3,8,6
1511884331806798,0,-3,-21,-31,-10,-10,-12,-12
1511884331827856,-4,-14,-1,9,-3,-8,-12,-3
1511884331827856,0,14,1,-1,2,-3,-4,-8
1511884331828909,-3,-19,-2,2,1,5,9,5
1511884331828909,4,3,-14,-4,4,5,13,7
1511884331848916,5,9,-1,1,-3,1,3,7
1511884331848916,-6,-12,-1,0,2,2,8,7
1511884331863522,7,-5,-2,-3,-3,-4,-6,-1
1511884331863522,-4,-1,0,-4,-2,-4,-5,-7
1511884331879651,-7,-3,-3,-1,-4,-4,-10,-15
1511884331879651,-5,1,3,1,-2,0,-9,-2
1511884331881543,8,9,-4,1,2,2,11,11
1511884331881543,-2,6,9,4,1,-3,2,-3
1511884331901599,-2,-17,-12,2,0,-1,1,3
1511884331901599,6,16,-4,-9,-4,1,-1,2
1511884331909621,-2,-5,1,0,-6,-5,-12,-4
1511884331909621,-7,4,-3,1,-2,-1,-8,-15
1511884331932679,-4,-2,3,1,-1,0,2,-2
1511884331932679,1,-8,-12,-3,1,-2,-1,11
1511884331933703,-3,-1,30,10,-1,-3,-5,-4
1511884331933703,0,2,0,3,2,3,5,4
1511884331954414,3,4,-5,0,4,0,5,3
1511884331954414,-4,-6,3,3,0,-3,2,-4
1511884331961407,7,9,0,-2,-4,-1,3,4
1511884331961407,0,-1,-7,-4,-1,-2,4,1
1511884331962409,-3,-15,1,7,-2,0,2,-2
1511884331962409,-5,8,3,-5,0,1,1,3
1511884331970456,-2,-15,-8,-4,1,-1,-10,-10
1511884331970456,6,-5,2,-1,-1,2,0,10
1511884331976447,-6,9,0,-5,-5,0,-10,-16
1511884331976447,-1,-7,-1,-1,3,3,3,3
1511884331977448,-1,1,-4,-1,-1,-4,0,-2
1511884331977448,3,-1,-6,1,7,6,3,3
1511884331984467,5,31,6,-1,-8,-5,7,9
1511884331984467,-6,-20,-9,-5,-3,-1,-9,-12
1511884331986472,-2,6,-1,-1,-2,-2,-10,-5
1511884331986472,-2,0,7,4,-2,0,12,7
1511884331991517,2,1,-3,0,6,5,6,5
1511884331991517,-1,3,-1,-2,-3,-5,-4,2
1511884331992489,-1,1,-6,-1,-4,-3,-5,-9
1511884331992489,-1,-6,0,-1,-3,0,-7,-10
1511884331999540,5,-11,-5,-3,0,5,1,8
1511884331999540,1,-6,2,2,-6,-1,5,1
1511884331999540,0,1,-13,1,9,5,8,4
1511884331999540,-4,11,5,3,-8,-11,-4,-4
1511884332007558,-3,-14,-6,-6,3,-4,-3,-7
1511884332007558,-2,-1,-7,1,-2,-6,-6,-9
1511884332008557,1,4,9,0,0,-2,-1,1
1511884332008557,-5,-11,7,2,-2,0,1,-2
1511884332021595,5,0,-10,-2,-2,0,-2,1
1511884332021595,3,1,-4,1,3,4,1,0
1511884332028585,0,6,4,1,2,3,4,4
1511884332028585,-1,0,3,-1,1,1,-7,-3
1511884332045131,-10,-12,-2,-4,0,-1,-1,-6
1511884332045131,4,7,13,1,-1,3,4,5
1511884332046635,6,-4,4,0,-2,-3,6,16
1511884332046635,-8,6,5,-1,-6,-8,-14,-23
1511884332058668,-5,1,0,0,-4,-3,-14,-9
1511884332058668,3,1,-8,-4,-1,1,4,1
1511884332067694,-1,3,-3,-5,-3,-1,-8,0
1511884332067694,2,-4,-3,1,1,3,2,4
1511884332081731,0,-4,-3,0,-2,-2,1,1
1511884332081731,-2,4,7,1,1,-1,0,0
1511884332088750,4,7,-2,0,0,0,4,3
1511884332088750,-1,-14,-16,0,3,0,2,0
1511884332104791,1,16,10,0,3,1,-1,-2
1511884332104791,-4,-8,9,6,0,1,5,0
1511884332106798,0,-1,-4,-2,-4,-3,-3,-9
1511884332106798,1,11,1,0,-4,-4,-2,-2
1511884332118856,-2,-18,-1,2,2,0,2,3
1511884332118856,-1,5,-4,-6,-4,-3,-8,1
1511884332127853,-2,3,-2,-1,1,2,-4,-3
1511884332127853,-4,-3,-5,0,2,1,5,-1
1511884332141919,2,6,3,0,2,1,2,2
1511884332141919,1,4,3,1,-1,-2,1,-4
1511884332148938,-3,0,-3,-4,-5,-3,0,3
1511884332148938,-1,-11,-2,-4,0,-1,1,-1
1511884332164511,4,5,1,-1,0,-2,-5,-1
1511884332164511,1,-6,-7,-1,0,-3,-1,-4
1511884332166516,0,2,-2,-1,1,-1,-3,-4
1511884332166516,7,3,4,-1,1,1,8,14
1511884332178574,-8,-5,-2,-2,-2,-5,0,1
1511884332178574,-3,2,-7,-2,-3,2,-5,-5
1511884332187572,-1,-6,6,1,-4,1,2,3
1511884332187572,3,-6,-12,1,-3,1,1,-1
1511884332201610,0,-6,-9,2,-1,-1,-5,0
1511884332201610,-2,-10,1,0,1,-2,-2,-2
1511884332208629,0,-6,-3,0,3,-2,3,-2
1511884332208629,8,33,12,4,4,0,2,8
1511884332224672,-8,-21,-12,-4,-2,-2,-8,-16
1511884332224672,0,8,1,-3,-1,2,3,3
1511884332226676,-8,-16,-3,3,-3,0,-2,-7
1511884332226676,0,8,5,-1,-3,1,1,4
1511884332238709,0,2,-1,-6,-4,-1,6,4
1511884332238709,1,6,0,1,0,-3,-3,2
1511884332247733,-7,-5,0,0,-1,-5,-9,-9
1511884332247733,-4,-9,1,-1,0,-3,-3,-2
1511884332261829,2,7,1,1,-2,1,4,-2
1511884332261829,5,-5,-3,-1,-1,5,10,9
1511884332268821,1,9,-2,1,-2,-1,0,-4
1511884332268821,-9,-30,-10,-4,-4,-5,-9,-10
1511884332284889,2,-5,-11,-1,-1,-6,-9,-1
1511884332284889,-5,2,7,2,-1,-4,-9,-3
1511884332286869,3,7,-3,0,-1,0,7,5
1511884332286869,1,18,5,0,0,-1,-1,2
1511884332298901,-1,-26,1,2,0,1,6,2
1511884332298901,-9,-12,-12,-1,-2,-2,0,-6
1511884332307926,12,7,-7,-5,0,5,3,6
1511884332307926,-12,-1,-7,-3,0,4,1,-7
1511884332321989,12,20,6,2,0,0,0,14
1511884332321989,0,-10,3,2,0,1,-2,-5
1511884332328999,0,-13,-6,-5,-4,-3,-2,5
1511884332328999,-2,-1,-1,-1,-4,1,-5,-9
1511884332344585,-6,7,-1,-2,-1,1,0,0
1511884332344585,2,7,4,-1,1,1,1,0
1511884332351073,-7,-2,-6,-1,1,-2,-3,-5
1511884332351073,-1,-27,-5,-2,-2,-2,-4,-1
1511884332358779,-4,16,14,1,-2,-1,2,-8
1511884332358779,1,4,-1,-3,0,0,6,5
1511884332367774,2,-4,1,-2,1,0,7,5
1511884332367774,1,2,1,1,3,-6,-14,-9
1511884332381845,-4,-10,-5,-1,-1,-1,-12,-11
1511884332381845,-1,5,1,-2,0,-1,-4,-2
1511884332388862,-3,-6,-1,0,-1,3,4,1
1511884332388862,-1,2,2,-1,2,2,11,8
1511884332403900,1,-4,-7,-1,1,-3,-10,-5
1511884332403900,-4,-1,4,4,-2,-2,-1,-4
1511884332410915,7,-1,-10,-3,-1,2,2,9
1511884332410915,0,0,-7,2,0,3,8,6
1511884332418909,6,12,2,8,0,-3,3,2
1511884332418909,-3,-5,-7,-3,-2,-6,-5,-2
1511884332427965,-4,11,1,0,-2,-6,-7,-3
1511884332427965,-5,-15,6,0,-1,-3,4,6
1511884332442030,-6,5,0,-2,1,0,1,1
1511884332442030,3,12,-2,-3,-1,-2,-2,-4
1511884332449023,-4,-2,2,-2,1,-2,-8,-6
1511884332449023,1,-6,0,1,-1,-3,-2,-7
1511884332464087,-3,-12,-8,-1,2,2,-1,0
1511884332464087,-1,3,3,-2,0,-2,1,3
1511884332471106,-2,-3,4,3,-4,2,0,-2
1511884332471106,4,4,2,-3,-4,4,1,1
1511884332478124,3,0,6,-4,-4,4,-2,-1
1511884332478124,3,-5,-2,-1,0,4,8,8
1511884332487148,-4,-1,-5,-2,2,2,0,-4
1511884332487148,-2,9,4,2,-2,-6,-4,-6
1511884332502189,-8,-25,-4,1,-1,-3,0,-6
1511884332502189,2,8,-2,1,0,-4,-10,-1
1511884332508205,-1,-9,-4,1,0,-1,-3,-1
1511884332508205,5,7,-17,-3,0,1,6,5
1511884332524274,-1,3,1,1,-1,0,0,4
1511884332524274,-8,-4,-8,0,-1,1,-3,-13
1511884332531266,10,-12,0,-2,-2,-3,-8,3
1511884332531266,-3,0,-6,-3,2,1,-8,3
1511884332547840,3,2,1,-3,2,0,8,8
1511884332547840,-7,-4,2,0,-1,1,4,2
1511884332549373,-2,12,6,1,-2,0,0,-1
1511884332549373,2,3,8,-2,-1,2,-1,-1
1511884332561907,1,8,1,-3,-2,1,-5,1
1511884332561907,-4,-1,-3,-2,1,-1,0,-5
1511884332568925,-3,-5,-7,-1,-1,-2,-7,-2
1511884332568925,-3,-13,2,0,-3,0,4,0
1511884332583967,2,11,1,-1,-1,-1,9,2
1511884332583967,1,-12,-10,-4,-1,-6,-12,-2
1511884332590986,-2,-2,-2,-4,-1,-6,-9,-6
1511884332590986,0,-4,-3,-3,-2,-3,-5,-2
1511884332607055,4,9,8,-2,2,0,6,3
1511884332607055,1,-4,9,3,1,1,5,-2
1511884332609033,-6,-6,0,5,2,3,5,1
1511884332609033,1,9,1,-1,-1,1,1,1
1511884332622094,-1,-4,-7,-1,-1,-1,3,6
1511884332622094,-2,0,3,-1,-3,-1,4,-2
1511884332628114,-3,4,3,-2,1,-4,-1,-7
1511884332628114,3,-9,1,3,3,-2,1,2
1511884332644664,-2,-2,2,1,1,-2,-6,-7
1511884332644664,6,5,-5,-2,0,2,-3,-1
1511884332651181,3,1,0,-3,-2,6,5,2
1511884332651181,4,1,2,2,-2,3,-7,0
1511884332667226,-8,-16,-2,1,-5,-1,-7,-9
1511884332667226,2,8,0,-2,-2,0,-2,4
1511884332669231,-4,-4,2,0,2,-2,8,0
1511884332669231,-3,2,-6,-3,2,-2,3,4
1511884332682328,3,12,13,3,1,-2,-2,-6
1511884332682328,-3,-6,-6,5,0,-1,-10,-7
1511884332688403,4,-4,-8,-1,-2,-4,-2,1
1511884332688403,0,-2,-4,-1,1,0,6,4
1511884332704523,-1,-1,-11,-3,0,-1,-1,3
1511884332704523,-4,-2,2,-2,-1,-5,0,2
1511884332711460,-1,13,8,-1,1,-1,-6,-5
1511884332711460,-1,-6,-1,0,-2,-2,-4,-2
1511884332727567,-4,-5,0,2,-2,5,0,-7
1511884332727567,-1,-4,1,-5,-2,3,11,6
1511884332729392,-3,1,-1,-1,-1,0,4,1
1511884332729392,-4,-2,-4,-3,-6,-4,-7,-7
1511884332741928,1,0,0,-2,-2,-3,-3,3
1511884332741928,5,-4,-4,-2,3,1,0,3
1511884332748944,-1,10,8,0,2,-1,1,-1
1511884332748944,2,-11,-9,-2,3,0,1,1
1511884332764186,2,0,2,-1,2,-1,-1,3
1511884332764186,1,11,1,0,-2,-5,-4,-2
1511884332771137,-2,-12,-6,-3,-6,-5,-11,-5
1511884332771137,-2,15,-2,1,-4,0,0,-3
1511884332787081,-2,6,-5,-3,-5,1,4,-5
1511884332787081,3,-10,-1,1,-2,1,3,2
1511884332789068,-2,-5,1,2,-3,1,0,0
1511884332789068,2,3,8,2,0,-1,-1,2
1511884332802105,-5,-7,-6,-2,-1,-1,-3,1
1511884332802105,0,15,4,-2,-1,-2,-1,-2
1511884332808118,-3,-21,-4,-2,-2,-5,-6,-4
1511884332808118,-1,6,6,-1,1,-1,0,-4
1511884332824348,-1,2,-3,-2,2,2,2,5
1511884332824348,0,-5,-4,-5,2,2,-1,-1
1511884332831362,-1,8,-4,0,1,2,4,0
1511884332831362,1,4,5,2,1,-3,-5,-8
1511884332847927,-1,-14,-5,0,-3,-4,-4,-2
1511884332847927,-2,-13,-12,-1,-4,-1,4,2
1511884332849342,1,7,7,-1,-3,3,5,2
1511884332849342,1,7,-1,-1,-2,0,-2,0
1511884332861971,0,1,-1,1,1,-1,-5,-7
1511884332861971,0,-3,-2,1,1,-2,-2,3
1511884332869070,5,11,2,0,1,2,2,1
1511884332869070,-3,-10,-4,-2,1,1,3,-1
1511884332884033,2,-1,0,0,1,-2,3,2
1511884332884033,-2,1,-1,-2,0,-5,-10,-6
1511884332891052,-7,-6,-6,-4,-3,-3,-6,-2
1511884332891052,3,3,4,-3,-2,0,1,3
1511884332907099,1,3,4,-2,0,4,3,3
1511884332907099,-4,-14,-3,2,-2,2,1,-2
1511884332909102,1,-4,-2,1,-2,1,-1,1
1511884332909102,-3,-4,1,2,-1,1,-2,-4
1511884332922243,-2,1,1,1,0,-1,3,-1
1511884332922243,0,7,4,2,-1,-2,1,-3
1511884332929184,4,-3,-6,1,0,-5,-3,2
1511884332929184,-7,-3,4,-1,1,-5,-3,-5
1511884332944701,0,-1,5,-2,-3,-2,-1,-2
1511884332944701,4,-1,1,-1,-1,2,3,4
1511884332951219,2,0,2,3,2,3,10,9
1511884332951219,1,2,-3,-1,-5,-2,-4,-3
1511884332967843,1,3,-3,0,0,-4,-5,-2
1511884332967843,-2,-3,-1,-1,1,-3,-8,-2
1511884332968814,-3,-1,-1,-2,-2,0,-3,-4
1511884332968814,0,3,-2,2,-2,-2,1,0
1511884332981860,-7,-7,3,1,-1,-1,-4,-3
1511884332981860,2,9,-3,-2,-4,0,2,0
1511884332988888,0,-1,1,0,-1,-2,3,2
1511884332988888,3,-10,-5,0,0,0,-2,2
1511884333003907,6,9,-2,1,1,-1,0,1
1511884333003907,0,-2,-1,0,1,3,2,3
1511884333010950,-5,11,17,2,1,0,-2,-7
1511884333010950,-2,1,0,-1,-2,-3,-6,-1
1511884333026969,-4,-1,-2,-2,1,-1,3,1
1511884333026969,-2,-2,2,-2,-1,2,3,1
1511884333028973,2,-3,-7,-5,0,-3,-3,-5
1511884333028973,-2,-1,-4,-4,-1,-1,-2,-4
1511884333041510,-2,-2,-2,-3,-2,-2,-1,1
1511884333041510,-4,-2,5,2,-2,0,1,-2
1511884333050534,-3,0,-3,0,-1,2,4,1
1511884333050534,-1,5,6,0,0,2,5,2
1511884333064588,-1,-21,-16,-3,-2,-1,-4,-1
1511884333064588,5,10,4,1,0,-1,2,5
1511884333070604,-5,-9,-5,-3,-4,-4,-4,-6
1511884333070604,-6,-10,-12,-4,-1,-2,-4,-3
1511884333087677,4,8,8,0,2,1,2,4
1511884333087677,-7,-10,-4,0,3,-1,-4,-7
1511884333088679,13,9,-3,-3,0,2,3,10
1511884333088679,-8,-8,-4,-3,-4,-2,-5,-5
1511884333100684,0,4,-1,-1,-2,0,-1,-2
1511884333100684,-3,-6,-3,0,-2,0,3,0
1511884333109710,-2,0,0,0,0,-1,-2,-1
1511884333109710,1,4,2,2,1,3,2,-2
1511884333123776,-4,4,0,-1,-1,0,-3,-6
1511884333123776,8,-1,0,1,-2,0,-5,3
1511884333130796,1,-8,-4,-2,0,-1,-2,5
1511884333130796,4,1,1,-4,1,-2,-3,1
1511884333147841,2,1,3,1,0,0,-3,0
1511884333147841,-6,0,2,0,3,-3,-1,-3
1511884333149345,-9,-3,2,-1,-2,0,1,-5
1511884333149345,-5,-6,-5,-2,-2,-1,6,3
1511884333160879,0,7,2,1,-1,-2,1,-3
1511884333160879,1,-1,0,0,-2,3,0,3
1511884333169903,-2,3,-7,-1,1,-4,-7,-2
1511884333169903,-2,3,5,1,1,-3,-4,4
1511884333183971,-4,-13,-9,-2,-1,-1,3,-7
1511884333183971,-5,-13,-4,-1,-4,-5,-1,-3
1511884333190990,2,-1,-4,0,-1,0,4,2
1511884333190990,-2,0,1,1,-2,5,2,-1
1511884333207032,6,5,-1,-1,-1,0,0,7
1511884333207032,-3,-3,-2,1,0,-2,-4,-4
1511884333209007,6,3,2,-1,1,-2,0,-1
1511884333209007,3,-13,-1,-1,2,0,5,6
1511884333221069,-2,10,-4,-1,-1,-4,-6,-2
1511884333221069,4,-3,0,-2,-2,-1,-1,2
1511884333230062,-7,-10,0,2,-2,-1,-4,-8
1511884333230062,-5,2,3,2,-1,-5,-9,-10
1511884333244664,-6,-17,-3,-3,-1,-2,-5,-6
1511884333244664,2,22,4,2,3,3,3,3
1511884333251178,3,0,0,-2,-1,0,2,12
1511884333251178,3,5,0,-2,-4,0,-5,-9
1511884333267270,4,-3,-4,-1,-2,2,1,0
1511884333267270,-27,-25,-5,0,4,2,5,-2
1511884333269269,-6,-7,-2,-5,-1,-1,2,1
1511884333269269,5,9,-4,-3,-1,-4,-4,0
1511884333281274,0,-8,-1,0,-1,-3,-1,1
1511884333281274,11,13,3,-2,-6,-5,-6,0
1511884333290298,0,-6,0,7,1,6,6,8
1511884333290298,6,19,8,5,0,3,5,-2
1511884333304335,6,4,2,4,4,3,6,6
1511884333304335,-7,5,-4,-10,-14,-9,-3,-5
1511884333311381,0,-8,0,0,1,3,0,-4
1511884333311381,0,8,-2,0,5,5,1,-3
1511884333326395,-11,-14,-9,-3,-6,0,1,-1
1511884333326395,8,-1,9,8,6,3,1,-3
1511884333333414,0,-8,-4,-6,-7,-6,-4,0
1511884333333414,3,15,2,-1,-3,-2,-6,2
1511884333341438,-9,-4,-3,-6,-1,-3,-12,-9
1511884333341438,8,-4,-6,-5,1,-1,-3,12
1511884333350490,7,12,2,0,3,5,13,3
1511884333350490,-5,-12,7,7,4,0,-5,-1
1511884333364026,-5,-11,-9,-1,1,1,0,-1
1511884333364026,1,2,1,0,-3,-3,-6,-6
1511884333371045,0,2,-5,0,2,-3,2,-1
1511884333371045,-9,-9,-8,-3,-3,-2,10,5
1511884333387088,4,1,7,1,-2,-2,-3,0
1511884333387088,-1,10,6,0,1,3,-5,-7
1511884333393105,-5,-8,-4,-2,-1,0,3,-1
1511884333393105,0,-8,-3,-2,-1,1,7,9
1511884333401125,2,17,5,0,-3,-3,3,-1
1511884333401125,2,10,-3,0,-2,-5,-14,-9
1511884333410150,2,-4,1,1,-4,-2,-6,-4
1511884333410150,3,5,2,-2,-1,-3,-4,-1
1511884333424185,0,-4,1,-1,3,-2,-2,-6
1511884333424185,-6,-7,-8,-1,4,0,7,4
1511884333431205,2,22,3,-2,-1,-4,-14,-8
1511884333431205,-4,-14,-3,1,2,4,13,6
1511884333446810,3,-2,-1,0,-4,3,2,7
1511884333446810,1,-4,-2,0,-3,-1,5,10
1511884333453299,-11,-5,-5,-2,-5,-8,-18,-23
1511884333453299,4,17,6,-2,-2,0,-6,0
1511884333470345,-3,-6,0,1,2,4,6,-1
1511884333470345,14,-2,-5,-1,-2,2,12,11
1511884333471347,-2,-3,5,2,1,-1,-2,-7
1511884333471347,-9,-7,-3,0,-1,-3,-7,-14
1511884333484406,1,9,5,1,3,1,7,3
1511884333484406,-3,-1,0,-2,2,2,8,4
1511884333491424,5,-6,-3,-5,-3,-6,-5,8
1511884333491424,-5,-15,-3,-2,0,-4,-10,-10
1511884333506471,0,12,4,-2,-1,-1,5,3
1511884333506471,-7,-21,-4,-2,0,-2,1,-2
1511884333513487,6,26,21,3,1,-3,-17,-4
1511884333513487,-11,-12,-4,-4,1,2,21,20
1511884333529533,13,22,4,1,-4,-8,-24,-19
1511884333529533,-11,7,-5,-2,-3,1,-14,-16
1511884333531507,8,-14,-2,2,-1,9,14,14
1511884333531507,-4,-19,-13,-1,-6,-1,3,16
1511884333544568,27,16,-3,0,0,7,7,25
1511884333544568,-24,-22,-1,-1,-2,2,7,-23
1511884333551112,-13,11,0,0,-5,-9,-19,-25
1511884333551112,-2,14,13,-1,2,-6,-17,-14
1511884333566384,-7,-52,-16,-3,0,-1,4,9
1511884333566384,10,24,5,-3,2,0,-11,-9
1511884333573403,28,3,7,-3,-4,0,10,25
1511884333573403,18,6,2,1,1,8,22,25
1511884333589419,-6,8,0,-7,-3,-2,-7,-16
1511884333589419,-3,-2,-5,-2,2,6,18,10
1511884333591424,-3,-19,-12,-3,-2,0,0,4
1511884333591424,-11,-13,2,1,-3,-9,-18,-30
1511884333603456,-23,5,10,8,0,-7,-21,-18
1511884333603456,42,12,-5,3,-2,-1,3,11
1511884333612480,-32,-23,-17,5,6,8,21,1
1511884333612480,11,2,-13,-3,-8,-11,-6,11
1511884333626517,-24,11,0,2,0,1,-5,-14
1511884333626517,-13,-36,-1,-1,-1,-3,-7,4
1511884333633536,20,5,25,-1,0,2,-4,-18
1511884333633536,-3,22,-8,-4,2,8,6,-4
1511884333650085,-8,1,6,-2,2,5,29,27
1511884333650085,26,28,8,2,1,-11,-27,-12
1511884333651588,-21,-23,-17,-7,-2,-8,-11,-15
1511884333651588,-11,-10,-11,-1,1,-3,7,8
1511884333663176,-29,-20,-6,1,-1,-1,-8,-24
1511884333663176,23,27,9,2,-1,4,19,36
1511884333672200,2,5,16,-1,0,4,12,15
1511884333672200,-2,17,31,-2,-1,4,5,-4
1511884333686237,-9,-5,-11,-4,-3,-3,9,20
1511884333686237,31,-4,7,-7,-6,-7,-20,-7
1511884333693256,-25,-17,-11,-2,-3,-6,-23,-25
1511884333693256,3,10,22,6,-1,3,0,-2
1511884333710303,-21,-7,5,-3,0,1,9,1
1511884333710303,5,-3,-20,1,1,1,7,8
1511884333711304,22,21,-21,-12,6,5,8,8
1511884333711304,-23,-24,-12,3,-1,-3,-6,-5
1511884333723337,36,-6,-7,-12,-6,-7,-6,0
1511884333723337,-50,-10,-15,-11,-6,-4,-9,-25
1511884333732360,1,18,9,3,4,1,2,4
1511884333732360,9,-8,-13,-9,2,2,-2,-7
1511884333746908,5,8,7,25,6,2,0,2
1511884333746908,-10,1,5,-30,-13,-3,0,-1
1511884333754060,7,-15,5,8,-4,1,5,14
1511884333754060,-4,12,-4,-6,-11,-7,-8,-9
1511884333770107,31,3,-5,-1,-3,-6,-5,-1
1511884333770107,-5,3,-5,6,13,6,4,2
1511884333771107,-21,-4,-12,19,1,0,4,0
1511884333771107,20,6,-9,-1,1,0,-1,2
1511884333783140,4,-1,7,-18,-10,-3,-4,1
1511884333783140,-6,-1,-13,10,5,0,2,2
1511884333792206,-3,-7,2,11,-2,2,0,-5
1511884333792206,-6,-21,16,0,-7,-4,-5,-3
1511884333807202,2,5,6,1,5,3,-3,-2
1511884333807202,-12,-9,2,-6,-12,-3,-1,-4
1511884333813247,2,9,2,10,9,-3,-1,-1
1511884333813247,14,8,-13,11,5,1,3,6
1511884333830264,-7,-14,4,-2,-3,-3,-5,-5
1511884333830264,-8,-9,26,23,-4,-5,-2,-6
1511884333831266,8,9,10,37,21,3,-2,1
1511884333831266,0,-8,-8,-45,-21,-4,-3,-2
1511884333843855,2,15,-19,-20,-8,3,1,1
1511884333843855,-3,-3,-19,11,15,3,-1,1
1511884333852927,3,15,-21,-37,-13,-2,2,2
1511884333852927,-6,-10,-2,56,11,-5,-8,-9
1511884333866941,3,5,-49,21,5,1,-3,0
1511884333866941,0,-3,-20,-22,-6,2,-4,-2
1511884333873987,-3,-5,-18,-18,0,1,3,4
1511884333873987,-4,-10,9,-10,-5,-2,-3,-5
1511884333890002,0,1,48,-14,7,0,1,0
1511884333890002,-3,-2,12,26,4,-5,4,-1
1511884333891036,0,6,2,-33,-2,0,2,-2
1511884333891036,1,6,-9,-1,-2,9,3,2
1511884333903063,1,-7,18,4,-1,-9,-2,-5
1511884333903063,4,4,10,-8,-1,2,2,1
1511884333913063,-3,0,7,-8,-8,2,-2,-4
1511884333913063,2,3,20,-17,-3,-3,-2,3
1511884333927223,-2,4,14,37,14,4,3,6
1511884333927223,-5,1,12,-9,3,-3,1,2
1511884333933119,-3,-13,6,-9,-21,-8,1,1
1511884333933119,1,9,-14,-5,12,3,4,-2
1511884333950164,0,-9,-16,-4,-13,-3,-1,1
1511884333950164,1,9,24,25,5,2,1,0
1511884333951668,-6,-10,0,27,4,-4,-7,-3
1511884333951668,2,-2,-8,-7,-4,1,1,-1
1511884333963760,-4,3,-11,-13,5,4,3,-2
1511884333963760,-6,-6,8,-7,-14,-3,-1,-5
1511884333972781,6,9,9,22,12,6,1,1
1511884333972781,-2,-3,17,13,-11,-14,-9,0
1511884333986817,8,7,-8,4,-2,0,-1,4
1511884333986817,-7,-16,-11,-28,-16,-15,-2,-1
1511884333993835,-8,3,-9,-7,-5,-8,-5,-5
1511884333993835,-1,0,-10,0,18,10,3,-4
1511884334009873,-5,-7,1,22,13,10,1,-2
1511884334009873,3,2,-13,-13,-2,3,4,3
1511884334011877,0,-1,-8,-26,-15,-8,-2,0
1511884334011877,1,13,4,13,4,4,1,1
1511884334023915,-8,-21,-20,-33,-32,-18,-7,-7
1511884334023915,-1,-6,-2,24,0,-2,2,4
1511884334032914,-2,-5,-2,-15,11,3,1,-5
1511884334032914,1,15,9,12,-5,6,-1,0
1511884334046954,3,14,9,2,-1,-10,-4,0
1511884334046954,-3,-26,-5,-26,7,5,-1,-1
1511884334053473,6,17,-10,-10,-28,-12,0,2
1511884334053473,-3,-2,-7,13,20,3,-5,-1
1511884334069546,-4,-9,-5,-25,-14,-7,-6,-6
1511884334069546,0,-11,-17,-12,-4,4,1,2
1511884334071522,6,44,38,22,20,10,6,4
1511884334071522,7,-15,-14,-6,-1,-2,6,5
1511884334083576,-5,4,-1,7,7,4,3,-5
1511884334083576,-1,5,-2,-11,3,-2,-6,-2
1511884334092577,-1,3,3,-3,2,8,-4,-6
1511884334092577,8,2,7,2,-4,-9,5,4
1511884334106614,-1,4,-14,13,15,11,10,8
1511884334106614,0,-17,-16,8,-11,-10,-25,-14
1511884334113660,-6,-19,-8,-22,-3,-1,-8,-7
1511884334113660,-8,-9,-9,39,9,-2,-6,-1
1511884334129676,12,12,19,-11,7,9,13,19
1511884334129676,1,4,9,-8,-20,-2,14,10
1511884334131682,6,6,-6,6,1,3,12,14
1511884334131682,-7,-2,1,-10,-7,-9,-5,-3
1511884334143743,2,23,20,12,11,7,-23,-17
1511884334143743,-12,-14,-15,6,6,1,-13,-27
1511884334152238,11,-26,-2,0,-9,3,16,14
1511884334152238,19,1,-6,-7,13,14,35,43
1511884334166482,-10,-11,8,5,-13,9,5,-1
1511884334166482,-19,18,35,0,-21,-28,-58,-58
1511884334173500,-22,-33,-66,-4,3,-16,-33,-31
1511884334173500,-13,-39,38,-5,-23,-14,-9,-6
1511884334189542,16,9,-3,13,11,10,31,30
1511884334189542,23,20,-15,-8,13,26,57,50
1511884334191524,13,6,34,13,8,21,44,52
1511884334191524,-35,-11,-4,13,12,-8,-31,-14
1511884334203580,-15,-9,14,-30,-46,-52,-77,-84
1511884334203580,-11,-38,-53,7,7,-5,-23,-39
1511884334212580,5,21,1,-6,-4,-2,-3,-9
1511884334212580,14,-20,-7,-19,3,16,25,18
1511884334226619,-2,7,-3,5,12,6,24,22
1511884334226619,10,14,34,28,12,11,14,25
1511884334233636,-7,5,11,1,13,-1,-2,-6
1511884334233636,3,-24,-68,1,-2,-7,-2,0
1511884334249681,2,-7,25,2,4,9,5,4
1511884334249681,7,3,12,-6,-6,0,14,21
1511884334255760,-5,-6,17,11,4,1,-9,-4
1511884334255760,-1,25,5,7,-10,-3,-7,-17
1511884334263779,4,13,9,6,12,1,-4,1
1511884334263779,4,38,29,70,20,9,14,20
1511884334272775,3,-31,-10,-2,-11,-16,-5,-3
1511884334272775,-5,9,-3,-33,2,1,-10,-16
1511884334286813,11,-6,-13,5,-12,6,25,20
1511884334286813,-8,10,11,-18,1,-6,-1,-10
1511884334293831,-34,-20,-19,-9,-9,-12,-34,-27
1511884334293831,26,19,-14,-18,-6,-7,-16,-13
1511884334308871,-28,-4,1,2,2,2,3,1
1511884334308871,17,-17,12,-3,-1,6,5,-2
1511884334315911,15,-13,-9,3,-7,11,31,35
1511884334315911,-15,6,12,-13,-23,-12,1,-12
1511884334323913,1,-15,19,16,14,-1,-10,7
1511884334323913,-15,11,-11,-20,-1,-3,-18,-23
1511884334332937,3,7,4,22,-19,-13,-23,-25
1511884334332937,-10,-4,18,2,-10,-9,-5,-3
1511884334346978,12,6,-3,27,15,4,11,10
1511884334346978,7,26,8,1,-11,-2,12,19
1511884334353541,6,6,0,-22,7,-5,4,5
1511884334353541,0,0,-27,-22,5,14,14,7
1511884334369555,7,14,0,-2,4,2,-3,4
1511884334369555,-7,-16,-28,-9,-2,0,1,2
1511884334375600,-9,6,15,-1,-9,-8,-22,-21
1511884334375600,6,10,6,3,3,-4,-4,8
1511884334392617,-5,-7,-25,-24,-9,-10,-21,-29
1511884334392617,8,0,-8,-14,7,6,12,18
1511884334393656,5,33,20,0,4,9,17,6
1511884334393656,-20,-12,-7,6,2,13,7,-6
1511884334405678,14,-1,-6,-11,-8,-5,-7,8
1511884334405678,-4,1,-15,-9,-1,-9,-6,2
1511884334414702,3,-10,-8,9,9,3,-2,-4
1511884334414702,1,-5,7,2,2,-3,-5,-1
1511884334428743,-2,17,-5,3,6,-2,-3,0
1511884334428743,-8,-64,-20,-22,-3,0,-2,0
1511884334435761,6,-5,13,3,-4,0,3,8
1511884334435761,10,20,7,-2,9,11,22,16
1511884334452779,-4,-15,-4,-5,-12,-3,16,2
1511884334452779,-10,9,1,40,-8,-9,-21,-18
1511884334454284,-9,11,-6,-5,6,-3,-25,-18
1511884334454284,-8,-4,9,-20,-10,-7,-13,-13
1511884334466343,-3,-13,-16,5,-2,2,0,-2
1511884334466343,6,23,-5,-22,-8,-2,9,6
1511884334473363,5,-9,6,11,2,7,14,10
1511884334473363,12,10,-2,2,-6,-1,-1,6
1511884334489403,-1,4,-15,-17,1,3,5,5
1511884334489403,-2,1,-18,-23,-4,-3,-1,-2
1511884334496422,-12,-1,-3,-2,4,-4,-8,-12
1511884334496422,0,-16,13,9,3,-7,-8,-6
1511884334512468,-5,-20,-9,-7,-4,2,5,2
1511884334512468,4,3,1,0,2,-2,-3,0
1511884334514444,1,2,-5,-3,-6,4,10,9
1511884334514444,2,23,20,9,4,5,7,0
1511884334526477,-8,3,6,5,-5,-2,-4,-12
1511884334526477,-5,-8,5,-13,-8,-11,-17,-5
1511884334535500,4,-3,-13,-9,-2,2,-1,-2
1511884334535500,5,2,2,9,1,1,-2,16
1511884334549594,-5,-16,-14,-5,-4,-4,2,-1
1511884334549594,-7,11,1,-7,12,11,-14,-25
1511884334555636,5,2,7,-4,-22,-25,-13,-7
1511884334555636,-5,8,12,-11,-2,-2,-6,-8
1511884334572685,-4,-40,15,10,-1,4,9,12
1511884334572685,-6,20,3,-5,2,7,18,0
1511884334573681,-7,-15,-17,-6,7,0,-5,-6
1511884334573681,7,-5,17,14,8,4,5,11
1511884334600731,15,8,3,-4,-1,-1,0,-6
1511884334600731,-13,-7,8,7,-6,-8,1,-7
1511884334611760,-8,-9,4,5,-1,0,-17,-14
1511884334611760,-5,3,-6,1,-7,-5,-2,-3
1511884334632849,-1,1,-3,6,11,-1,-4,1
1511884334632849,2,-8,-9,-8,0,10,21,15
1511884334633819,7,11,4,20,14,8,16,16
1511884334633819,-3,-10,-15,-10,-9,-3,9,-2
1511884334653427,10,8,-2,-7,1,-1,-9,-1
1511884334653427,4,-2,0,5,6,2,6,5
1511884334662450,-8,0,5,19,2,-8,-22,-17
1511884334662450,-6,-4,-20,-3,-6,-3,-28,-19
1511884334685531,-10,3,-4,-3,-14,1,2,1
1511884334685531,12,0,7,17,26,10,13,19
1511884334687517,3,9,6,-7,-3,8,18,12
1511884334687517,3,18,-15,-3,5,-4,-9,-8
1511884334707770,-1,-18,-1,-1,-3,-2,1,0
1511884334707770,3,5,6,-5,-6,-5,-14,-9
1511884334708576,-1,-18,7,-11,-6,-4,6,5
1511884334708576,-1,-2,-15,-6,0,0,4,-1
1511884334729748,-3,14,9,-2,-1,-7,-8,-10
1511884334729748,5,-3,15,10,0,-4,-5,4
1511884334735649,1,-7,-18,-10,4,6,2,0
1511884334735649,-5,-8,-2,2,0,9,13,16
1511884334751197,-4,-5,-8,-15,-7,-12,-11,-14
1511884334751197,-6,-7,2,4,-3,-7,-24,-21
1511884334760356,1,-6,-9,-6,-6,-6,-6,0
1511884334760356,7,-3,2,2,12,8,14,11
1511884334782517,1,-4,-3,11,-4,4,12,11
1511884334782517,-12,-1,-6,9,-8,-3,-4,-8
1511884334784443,-5,4,3,1,1,-1,-12,-7
1511884334784443,3,-8,2,0,6,3,-1,-5
1511884334804499,0,14,-10,-12,-8,-1,21,15
1511884334804499,7,-10,-4,0,0,2,-2,2
1511884334806478,-7,3,-3,-4,-7,-5,-15,-19
1511884334806478,-1,2,14,0,-3,-3,0,0
1511884334827735,-4,15,2,2,5,-2,-13,-10
1511884334827735,1,9,2,-14,-2,4,22,16
1511884334833553,1,-6,-6,-5,5,5,16,16
1511884334833553,-8,-31,-11,0,0,-1,-2,-4
1511884334857857,-10,11,6,-2,1,-9,-18,-24
1511884334857857,0,-1,-3,-3,-3,-3,-9,-3
1511884334858783,1,2,0,-1,4,2,2,2
1511884334858783,-2,13,10,-2,-3,0,-5,-9
1511884334879836,3,-2,-5,-7,1,2,2,10
1511884334879836,-1,-3,5,3,0,2,-1,-7
1511884334881728,10,4,10,-5,-7,-5,7,18
1511884334881728,-3,5,-2,-2,-3,-4,9,0
1511884334902788,1,-13,10,0,1,-3,-21,-12
1511884334902788,-2,-2,-4,3,5,-1,-9,-4
1511884334903786,3,4,-13,-4,-2,0,12,7
1511884334903786,3,15,5,4,-1,-6,-6,-4
1511884334924029,-2,-7,0,-8,-2,2,-5,-2
1511884334924029,0,-8,-9,7,4,2,3,4
1511884334932865,0,-2,3,0,1,7,7,3
1511884334932865,-1,-6,1,4,-2,-1,-2,0
1511884334954424,-7,5,-2,2,3,3,8,5
1511884334954424,4,0,-8,-18,-7,-3,-4,-3
1511884334956429,-4,6,2,3,-1,0,-4,-9
1511884334956429,-2,-10,-7,1,-2,-1,-9,-8
1511884334977513,4,0,-4,0,0,2,2,5
1511884334977513,3,3,3,-4,-4,-2,9,10
1511884334978515,1,13,11,3,0,-2,-3,-4
1511884334978515,0,2,-2,-9,-4,-1,3,0
1511884334999568,-4,-7,-9,-5,-1,-2,-2,-4
1511884334999568,1,12,17,7,-4,-2,-11,-3
1511884335005584,-4,-1,-2,-3,3,4,-1,-6
1511884335005584,4,-4,-2,3,1,3,8,18
1511884335020600,3,5,2,-4,1,3,2,-8
1511884335020600,1,15,-2,6,-1,0,6,4
1511884335031631,-2,-11,-6,-4,-3,1,1,-3
1511884335031631,3,5,4,-3,-1,-5,-6,3
1511884335052716,5,-5,-13,-6,-1,-3,9,8
1511884335052716,2,10,12,6,0,-4,-13,-10
1511884335054219,-3,19,2,1,2,4,-1,-1
1511884335054219,-1,-20,-10,-1,-3,2,7,6
1511884335074606,-3,-5,-7,-2,-1,1,-1,3
1511884335074606,-1,-2,-4,8,2,-3,-3,-6
1511884335076580,-4,-16,-3,-10,-6,-6,-5,-2
1511884335076580,-2,5,2,-1,-1,-3,-3,-12
1511884335096632,0,8,10,16,7,6,10,6
1511884335096632,-1,-12,-3,4,-4,1,8,8
1511884335103678,1,-14,-4,2,5,0,5,-2
1511884335103678,-3,-2,-4,-5,-5,-3,-16,-10
1511884335127748,-3,2,0,-4,-5,-1,-7,-7
1511884335127748,-7,-9,-2,-6,-2,-3,-4,0
1511884335130756,-1,0,-3,4,2,4,5,6
1511884335130756,2,9,4,0,1,2,11,4
1511884335150311,1,-3,-4,1,4,2,0,-4
1511884335150311,-5,-13,-3,-2,-1,-1,-8,-7
1511884335151851,5,3,1,-1,-1,-7,-8,-4
1511884335151851,-4,0,2,1,0,-4,-2,-8
1511884335172449,7,6,0,-3,-1,4,9,19
1511884335172449,-1,-8,8,-1,-3,6,8,-2
1511884335173454,-7,6,-1,0,-3,-2,2,-1
1511884335173454,-2,2,1,-3,-2,-6,-17,-15
1511884335193503,-4,1,-2,-1,0,-4,-9,-7
1511884335193503,2,3,-13,-6,1,2,5,6
1511884335202501,-3,6,14,3,1,3,9,3
1511884335202501,-2,-1,1,4,-2,-3,-7,-5
1511884335209544,-3,-10,-6,-9,-6,3,6,7
1511884335209544,-3,2,0,0,-3,-2,-8,-4
1511884335211524,-2,-11,-4,-1,0,-1,-8,-10
1511884335211524,-1,5,-5,-3,-1,-2,0,2
1511884335216537,6,-12,8,5,-1,-1,-4,-2
1511884335216537,6,-3,-7,0,3,2,15,12
1511884335217540,-2,-12,-11,-2,2,1,7,2
1511884335217540,-5,4,5,-1,-2,-9,-19,-12
1511884335224558,0,5,-10,-4,-2,-2,-4,2
1511884335224558,2,10,16,1,0,2,-1,-3
1511884335224558,2,-5,1,0,-2,0,0,1
1511884335224558,3,0,-6,-3,-1,2,10,3
1511884335232580,-6,10,8,2,0,-3,-12,-9
1511884335232580,-2,-11,-13,-4,-1,0,0,-3
1511884335233583,2,5,1,-2,2,2,0,7
1511884335233583,0,-4,-5,-3,-1,2,2,6
1511884335239602,0,-1,4,0,1,0,5,4
1511884335239602,-3,7,1,1,1,4,13,0
1511884335240104,-3,-1,-2,-1,-2,-7,-20,-11
1511884335240104,-5,-1,1,3,0,-1,-13,-19
1511884335247650,-5,-16,-13,-2,-1,0,3,1
1511884335247650,-2,-3,4,0,-1,2,5,3
1511884335249127,4,-13,-5,2,-2,2,14,14
1511884335249127,2,4,9,-2,-3,-3,3,5
1511884335254664,1,1,8,-1,-3,-1,-9,-6
1511884335254664,0,-4,-12,-1,-1,-8,-12,-4
1511884335254664,-4,3,1,-2,-3,0,1,-2
1511884335254664,1,0,-2,0,1,2,2,1
1511884335261713,-4,-4,-2,1,0,1,0,0
1511884335261713,1,-3,1,0,-3,-4,0,1
1511884335262712,0,1,-1,0,-1,0,-8,-5
1511884335262712,-1,-11,-8,0,0,-1,4,1
1511884335269736,7,29,16,5,1,-2,5,-1
1511884335269736,-3,-28,-7,-1,0,-3,-8,-5
1511884335271742,2,4,-4,0,0,3,7,1
1511884335271742,-3,-4,3,-1,-1,-1,-2,6
1511884335276723,-5,-4,-12,-7,-1,-2,-1,-2
1511884335276723,-5,-5,12,1,-3,-4,-8,-4
1511884335277757,2,21,6,1,-1,0,-2,-4
1511884335277757,-2,-11,-7,-2,0,12,12,5
1511884335290786,2,-7,-3,-3,0,-3,-3,0
1511884335290786,2,12,4,1,2,3,7,6
1511884335298782,-1,4,1,-3,1,0,-2,1
1511884335298782,-9,2,-1,0,-3,-11,-23,-19
1511884335313853,-1,-3,0,1,-3,-5,0,-6
1511884335313853,2,9,-5,-7,-5,-1,5,7
1511884335314824,-5,-15,-3,-1,-1,2,5,5
1511884335314824,6,-2,0,-2,1,2,5,5
1511884335329864,4,10,2,2,1,3,3,13
1511884335329864,-6,-5,-4,1,-1,-6,-9,-21
1511884335335879,-2,-12,-5,-4,-2,-1,-6,-1
1511884335335879,-2,-3,5,2,-1,-1,0,-6
1511884335351422,5,-9,-13,-3,-1,0,2,2
1511884335351422,4,7,11,2,3,8,8,7
1511884335357992,3,3,1,2,0,-5,-4,1
1511884335357992,-3,5,0,-1,1,0,-2,-7
1511884335374034,-4,-1,3,0,0,0,2,-1
1511884335374034,-1,-2,-9,-4,-1,-4,-2,-1
1511884335375010,-3,-2,-3,-1,2,-1,-3,-1
1511884335375010,8,23,9,0,-2,0,2,10
1511884335390052,-6,-3,5,2,-2,-1,-10,-12
1511884335390052,0,5,1,-2,0,-1,-1,-1
1511884335396067,-3,6,4,-1,-4,-6,-8,-3
1511884335396067,2,-18,-3,-1,-1,2,5,3
1511884335411107,0,5,-3,-5,-1,2,2,4
1511884335411107,-1,-11,-5,1,-1,-2,-2,-6
1511884335418126,3,0,2,2,2,3,9,6
1511884335418126,-4,5,4,0,1,0,-3,-2
1511884335434195,-2,-9,-8,-2,-2,-3,0,-2
1511884335434195,-5,-4,8,1,-4,-1,-5,-2
1511884335435198,1,3,-2,0,-3,-5,-8,-1
1511884335435198,6,-3,-11,-1,-1,-3,4,-2
1511884335450238,5,-6,-2,0,0,0,6,2
1511884335450238,-9,9,-6,-1,-4,-2,5,-5
1511884335456255,4,8,1,-1,2,0,1,-2
1511884335456255,-10,-8,-3,1,1,-1,3,2
1511884335471296,0,0,10,4,5,-2,-11,-11
1511884335471296,12,9,-5,-1,-2,-1,-5,10
1511884335478342,-4,-7,-4,-4,-3,1,3,-2
1511884335478342,3,5,0,0,-1,2,7,10
1511884335494384,-10,-15,-7,-1,-2,-1,2,-7
1511884335494384,-2,4,1,-1,1,0,-6,3
1511884335495360,-5,-6,-5,-9,-16,-8,-9,-10
1511884335495360,-4,-9,-3,-6,0,0,-1,2
1511884335510430,1,7,-4,5,0,3,4,-1
1511884335510430,7,18,21,5,3,5,15,7
1511884335516416,1,-4,1,2,2,0,-1,9
1511884335516416,-2,14,-11,-4,-1,-6,-8,-11
1511884335531456,-9,-14,-5,-6,-4,-7,-16,-12
1511884335531456,-5,7,6,-2,-3,-5,-7,-8
1511884335538476,1,-13,0,1,2,3,5,5
1511884335538476,7,4,2,4,0,3,5,9
1511884335554520,-3,-6,-1,-2,2,1,5,-1
1511884335554520,-7,-11,-7,-5,-1,-3,-9,-10
1511884335555021,0,0,2,-2,0,1,-3,1
1511884335555021,0,0,-3,-2,2,0,-2,-4
1511884335569547,0,5,4,1,-1,-2,1,2
1511884335569547,1,-11,-10,0,4,1,6,10
1511884335575589,0,2,0,1,-1,0,0,-2
1511884335575589,1,-9,-10,-3,-2,-1,-3,-2
1511884335590633,0,0,1,-2,-2,1,3,7
1511884335590633,6,4,-9,-2,-1,-1,3,-1
1511884335598652,3,6,-1,-3,1,1,-3,-5
1511884335598652,-4,-4,-3,-2,-6,-4,-5,4
1511884335613696,-4,-12,-3,1,-2,0,-3,-6
1511884335613696,-4,-5,1,-2,-2,-2,0,-5
1511884335614680,8,-4,-6,2,2,-4,-9,0
1511884335614680,2,10,4,-1,1,-1,0,-1
1511884335629734,-3,-9,-10,-5,-1,3,1,0
1511884335629734,-1,-3,4,-1,-2,0,-4,-3
1511884335635723,-3,2,5,4,2,2,11,3
1511884335635723,-2,-8,1,0,-1,3,11,7
1511884335651291,2,13,13,1,-1,-6,-6,1
1511884335651291,-4,-8,-1,1,-2,-4,-3,-3
1511884335658844,-1,2,-10,-2,-2,-4,-6,-3
1511884335658844,-5,-16,-5,2,-1,-2,-6,-8
1511884335673887,5,1,8,4,3,5,8,7
1511884335673887,-3,-10,-7,-3,-1,-1,1,-7
1511884335674858,-1,19,13,1,1,3,2,-1
1511884335674858,-2,-6,-3,0,0,0,3,-1
1511884335690929,2,2,0,1,2,1,-1,5
1511884335690929,-7,8,1,-2,-6,-3,6,6
1511884335695937,-4,-6,-1,0,-5,-5,-9,-16
1511884335695937,6,0,0,-2,-2,-5,-10,-5
1511884335710954,4,-9,-10,-3,-1,-3,-6,-1
1511884335710954,3,-7,-2,1,1,3,0,8
1511884335718977,-5,5,0,0,3,5,15,5
1511884335718977,-1,0,0,0,1,2,-1,7
1511884335734067,-3,7,0,-1,-2,-1,-11,-8
1511884335734067,2,1,-1,1,0,2,-1,1
1511884335735021,-8,-23,-5,1,3,1,5,-2
1511884335735021,0,14,17,3,1,0,5,0
1511884335750109,-1,2,4,1,-1,-4,5,1
1511884335750109,3,4,0,2,-1,-9,-18,-8
1511884335756280,4,-4,-1,2,2,1,-1,2
1511884335756280,-2,-5,-2,-2,-1,4,7,-4
1511884335771320,-1,7,-1,-5,-3,1,-2,1
1511884335771320,6,22,9,0,1,-3,2,1
1511884335778456,-5,-13,-8,1,-3,-14,0,-1
1511884335778456,4,9,2,-1,-2,-13,-9,-1
1511884335794387,-4,-5,-12,-7,-7,-14,1,-3
1511884335794387,2,0,-1,-3,-1,-2,-2,0
1511884335795382,2,1,-2,-3,1,2,-1,4
1511884335795382,-13,-6,-10,0,-1,0,-4,-13
1511884335810430,1,3,10,8,-1,1,-3,0
1511884335810430,8,-8,-1,0,-1,6,5,12
1511884335816443,0,-4,1,-3,-1,9,0,-3
1511884335816443,1,-6,-1,-1,2,10,5,8
1511884335831485,1,3,-1,1,3,9,5,-2
1511884335831485,-7,-9,-1,-1,-1,6,7,-3
1511884335838624,6,9,5,1,-1,2,-7,6
1511884335838624,-9,0,-3,1,0,-1,-12,-7
1511884335854595,-6,-16,-6,-6,0,-2,0,-5
1511884335854595,6,-9,-2,-2,0,-6,-5,2
1511884335855051,-1,1,-3,-3,0,-6,-1,-10
1511884335855051,-1,0,4,-2,1,1,-3,0
1511884335870595,1,1,5,2,-2,-2,6,6
1511884335870595,-7,-9,-3,0,0,3,3,-4
1511884335876621,2,1,8,4,0,0,0,4
1511884335876621,3,-3,-5,-1,-2,2,3,6
1511884335891686,-3,24,0,2,1,4,3,-6
1511884335891686,1,-9,14,1,0,1,-4,2
1511884335898706,-8,-3,-6,-3,-2,0,-5,-10
1511884335898706,5,9,10,2,-2,-7,-5,3
1511884335914714,2,-16,-2,0,-1,-2,2,3
1511884335914714,0,4,3,0,-1,-1,0,1
1511884335914714,-3,10,-4,-2,-2,1,-2,-1
1511884335914714,-7,-28,-9,-3,-4,0,4,2
1511884335929790,12,11,-1,-2,0,0,-2,-1
1511884335929790,-1,-5,-6,-1,1,0,-2,-2
1511884335935777,-2,-11,-5,-3,-2,-3,6,2
1511884335935777,4,17,2,-2,-5,-7,-1,1
1511884335951354,-9,-3,-4,-1,-1,-2,-16,-16
1511884335951354,-5,3,1,0,-3,0,-6,0
1511884335958929,-1,-4,-8,-3,-2,3,1,3
1511884335958929,1,4,6,3,1,0,4,-1
1511884335973967,5,8,0,-1,0,1,10,13
1511884335973967,-2,-11,-6,1,1,-3,-8,-8
1511884335974943,4,4,-3,-2,-1,-3,-4,-1
1511884335974943,-1,4,-3,-3,-2,-2,-6,-2
1511884335989982,-1,3,3,-1,0,2,1,0
1511884335989982,0,-12,-15,-3,1,2,11,6
1511884335996026,-7,-5,2,0,2,-4,-5,-8
1511884335996026,0,6,0,-2,3,0,-3,-6
1511884336011066,2,-10,-7,-1,2,-2,-1,3
1511884336011066,-4,8,-3,-3,-1,1,-2,-4
1511884336018084,2,16,20,3,-1,2,4,6
1511884336018084,-3,-12,-10,-1,-3,-2,2,2
1511884336034131,-5,0,4,-4,-3,-5,-9,-9
1511884336034131,7,1,-12,-3,0,-2,-4,1
1511884336035103,1,3,0,-3,-2,-1,0,0
1511884336035103,-1,6,6,4,0,0,1,-1
1511884336050147,-9,-7,4,-1,-4,-2,4,-2
1511884336050147,-1,6,5,2,-3,-1,-2,-8
1511884336056187,-1,4,-6,-1,-1,1,-4,-4
1511884336056187,0,-12,-6,0,6,5,5,3
1511884336071255,5,-3,-8,0,2,1,2,9
1511884336071255,-6,0,0,-4,-2,-3,-4,-6
1511884336078277,3,6,0,-3,0,2,3,3
1511884336078277,0,-7,0,2,-2,-5,-8,-1
1511884336094290,-4,-7,-5,-1,-2,-1,-2,-7
1511884336094290,1,12,6,-1,-3,-4,-3,2
1511884336095292,-2,-3,-8,-2,-1,-3,0,-1
1511884336095292,-3,-18,-1,-1,1,1,4,2
1511884336110361,6,19,5,0,0,-1,3,2
1511884336110361,-8,-15,-12,-2,0,-2,-2,-8
1511884336116375,0,-2,-2,-2,-1,-1,0,-2
1511884336116375,-5,-2,2,2,1,1,0,-1
1511884336131387,-3,5,16,1,0,-3,-6,-4
1511884336131387,9,5,-2,0,0,0,5,6
1511884336138406,3,3,4,2,-4,-4,0,2
1511884336138406,3,-7,-4,-1,-4,0,4,2
1511884336153976,2,3,-2,2,2,3,14,15
1511884336153976,-9,2,1,1,0,2,-3,-5
1511884336160521,-2,-11,-5,-3,0,-3,-15,-12
1511884336160521,-4,16,2,-3,-3,-5,-9,-10
1511884336169548,2,-9,-7,-2,-1,3,5,9
1511884336169548,9,-3,1,-2,2,1,4,10
1511884336175562,4,0,-1,0,0,-3,2,2
1511884336175562,-10,-24,-6,-1,0,-3,-11,-14
1511884336190602,2,9,-1,1,2,0,0,-2
1511884336190602,-1,-6,-6,-1,1,4,11,9
1511884336198596,2,4,7,3,1,4,6,6
1511884336198596,0,7,-1,-5,-3,1,10,3
1511884336213637,-2,-15,-6,-2,-2,-5,-13,-4
1511884336213637,-8,-5,-7,-4,-3,-1,-12,-12
1511884336220655,-3,-5,-3,-1,3,3,-1,3
1511884336220655,0,8,3,-2,2,8,23,11
1511884336229679,-21,-50,-21,-4,-4,-7,-17,-18
1511884336229679,17,50,15,3,-4,-11,-18,-4
1511884336235721,-3,-9,-6,-2,-3,-4,-4,-5
1511884336235721,13,34,2,0,0,1,7,11
1511884336251289,19,-4,24,5,5,9,10,20
1511884336251289,-50,-30,-9,-2,1,4,8,-15
1511884336258833,40,1,-9,-4,1,4,20,59
1511884336258833,-38,0,6,-4,-4,-8,-26,-78
1511884336273877,-16,12,-15,-7,-22,-21,-44,-27
1511884336273877,23,0,6,2,6,-4,-2,7
1511884336280896,-17,12,18,-1,0,5,4,-7
1511884336280896,47,-2,-9,-2,-8,2,13,31
1511884336296939,-3,-2,-2,4,13,14,26,13
1511884336296939,12,7,-1,2,0,-2,-10,-9
1511884336297914,0,11,11,5,14,8,13,17
1511884336297914,-16,-11,2,4,1,-3,-8,0
1511884336310949,-7,13,1,-3,-4,0,6,-9
1511884336310949,9,0,1,-2,-5,2,14,23
1511884336318970,-17,-17,-5,-4,-8,-9,-16,-34
1511884336318970,-4,4,1,-3,-4,-5,-21,-10
1511884336333039,5,7,4,1,1,4,4,5
1511884336333039,0,-6,-1,-2,1,3,7,0
1511884336341056,3,-9,-7,2,-2,3,7,-1
1511884336341056,-4,1,6,2,3,5,17,23
1511884336356122,18,-3,-7,-6,-3,-11,-14,5
1511884336356122,-37,-22,-2,-4,-6,-10,-23,-29
1511884336357174,11,0,1,1,-1,-4,-15,-16
1511884336357174,1,0,-1,0,-1,1,9,24
1511884336371211,-1,-5,-1,-1,1,3,-3,-15
1511884336371211,19,4,-1,-3,0,3,17,26
1511884336378230,-17,-3,-2,-3,-5,-7,-18,-30
1511884336378230,7,-12,8,2,5,6,11,18
1511884336393272,-6,22,1,2,-3,-3,5,-3
1511884336393272,1,-13,-5,-1,-1,0,-4,-2
1511884336401315,-2,8,-15,-3,0,-2,7,4
1511884336401315,4,-12,-20,2,-2,0,0,0
1511884336416335,-15,-2,2,-1,0,-3,-4,-11
1511884336416335,9,10,3,1,2,0,-5,-4
1511884336417334,1,-4,18,0,-3,2,6,10
1511884336417334,-3,12,16,15,16,0,-7,-4
1511884336431399,6,5,13,0,-8,3,2,6
1511884336431399,-6,-7,6,18,2,0,1,-3
1511884336438417,-4,-2,12,-14,-8,-4,-1,0
1511884336438417,-6,-3,33,16,-3,-7,-9,-14
1511884336453483,3,-3,12,5,12,3,3,3
1511884336453483,-2,-6,6,-13,-4,-2,1,0
1511884336460530,-3,8,-25,8,-1,-5,-7,-5
1511884336460530,2,-10,-37,-22,-9,1,-4,-3
1511884336476550,8,22,-31,10,1,0,5,6
1511884336476550,-4,-9,-9,-3,-10,-3,0,-3
1511884336477551,-2,1,-9,-6,2,-1,-3,-6
1511884336477551,2,5,-4,-19,-3,-2,-1,0
1511884336490620,1,-6,-9,-1,1,2,3,3
1511884336490620,-3,5,-2,-6,-2,2,0,0
1511884336498627,0,-7,-2,-1,-4,0,1,1
1511884336498627,-1,4,-12,23,8,2,-2,-2
1511884336513648,-3,-14,-2,-10,-8,-3,-2,-1
1511884336513648,0,4,-3,11,4,0,0,2
1511884336520667,-3,-17,23,-6,-5,2,0,0
1511884336520667,-3,0,-5,-16,-6,-5,-6,-4
1511884336536735,-1,3,10,-5,-11,-3,-3,-5
1511884336536735,-3,3,5,28,19,4,-2,-2
1511884336537711,2,2,-17,-4,-14,-3,1,2
1511884336537711,1,4,-15,-20,21,5,1,0
1511884336552804,2,-12,4,3,-4,1,2,3
1511884336552804,-1,-3,7,19,12,5,-2,-2
1511884336558845,-4,-4,0,-19,-14,-4,-2,-3
1511884336558845,5,5,-7,16,-1,-8,-2,3
1511884336573861,2,1,23,28,7,4,2,0
1511884336573861,3,4,-97,-20,-6,0,4,3
1511884336580909,-3,19,-38,10,6,3,-2,-4
1511884336580909,-4,-7,-8,16,-2,-3,-2,-5
1511884336596952,-5,1,-1,-51,-6,-5,1,-1
1511884336596952,-3,-5,61,1,-8,-3,-3,0
1511884336597926,-2,0,34,-2,5,-3,-2,2
1511884336597926,2,5,30,-11,-8,2,-2,0
1511884336612996,0,0,19,-19,3,2,2,1
1511884336612996,6,9,24,-8,1,0,1,2
1511884336618003,-5,-5,8,4,2,2,1,-6
1511884336618003,-3,-7,5,-26,-2,2,-2,-1
1511884336633042,-5,-6,-11,34,-22,-14,-4,-4
1511884336633042,8,5,-6,-13,3,-3,4,7
1511884336641063,0,-7,-14,28,6,-2,0,-2
1511884336641063,-3,0,-11,-13,-9,-2,-6,-5
1511884336656132,-4,3,-16,-1,2,2,0,0
1511884336656132,-5,-4,-5,-24,-7,1,1,0
1511884336657204,1,-2,-2,7,-11,-4,0,5
1511884336657204,-1,-1,-4,13,5,0,2,0
1511884336672243,0,-2,-11,-22,-7,-1,-2,0
1511884336672243,3,4,6,-2,-3,-6,-3,-1
1511884336678287,0,-9,0,-6,5,8,3,1
1511884336678287,1,15,6,19,-3,-4,-3,-3
1511884336693300,-1,-21,-6,-21,1,4,-2,-1
1511884336693300,-8,-21,-10,-8,-10,8,1,-7
1511884336701323,3,35,15,-16,10,0,1,-1
1511884336701323,-6,-15,-18,-27,-12,-4,-6,-2
1511884336716364,0,1,0,2,12,0,2,0
1511884336716364,-1,4,2,-36,-20,-5,1,1
1511884336717363,0,-14,-9,28,9,0,-3,-1
1511884336717363,0,4,8,5,4,1,3,3
1511884336732404,0,11,-3,-4,8,2,-1,-2
1511884336732404,5,-5,-13,-14,2,-1,-2,4
1511884336738612,1,-2,2,20,3,-2,0,0
1511884336738612,3,2,1,-29,-9,2,5,4
1511884336753771,-5,-12,-9,26,-4,0,-3,-7
1511884336753771,-6,6,11,11,-2,-8,-1,-5
1511884336761374,0,-21,-18,-41,-3,3,2,10
1511884336761374,-2,7,11,19,-6,-7,-3,-14
1511884336777306,5,-1,-3,4,3,10,3,8
1511884336777306,-4,-17,-18,-33,-11,-8,-3,-4
1511884336777306,-2,4,12,6,-4,-7,-7,-5
1511884336777306,-7,-12,-11,-1,1,0,-4,-6
1511884336792346,5,-1,9,10,14,2,2,4
1511884336792346,-3,2,7,17,2,-2,-2,-5
1511884336798443,-2,-7,-5,-4,-3,-1,8,5
1511884336798443,11,4,-6,-11,6,1,7,10
1511884336813401,-3,2,-11,-21,-11,-4,1,-1
1511884336813401,-7,4,-1,7,9,3,-8,-9
1511884336821626,3,-4,3,-1,2,-3,-3,-5
1511884336821626,-3,-8,9,9,2,2,-7,-8
1511884336836481,10,19,-3,-7,3,-1,6,16
1511884336836481,-3,1,2,21,18,9,5,-6
1511884336837469,6,-3,4,12,-1,-4,-2,4
1511884336837469,-6,-18,-14,-8,-2,8,3,-7
1511884336852557,-4,-16,1,17,-10,-12,1,5
1511884336852557,-8,-1,-16,0,1,6,6,-2
1511884336858605,-6,-1,6,-3,-2,-1,-13,-21
1511884336858605,10,-3,11,34,8,7,14,27
1511884336873727,-9,-6,12,-7,-5,-3,-6,-10
1511884336873727,7,-5,16,9,-3,-7,-12,-7
1511884336880748,-32,-3,7,-5,-3,-3,-7,-7
1511884336880748,19,-9,-15,-5,-7,-16,-23,-12
1511884336896877,6,-26,-22,-20,8,7,5,4
1511884336896877,21,28,-9,3,-3,6,22,24
1511884336897679,-6,2,-7,11,6,3,9,1
1511884336897679,-4,8,6,-15,-6,1,6,6
1511884336912718,-8,0,-2,11,-4,1,0,-6
1511884336912718,0,4,3,-5,-9,-9,-6,-4
1511884336918737,16,9,-30,-8,14,9,7,11
1511884336918737,-19,-22,6,2,-11,0,6,-3
1511884336933777,9,23,3,10,-3,-7,-6,-17
1511884336933777,-10,-4,2,9,1,-7,-13,-1
1511884336941295,0,8,-7,-16,-12,0,-7,-9
1511884336941295,-7,10,11,20,4,-4,2,4
1511884336956868,20,16,0,19,4,-4,-6,2
1511884336956868,-1,2,17,2,2,4,8,10
1511884336957902,5,-7,5,-14,4,4,19,9
1511884336957902,8,18,2,1,-4,-5,3,17
1511884336972938,-17,-8,-3,-13,-7,-12,-26,-31
1511884336972938,-5,6,-3,16,4,-4,-12,-16
1511884336978958,-1,-19,7,0,-11,-5,-6,-1
1511884336978958,-8,20,-5,-9,15,10,10,-8
1511884336993998,-5,-17,-4,-17,7,3,-1,3
1511884336993998,4,-1,7,22,-14,-6,-1,2
1511884337000986,0,-22,-6,0,3,7,12,12
1511884337000986,6,21,4,-4,-8,-6,-9,2
1511884337017051,-5,-2,12,20,19,2,-13,-7
1511884337017051,-4,-3,-1,-35,-21,-4,-1,-12
1511884337017051,-3,10,5,15,3,-1,0,2
1511884337017051,3,-10,-5,4,9,1,3,1
1511884337032068,-3,5,9,29,9,9,7,5
1511884337032068,2,-4,-10,0,7,9,6,3
1511884337038083,-2,11,16,6,-9,-7,-1,0
1511884337038083,0,-28,-5,-11,-7,2,4,2
1511884337068680,13,4,-2,-2,1,3,15,11
1511884337068680,-3,-9,-15,-6,1,-7,-8,-1
1511884337077702,-12,-8,0,-3,-7,-10,-15,-9
1511884337077702,1,7,-7,-1,-3,-6,-19,-19
1511884337099762,-5,-14,-13,-21,-1,-3,-4,5
1511884337099762,2,2,-1,1,6,2,2,3
1511884337101793,2,-7,9,-15,4,-3,-1,3
1511884337101793,0,17,9,16,4,9,12,4
1511884337122822,2,4,-4,-7,-8,5,23,12
1511884337122822,2,-10,0,11,1,3,-7,5
1511884337123827,-4,15,8,-7,-4,-7,-15,-20
1511884337123827,-1,-9,6,23,-2,-3,-11,-5
1511884337143935,1,18,10,1,-6,-4,-3,2
1511884337143935,-2,2,5,-23,4,1,8,-2
1511884337154436,9,19,4,21,7,5,4,2
1511884337154436,-1,-25,-7,-2,-1,-2,2,1
1511884337174492,-8,4,-12,-5,-4,-1,-4,-5
1511884337174492,4,0,-14,-19,-13,-4,5,5
1511884337176497,3,-7,-7,14,6,-7,-4,-3
1511884337176497,-3,3,2,-21,0,-1,0,-4
1511884337195574,1,7,8,20,2,-1,4,4
1511884337195574,-5,1,-2,-5,8,10,10,3
1511884337204598,-3,-5,-4,-20,-23,-9,-10,-3
1511884337204598,-6,-12,-13,13,1,-6,-18,-14
1511884337227634,0,0,-3,-14,3,0,-8,-4
1511884337227634,-9,-31,13,17,-6,-5,3,-2
1511884337230641,12,22,4,1,8,6,8,18
1511884337230641,10,10,-1,-4,6,8,6,6
1511884337249247,-4,1,7,-5,-3,-4,-1,0
1511884337249247,-2,-12,-10,-13,-3,0,2,-1
1511884337256260,-3,2,2,6,-4,8,9,0
1511884337256260,-8,-13,-6,-8,-2,-8,-5,-5
1511884337271435,4,5,5,4,-4,-4,-6,-4
1511884337271435,0,9,4,2,4,-2,1,-2
1511884337280459,5,-8,-6,0,7,5,5,7
1511884337280459,2,4,0,-7,-7,-1,10,9
1511884337302518,-7,1,0,-5,-4,-6,-4,-5
1511884337302518,-7,-2,2,4,-1,-14,-20,-21
1511884337303520,-5,2,-1,-12,-6,-4,-20,-18
1511884337303520,2,10,8,9,5,7,-2,-2
1511884337324602,3,13,2,-9,0,0,12,9
1511884337324602,1,-20,-2,-1,5,6,14,13
1511884337326590,1,-19,1,10,1,-1,7,1
1511884337326590,-3,28,7,-9,0,-4,-12,-12
1511884337347667,-3,-19,-2,35,9,1,-6,-4
1511884337347667,7,21,2,2,-8,-5,2,7
1511884337353708,3,-16,-11,-10,-4,0,10,7
1511884337353708,-6,-5,1,-3,-6,-1,-2,-1
1511884337377345,1,1,-2,2,-5,-2,-8,-7
1511884337377345,6,5,-7,-1,3,2,-4,2
1511884337379349,-4,5,1,0,-1,-1,0,-6
1511884337379349,11,5,1,-4,-3,0,9,18
1511884337400374,-3,-11,-6,-22,-2,1,-3,-4
1511884337400374,2,6,-5,4,-1,-1,-5,-4
1511884337401376,-11,7,7,-4,-6,-1,0,-9
1511884337401376,4,-13,-6,-4,10,-1,-2,5
1511884337422467,-4,-19,-3,-4,1,-1,6,4
1511884337422467,1,13,1,7,-1,-3,-6,-5
1511884337423462,2,-4,-5,6,-2,-4,-7,-2
1511884337423462,-2,-6,-7,-2,-6,-1,4,3
1511884337444547,0,0,1,-1,-1,3,3,-4
1511884337444547,-1,2,2,1,2,-2,-2,1
1511884337452542,-1,12,-2,-5,10,2,-2,-3
1511884337452542,-8,-16,-5,-4,-13,-11,-7,-15
1511884337474625,3,16,-12,-10,-5,-3,1,5
1511884337474625,-4,-14,9,4,2,3,2,-1
1511884337476638,-1,5,-10,-18,3,-1,1,4
1511884337476638,-3,-10,0,-5,-7,0,0,-1
1511884337497711,-1,-2,6,0,-2,8,4,-1
1511884337497711,1,-1,-3,-3,4,1,3,1
1511884337498690,3,-3,-10,-5,-5,-4,-5,2
1511884337498690,-8,0,1,4,0,-5,-1,-7
1511884337519746,-2,1,3,-1,-4,0,-3,-10
1511884337519746,0,-2,1,2,-2,1,2,1
1511884337521751,-1,-5,3,3,4,1,2,-2
1511884337521751,-1,2,1,0,2,1,-4,4
1511884337542810,-1,-5,2,1,-1,-2,-1,4
1511884337542810,3,5,0,1,2,-2,-11,-13
1511884337544342,2,-6,-6,5,-1,-1,4,6
1511884337544342,-7,5,3,1,1,1,6,0
1511884337563920,-4,-1,-6,-6,0,-3,-3,-14
1511884337563920,1,4,4,2,-1,-1,0,6
1511884337573920,4,-3,5,2,-2,1,-9,-7
1511884337573920,-1,-14,-7,1,4,6,1,2
1511884337594976,1,-4,18,6,4,2,9,11
1511884337594976,-1,14,1,1,-2,-1,3,-2
1511884337595978,-2,-3,0,3,-2,-1,-6,-6
1511884337595978,-1,-5,0,0,2,-3,-2,0
1511884337602022,0,2,-8,-4,-3,-2,-5,-5
1511884337602022,-2,-5,-2,-2,-1,-3,-3,-1
1511884337602022,-1,-3,-2,0,-1,1,2,3
1511884337602022,2,4,8,0,0,-2,-2,-4
1511884337610030,-5,-6,-8,-2,3,3,1,2
1511884337610030,0,-2,2,2,2,3,8,5
1511884337611046,-1,4,-1,-2,-2,1,6,6
1511884337611046,1,4,-8,-6,-1,-1,1,-4
1511884337617035,-4,-5,-1,3,-1,-7,-15,-11
1511884337617035,-8,0,-2,-2,2,2,-9,-9
1511884337617035,-1,-3,0,3,-3,3,-6,-3
1511884337617035,2,-6,3,0,0,8,18,12
1511884337624080,0,-3,-1,-3,-5,-3,2,-4
1511884337624080,-3,-1,10,1,-1,-3,-11,-7
1511884337625056,0,-5,-6,-3,-1,-6,-8,-2
1511884337625056,0,13,10,-1,-2,-2,0,3
1511884337632075,2,1,0,2,-1,2,9,12
1511884337632075,0,-7,-7,-1,1,0,8,0
1511884337634080,3,6,3,-1,4,0,3,0
1511884337634080,-4,3,-4,-1,0,-5,-3,-5
1511884337639120,4,4,7,0,0,1,-3,-2
1511884337639120,-4,1,-1,-2,-5,-3,-6,-5
1511884337640096,-6,1,-3,-3,-2,1,1,-2
1511884337640096,3,-1,-3,-1,-3,-1,-1,-1
1511884337646670,-3,3,0,-3,-3,-4,-5,-5
1511884337646670,-1,-3,-3,-3,0,-2,0,1
1511884337647646,-2,-1,3,2,1,-1,0,-7
1511884337647646,-4,-4,-1,0,0,-3,-4,-5
1511884337655192,-1,-2,-4,0,-2,-1,-3,1
1511884337655192,4,14,3,2,-1,6,4,5
1511884337656669,1,-16,-9,-3,-1,-1,5,7
1511884337656669,0,3,-10,-2,1,2,0,-6
1511884337661210,-2,-3,4,0,-1,-5,-8,-3
1511884337661210,-3,-2,1,1,2,-4,-5,-4
1511884337662213,0,-2,-2,1,0,-2,2,-3
1511884337662213,5,0,0,1,-3,-2,-2,-2
1511884337676251,7,-2,-8,-1,-1,2,7,8
1511884337676251,-8,-17,7,4,-4,0,3,-2
1511884337683269,0,9,4,1,1,-3,-11,-3
1511884337683269,-2,2,1,2,4,4,-2,0
1511884337699316,-2,-6,1,0,-2,-4,-2,1
1511884337699316,2,13,-4,-5,-1,-3,-1,-2
1511884337700318,-3,-2,-6,-3,-2,0,9,4
1511884337700318,0,2,3,1,1,1,-6,-4
1511884337713466,-3,1,-5,-2,0,1,2,0
1511884337713466,-2,-12,-8,-3,-1,0,1,-1
1511884337721485,15,22,23,0,-3,-1,-4,11
1511884337721485,-3,1,-7,-2,-2,-4,-3,-1
1511884337736544,-1,-12,-5,0,-1,2,2,0
1511884337736544,-6,-4,-1,-1,0,0,2,6
1511884337744090,-1,2,-3,1,-2,0,-2,-6
1511884337744090,0,-5,2,-1,-4,1,7,5
1511884337758714,-5,4,0,-2,-3,-6,-15,-9
1511884337758714,0,-3,-1,-1,3,-2,-4,-6
1511884337759714,-3,0,1,0,2,4,5,-3
1511884337759714,1,1,-1,-1,1,-1,2,3
1511884337773864,4,8,0,0,2,3,10,11
1511884337773864,-8,-10,-5,-3,-4,-8,-13,-24
1511884337780867,8,10,-1,-1,0,-1,-1,9
1511884337780867,-1,-6,-4,-2,-2,-3,4,-4
1511884337795867,0,6,2,3,3,2,3,2
1511884337795867,6,21,4,-2,-1,0,-5,4
1511884337803834,-6,-46,-8,2,2,1,-1,-2
1511884337803834,-7,-11,0,-1,-2,-2,-5,-8
1511884337818874,1,-6,-7,-4,-2,3,2,0
1511884337818874,2,-5,0,2,-2,2,4,6
1511884337819873,-7,12,0,-3,-3,-3,-3,-10
1511884337819873,7,7,-1,1,2,-1,-5,4
1511884337833914,1,-2,5,-2,-4,-3,-1,-1
1511884337833914,-1,-17,-12,-5,-5,-2,6,8
1511884337841114,-7,1,-2,-3,-3,-3,1,-1
1511884337841114,-2,6,2,-4,-2,3,1,-2
1511884337856565,4,5,-9,-2,1,3,5,3
1511884337856565,0,3,-1,0,2,3,-2,4
1511884337863717,2,-1,-2,3,-3,-5,3,-2
1511884337863717,4,0,-3,-1,-4,-6,-14,-11
1511884337879710,-8,6,7,0,3,-1,-5,-11
1511884337879710,1,-5,-6,-3,-2,-1,5,8
1511884337879710,-3,10,0,-3,1,2,5,6
1511884337879710,0,-10,-6,-2,1,1,6,8
1511884337893721,2,-7,0,-1,-2,-1,2,4
1511884337893721,2,17,5,5,1,-3,-2,-10
1511884337900743,-7,6,2,1,-2,-1,-7,-6
1511884337900743,4,6,4,1,2,4,0,0
1511884337915779,5,17,3,2,3,0,-1,1
1511884337915779,-6,-6,-7,-6,-3,-3,1,-1
1511884337923997,2,-11,-4,-3,-1,-1,2,2
1511884337923997,0,6,1,1,0,0,8,7
1511884337938869,-9,-12,-12,-4,-5,-3,-5,-12
1511884337938869,3,9,10,3,-3,-5,-11,-12
1511884337939843,5,1,3,2,-1,-1,-4,2
1511884337939843,-3,-3,3,1,-2,1,4,6
1511884337953881,-4,2,2,0,-1,1,-2,-5
1511884337953881,0,-1,-1,-2,1,3,8,7
1511884337961403,0,-5,-2,-3,-2,1,-5,-8
1511884337961403,-1,-2,-8,-3,-1,-4,-6,-4
1511884337976445,-8,-11,6,-1,-2,-2,2,-3
1511884337976445,6,0,0,-2,3,-1,0,0
1511884337983462,2,-5,2,4,-2,-2,-6,0
1511884337983462,-4,-6,1,-2,0,1,-1,-1
1511884337999533,-1,6,-5,1,-1,-3,-4,-5
1511884337999533,-5,-7,-2,2,-3,-2,-2,1
1511884337999533,1,5,-8,-6,-2,0,4,4
1511884337999533,1,-2,1,-1,3,2,-2,-4
1511884338013541,-2,-18,-13,-6,-1,3,0,4
1511884338013541,8,22,6,-1,4,2,7,2
1511884338020560,-4,1,-4,0,-3,-4,0,-2
1511884338020560,-3,-5,0,0,-5,-8,-11,-13
1511884338035631,1,-1,-3,-1,0,-5,-5,-1
1511884338035631,1,-6,-5,1,0,1,3,5
1511884338043624,-1,4,1,-5,-5,-2,2,6
1511884338043624,-4,-1,-11,0,-1,1,5,-1
