timestamp,emg1,emg2,emg3,emg4,emg5,emg6,emg7,emg8
1511885129371378,2,0,-2,-1,-1,-3,1,2
1511885129371378,0,0,0,-1,-2,-1,1,2
1511885129372381,-3,-2,-2,-1,-3,0,0,-1
1511885129372381,-2,-2,0,-1,-3,-3,-1,0
1511885129373383,2,-2,2,-2,-4,-3,0,2
1511885129373383,-3,-2,-1,-2,2,3,-3,-3
1511885129377394,1,0,1,1,-2,-4,-4,0
1511885129377394,-1,1,-3,0,-7,-2,0,-1
1511885129381408,-2,-2,1,1,3,2,1,-3
1511885129381408,-2,-1,-2,2,-13,-5,-3,0
1511885129392434,1,1,-2,-10,-9,-1,0,0
1511885129392434,0,-1,-1,1,12,-1,1,0
1511885129398452,-1,1,-5,-3,-7,-4,-1,-1
1511885129398452,-1,-2,0,-10,-6,-4,1,0
1511885129413584,-3,1,1,6,12,3,1,-1
1511885129413584,0,0,0,-7,-12,-3,-1,-2
1511885129421512,-2,-2,-1,4,5,6,-2,-2
1511885129421512,1,0,2,-3,5,-1,-2,0
1511885129428732,0,-4,1,0,-7,-7,0,-1
1511885129428732,-3,0,2,1,4,1,0,0
1511885129443587,1,2,1,0,4,4,0,-1
1511885129443587,2,0,-1,0,-2,1,0,-2
1511885129451591,-1,-1,-5,0,5,1,-1,-3
1511885129451591,0,0,-1,6,2,0,3,1
1511885129490837,-2,2,0,0,1,1,1,1
1511885129490837,-2,-3,-3,-3,-4,0,-1,-2
1511885129491843,2,-1,1,-6,-7,-4,-2,-1
1511885129491843,-2,0,-1,10,11,0,-1,-1
1511885129492843,-2,-2,-5,-22,-5,3,-1,-4
1511885129492843,0,2,2,12,-3,-1,1,4
1511885129496852,2,-1,0,-1,-7,-7,1,2
1511885129496852,-1,-2,0,-8,-1,-4,-2,-2
1511885129502871,-1,2,-1,6,5,0,-1,-2
1511885129502871,-1,-2,-2,-3,3,-10,-2,-1
1511885129511892,-2,0,5,-43,-5,7,2,1
1511885129511892,0,0,-7,44,-7,-5,2,0
1511885129518103,-6,-4,-2,-2,10,-4,-2,-3
1511885129518103,-2,-2,0,10,3,0,-1,-1
1511885129534955,-1,-2,-3,-4,-5,5,-3,-2
1511885129534955,-5,-4,-2,-20,9,-2,0,-1
1511885129541031,3,-2,-3,-16,-4,8,2,3
1511885129541031,-3,1,0,11,2,-1,-2,-3
1511885129557076,1,-2,-5,-19,-1,-6,1,-2
1511885129557076,-1,0,7,10,-1,0,-3,0
1511885129563204,7,0,-4,0,-9,-3,3,4
1511885129563204,-1,-1,-1,-3,7,6,0,0
1511885129572115,-5,0,-4,6,9,-2,-2,-2
1511885129572115,3,1,3,15,1,9,3,0
1511885129578131,-3,0,1,-4,6,-8,-1,-1
1511885129578131,-3,0,1,12,-2,1,-2,0
1511885129594174,3,3,0,19,6,2,5,2
1511885129594174,0,0,-2,-30,2,1,-1,-1
1511885129600193,-3,-3,3,23,-6,3,-2,0
1511885129600193,0,-1,0,1,5,1,1,-1
1511885129617236,-1,0,2,20,-4,-5,-2,-2
1511885129617236,-1,0,-1,5,-11,-2,-1,-1
1511885129623255,5,0,2,-5,-15,-7,2,-1
1511885129623255,3,2,-2,-9,-8,-2,2,-1
1511885129632276,-1,-3,0,-12,-6,2,-3,-3
1511885129632276,-1,-3,0,-12,0,-1,-2,0
1511885129638291,-2,-1,-1,3,3,6,-2,-1
1511885129638291,2,0,0,-4,2,0,-1,2
1511885129662357,0,-2,-4,9,-3,-2,1,-1
1511885129662357,1,0,-1,-19,1,-4,-1,-1
1511885129663358,-2,-4,0,13,10,3,-5,-3
1511885129663358,-1,-3,-5,-15,4,-3,0,-2
1511885129677395,0,0,3,6,-4,0,0,0
1511885129677395,-1,0,0,24,1,0,1,-2
1511885129683411,-1,0,0,-19,6,-1,4,-1
1511885129683411,1,2,2,3,-7,4,0,-1
1511885129692603,0,2,1,1,7,-6,-3,-1
1511885129692603,1,-3,-2,-10,-11,2,-2,1
1511885129698452,-3,1,2,10,4,3,-2,-3
1511885129698452,0,-3,-2,-6,2,-4,1,3
1511885129714494,-6,-1,-2,9,13,4,-1,-1
1511885129714494,-1,1,0,-5,-8,1,-2,-1
1511885129720514,0,-2,-2,-5,-10,-5,-1,-2
1511885129720514,-2,-2,-2,-9,-2,-2,-4,-1
1511885129736677,-3,-3,2,3,4,3,-3,-2
1511885129736677,0,-1,-3,-2,-3,-6,-1,1
1511885129742569,0,1,1,-5,-1,1,0,0
1511885129742569,-3,-1,1,4,-5,1,-1,-3
1511885129751596,0,2,-3,6,7,1,2,1
1511885129751596,0,-1,-1,-12,-1,-2,-2,-1
1511885129757612,0,0,-3,5,2,-1,-3,0
1511885129757612,0,0,0,-7,0,0,-4,-2
1511885129774654,-1,-2,0,-2,-13,-11,-1,0
1511885129774654,-1,-1,-2,7,19,3,1,2
1511885129781049,0,-2,0,-6,-8,-13,-2,1
1511885129781049,-3,0,-1,11,12,21,2,-2
1511885129796911,4,1,-3,-12,-13,-6,-1,1
1511885129796911,-1,0,-2,-11,-3,-11,-4,-2
1511885129802926,-2,0,-1,10,-3,2,1,-1
1511885129802926,2,-2,-1,-10,-5,-4,0,0
1511885129811964,-3,-3,-2,-2,5,4,-1,-3
1511885129811964,-3,-1,1,5,1,0,2,-2
1511885129817966,-1,0,0,0,-6,-2,-2,0
1511885129817966,-1,1,-1,-9,-6,-7,-1,-1
1511885129834010,-1,-2,-3,6,2,4,-2,-1
1511885129834010,1,-2,-1,-6,-4,0,1,1
1511885129841074,-1,0,-2,4,2,2,-1,0
1511885129841074,0,-2,-4,-2,-2,0,0,0
1511885129857071,1,1,5,4,2,1,-1,1
1511885129857071,0,0,-2,-3,-4,3,-2,-1
1511885129863087,-3,0,2,1,7,3,1,0
1511885129863087,2,-2,-3,-3,-1,-2,0,0
1511885129872111,-1,-4,-1,-8,-3,-3,-1,0
1511885129872111,-1,-1,-3,3,-1,2,1,-1
1511885129878452,0,-1,2,-3,0,1,-3,1
1511885129878452,0,1,-2,2,-1,-5,2,-2
1511885129894311,1,0,-3,-11,2,2,-2,-1
1511885129894311,0,0,-2,7,-4,2,-1,-2
1511885129900328,-1,-2,-4,9,1,-2,-1,-1
1511885129900328,-2,2,-3,-20,-2,-3,-2,-1
1511885129917503,2,-1,-5,-2,-2,0,-1,-1
1511885129917503,-1,-2,2,-3,-3,3,-1,0
1511885129923552,1,-2,-3,-9,-2,0,1,2
1511885129923552,-1,2,-1,7,-2,0,-1,0
1511885129931548,-1,-1,2,3,2,1,0,-1
1511885129931548,0,2,1,-3,1,-4,-2,-2
1511885129937615,1,-1,1,-7,2,1,1,-2
1511885129937615,0,-2,3,17,-2,1,1,1
1511885129954688,2,-3,-2,-9,-5,1,2,1
1511885129954688,-1,0,1,-1,1,-3,-2,-2
1511885129960704,-3,-2,-2,27,-1,-3,-1,-1
1511885129960704,1,-1,1,-18,-5,-3,0,0
1511885129976747,-2,0,2,16,3,-1,-1,1
1511885129976747,-2,-3,-2,-20,-1,0,1,-1
1511885129982766,-2,1,-1,-2,3,-1,-5,-1
1511885129982766,0,0,1,22,-1,-5,-1,-3
1511885129991787,-2,3,-3,3,0,8,-1,0
1511885129991787,5,1,4,-15,-11,-2,4,2
1511885129997950,-5,-2,-1,19,5,3,5,-3
1511885129997950,0,-3,-1,8,-4,-6,-2,1
1511885130014881,-4,-2,-4,53,4,-1,0,-4
1511885130014881,-2,-1,1,-61,1,9,7,-2
1511885130020902,2,3,-2,4,-2,-2,-5,-1
1511885130020902,2,3,2,-5,-5,-3,3,-2
1511885130037160,0,-6,0,26,-1,-3,-2,3
1511885130037160,-4,0,3,-10,0,-4,-5,-1
1511885130043176,-4,1,-8,-6,0,0,-3,-3
1511885130043176,1,-2,-7,-7,-2,2,-3,-2
1511885130052199,-3,-1,-1,-28,1,0,-2,-1
1511885130052199,0,-2,-1,21,4,1,0,-2
1511885130058344,-2,-3,4,-25,-6,1,-1,-4
1511885130058344,0,0,-1,-29,3,0,-2,1
1511885130074388,16,1,-4,11,-2,-1,3,4
1511885130074388,-24,-1,-4,3,5,-1,-2,-4
1511885130080402,13,-3,10,38,-3,0,5,-3
1511885130080402,-20,4,-11,-9,0,-4,-1,4
1511885130097477,17,4,16,-19,-3,1,-11,-1
1511885130097477,18,-1,-17,4,-5,-7,-19,0
1511885130103480,11,-3,-7,3,1,4,13,-6
1511885130103480,-7,2,21,13,0,-3,4,4
1511885130111529,-28,6,4,-18,-3,-7,-5,1
1511885130111529,32,12,10,28,-4,7,14,-21
1511885130117783,-43,-18,-13,-31,-2,-7,-25,24
1511885130117783,71,-6,8,9,-2,1,-20,-15
1511885130134700,-78,6,-8,-2,3,-2,9,-1
1511885130134700,48,-3,4,5,1,6,-10,36
1511885130140721,11,3,1,-6,-1,4,33,-4
1511885130140721,-27,-15,-13,1,2,13,91,-18
1511885130156792,44,7,8,-8,-2,-3,-45,4
1511885130156792,-33,-12,-9,8,-3,-8,8,-4
1511885130162778,34,9,3,-4,2,12,-33,3
1511885130162778,-28,5,-1,9,1,-4,-21,31
1511885130171800,-12,-11,-6,-8,0,3,42,-14
1511885130171800,-21,-3,-5,8,-2,0,80,-8
1511885130177819,-4,-2,3,-5,2,7,21,-10
1511885130177819,9,12,3,-4,1,-7,-24,-10
1511885130194860,0,-4,-4,-2,-4,3,12,-6
1511885130194860,-12,-10,-6,3,0,4,37,8
1511885130200903,8,4,10,-6,-1,-7,26,-1
1511885130200903,-19,0,-9,-1,-3,2,-20,-4
1511885130216919,17,-20,-5,-9,-3,-3,3,2
1511885130216919,-5,3,0,2,-2,-9,-69,-6
1511885130222935,-8,10,8,-1,-5,-6,-10,0
1511885130222935,8,0,-11,-8,-1,0,8,5
1511885130231958,10,-2,11,0,-14,-5,-26,2
1511885130231958,1,7,3,14,18,-1,-15,-5
1511885130245209,-8,-2,-7,-16,-13,-5,-68,-1
1511885130245209,3,0,3,-6,-12,-5,-102,2
1511885130254227,8,5,2,23,24,1,-27,1
1511885130254227,-6,4,17,0,-16,4,-21,-2
1511885130260123,3,-4,-38,-2,-3,-2,8,2
1511885130260123,-3,-10,6,5,-10,-2,11,-3
1511885130277169,3,2,-18,2,28,2,9,-3
1511885130277169,0,2,5,-8,-12,0,-15,1
1511885130283302,3,-2,12,10,7,-6,6,2
1511885130283302,-1,3,-11,-16,1,4,-2,-3
1511885130292209,-4,-20,13,12,-13,-4,7,-3
1511885130292209,-2,15,22,11,11,0,-3,3
1511885130305244,-2,0,5,-21,-6,0,-2,-2
1511885130305244,2,-14,-22,9,10,3,13,2
1511885130314301,8,8,-42,-22,-12,-4,7,4
1511885130314301,-3,0,-5,-5,-3,-2,-52,-4
1511885130320320,-3,-7,17,7,4,-4,0,-2
1511885130320320,6,11,17,17,8,1,-1,-3
1511885130337362,-3,-1,7,-14,-5,-1,-7,-1
1511885130337362,-4,-3,-11,-3,-3,-7,-1,-2
1511885130343378,-5,3,-15,-5,3,1,1,-2
1511885130343378,-2,-5,-6,5,4,1,15,0
1511885130352406,1,3,6,-6,-9,-2,6,1
1511885130352406,-3,-7,-7,0,5,8,40,-1
1511885130365440,4,8,11,3,1,4,0,-3
1511885130365440,-8,-8,-3,-4,-1,3,12,-2
1511885130374461,-2,-5,9,2,1,4,-7,-3
1511885130374461,3,1,0,-3,3,2,-4,1
1511885130380477,-7,9,2,-1,1,-2,-1,-1
1511885130380477,-1,-7,-7,-2,-2,-1,2,2
1511885130396710,-1,1,0,-3,-3,1,3,-5
1511885130396710,-1,0,-4,3,2,-5,-1,2
1511885130403542,-4,-8,13,1,-5,2,4,0
1511885130403542,-2,1,0,-5,0,0,-5,-2
1511885130411767,-2,6,5,-2,-1,-1,-1,-1
1511885130411767,0,-9,-30,-4,1,-3,-2,0
1511885130425789,0,-6,25,0,0,-4,-5,-2
1511885130425789,-1,-2,-10,-5,-2,1,4,-3
1511885130434661,0,10,8,0,-1,0,9,0
1511885130434661,1,-16,-14,-1,-2,-2,-5,-2
1511885130440682,0,2,-3,1,1,5,3,1
1511885130440682,0,2,10,1,0,-2,-2,-1
1511885130456760,1,-1,3,-6,-2,-3,-3,-1
1511885130456760,2,5,8,-2,-3,-3,-28,-2
1511885130462738,-3,-4,-11,-1,0,-4,2,-1
1511885130462738,3,5,13,-3,-1,-2,-3,-2
1511885130477935,-4,-5,-13,0,0,-1,0,-2
1511885130477935,-1,-7,-2,-2,0,0,-1,0
1511885130485800,-4,-5,-14,0,0,-2,-4,-2
1511885130485800,2,8,8,1,0,0,0,-1
1511885130500969,1,3,-9,-3,-1,1,9,-1
1511885130500969,0,-2,14,1,7,2,11,1
1511885130501967,-4,5,-30,-4,-5,1,-3,-2
1511885130501967,-3,2,11,0,1,0,4,-1
1511885130517093,1,2,7,2,-1,-1,-4,4
1511885130517093,1,7,11,1,-2,3,6,-7
1511885130523112,-8,3,8,-1,-1,-2,-1,-2
1511885130523112,0,-1,4,2,3,-3,-24,1
1511885130538153,6,0,-11,-2,-2,0,3,0
1511885130538153,5,2,0,0,-4,-2,0,3
1511885130545381,-1,-6,2,-1,0,-6,-1,-4
1511885130545381,1,-6,-6,0,-1,-3,-1,-2
1511885130561420,-4,-3,5,2,0,-1,-13,-1
1511885130561420,0,-8,-17,-3,2,1,3,-2
1511885130562399,3,-1,8,-1,-1,-1,1,1
1511885130562399,-3,0,-12,-1,-3,2,12,7
1511885130577429,0,3,2,1,0,-1,-2,-2
1511885130577429,-3,-4,4,1,-1,-1,0,-2
1511885130583447,2,0,1,-1,-1,-3,-1,0
1511885130583447,2,-1,-2,-1,0,0,3,-3
1511885130597669,4,6,16,-2,1,0,-33,-1
1511885130597669,-1,-3,-11,-1,-1,-2,-1,1
1511885130605504,0,1,3,0,0,-3,4,0
1511885130605504,3,-5,-10,-2,-4,-3,4,2
1511885130620685,5,3,6,1,-2,3,0,2
1511885130620685,-5,-4,2,-1,1,-5,3,-1
1511885130621685,7,0,-3,0,0,1,-2,3
1511885130621685,3,4,-11,-4,-1,-9,-6,-8
1511885130636725,-7,-7,-2,0,-1,-6,15,-1
1511885130636725,0,6,-1,-2,0,2,1,3
1511885130642742,-1,4,-1,1,1,1,1,-1
1511885130642742,-14,-6,8,0,1,3,40,-2
1511885130657904,17,-2,-10,-1,-1,3,40,7
1511885130657904,-2,4,3,-1,-5,-4,-19,-1
1511885130665805,8,2,1,0,-1,2,-9,5
1511885130665805,-14,-1,3,1,-1,-6,-7,-4
1511885130680845,-5,0,0,-2,2,10,13,0
1511885130680845,1,2,3,5,-4,0,21,8
1511885130681845,-5,0,-5,-2,-2,-4,8,1
1511885130681845,4,0,1,-3,-3,-2,-55,-9
1511885130696886,-7,-9,-5,-2,2,0,11,2
1511885130696886,2,3,3,-4,-1,-5,-11,-7
1511885130702904,-7,-5,-5,1,1,8,8,0
1511885130702904,7,-1,2,-12,-11,0,-12,1
1511885130717941,-5,-2,-5,6,-3,-5,-14,-7
1511885130717941,4,3,0,13,23,4,8,1
1511885130724959,1,0,-3,-6,-12,-1,-13,-4
1511885130724959,0,0,0,0,-1,-2,11,1
1511885130741029,-1,-1,-2,-17,-24,-4,-9,-2
1511885130741029,3,-1,3,8,19,-6,4,1
1511885130742005,-2,-3,-6,-21,-27,-4,-4,-4
1511885130742005,4,4,5,39,47,10,10,6
1511885130757063,4,0,-12,-10,-27,-5,-2,1
1511885130757063,-3,2,-4,-2,-13,0,-6,-4
1511885130763240,-1,-7,-6,-20,-11,-7,2,-1
1511885130763240,0,9,-3,-7,-15,4,5,2
1511885130778117,-2,-7,-4,4,14,-5,-9,-4
1511885130778117,-5,6,12,2,9,6,1,-6
1511885130785140,2,-6,3,19,4,-2,0,3
1511885130785140,-2,-1,-6,-20,-18,-2,3,-2
1511885130801179,-2,0,12,22,35,6,-6,-1
1511885130801179,0,-5,0,-25,-21,-3,-2,-2
1511885130802181,1,3,10,20,3,-1,3,-1
1511885130802181,1,-1,-9,4,16,-4,1,1
1511885130817279,-1,2,-2,7,-10,-1,-2,-2
1511885130817279,-2,-2,6,-7,18,1,1,-2
1511885130823271,1,1,-3,-1,5,-1,-4,-1
1511885130823271,5,1,10,14,-13,-4,4,4
1511885130838307,-1,0,-8,-20,-10,-3,-5,0
1511885130838307,0,-3,-6,15,1,4,1,2
1511885130845522,6,1,-3,-13,-1,-4,0,0
1511885130845522,-4,1,2,-2,2,3,-1,-3
1511885130861494,-4,-2,-1,-16,-8,-1,-5,-5
1511885130861494,0,-1,-6,18,-13,-8,-2,-3
1511885130862474,-5,1,-7,-6,7,4,1,-3
1511885130862474,2,-3,6,10,-8,3,-1,-1
1511885130877412,-1,-3,2,-9,5,-1,-3,0
1511885130877412,-1,3,-6,-20,-8,0,-3,-2
1511885130883431,-3,-2,-1,9,6,3,3,-1
1511885130883431,4,-1,5,-13,2,-4,-1,1
1511885130898557,-2,4,0,-5,2,0,-2,0
1511885130898557,2,-1,-14,-1,0,4,0,-1
1511885130905490,3,1,4,-5,-1,0,-1,0
1511885130905490,-6,-4,-2,-10,-5,-1,-1,-1
1511885130921533,-5,2,1,9,3,-1,-2,0
1511885130921533,9,-1,7,-1,-11,0,7,4
1511885130921533,-12,-2,-3,1,5,-1,-6,-3
1511885130921533,4,-1,5,28,-3,1,-2,-5
1511885130936724,3,3,-6,-6,-1,-2,1,2
1511885130936724,-6,0,0,-1,-3,0,-4,-4
1511885130942783,2,-3,-1,8,3,1,-1,1
1511885130942783,-3,-1,-2,-19,1,-1,1,-3
1511885130958118,1,-2,2,13,1,1,0,-2
1511885130958118,3,-1,0,5,1,-1,0,5
1511885130965942,4,4,-2,-7,2,-3,-1,3
1511885130965942,-1,-2,2,-9,-4,-1,-3,1
1511885130980986,-2,-4,-1,1,3,1,-1,-2
1511885130980986,-2,-1,-1,-11,-6,0,-5,-2
1511885130981985,1,-2,-1,17,1,-5,1,-2
1511885130981985,-2,1,-5,-13,0,1,-2,-1
1511885130997072,0,0,4,12,4,-4,-1,1
1511885130997072,-1,-2,-1,-7,-2,-2,-6,0
1511885131003148,-4,-6,0,0,-1,1,6,-3
1511885131003148,-2,0,-4,-12,2,0,0,0
1511885131018124,0,0,2,34,-2,-3,-2,0
1511885131018124,-2,-1,-2,-6,-2,-2,-1,-1
1511885131025141,5,1,8,0,0,-2,-2,2
1511885131025141,-3,2,-13,-8,-2,-2,-1,0
1511885131041200,0,-5,0,-8,3,2,1,-1
1511885131041200,-5,1,2,6,-1,3,-2,-4
1511885131042204,0,3,-6,6,9,1,-1,0
1511885131042204,1,0,14,1,-2,2,-1,2
1511885131057242,2,6,-2,-9,1,1,-3,-1
1511885131057242,-1,-8,3,0,-10,-6,1,0
1511885131063302,-2,0,-17,2,20,0,-3,-1
1511885131063302,0,1,4,5,-10,-3,-1,-1
1511885131078495,-2,-4,-2,-8,-3,0,-1,-1
1511885131078495,-1,4,-8,-5,-3,-5,1,0
1511885131085316,0,-1,-1,-12,-10,-5,-2,0
1511885131085316,-1,-3,-1,-2,1,1,0,0
1511885131102361,0,2,6,12,-5,0,-1,-1
1511885131102361,1,3,-1,-13,0,2,0,-1
1511885131103364,-2,0,7,1,-4,-1,-3,-2
1511885131103364,5,-3,-13,2,3,-4,0,2
1511885131117422,-2,-4,1,-13,-2,-1,-1,0
1511885131117422,-1,-3,4,8,2,0,-1,0
1511885131123417,-2,1,-5,-4,-3,3,-1,-2
1511885131123417,-3,-4,4,-3,-3,1,4,0
1511885131138461,0,2,-3,0,1,0,0,-1
1511885131138461,-1,-1,-7,6,3,-2,0,-3
1511885131145655,-1,0,3,-17,-4,4,-3,-2
1511885131145655,-1,1,4,23,3,2,-2,-2
1511885131160517,-2,-2,-3,-4,0,-4,2,1
1511885131160517,-1,0,1,2,7,-9,-2,0
1511885131167538,0,-2,5,-3,-3,5,2,-1
1511885131167538,1,1,-3,-6,1,2,-2,-1
1511885131176695,-4,-1,-1,-10,0,3,-1,-1
1511885131176695,1,-3,0,4,-2,2,0,3
1511885131182710,-2,-1,1,7,-13,-10,-2,1
1511885131182710,1,4,-1,-9,-2,-3,0,-1
1511885131197773,-1,-2,5,7,-2,0,-1,-2
1511885131197773,-3,-2,-1,-11,1,-2,-1,-1
1511885131205801,0,-2,7,6,-4,0,0,0
1511885131205801,-1,-1,-17,-16,-2,-5,0,-2
1511885131220935,3,8,9,9,-1,1,-2,-2
1511885131220935,1,-16,-7,17,-3,-2,3,2
1511885131228131,0,1,13,-20,3,-1,-2,0
1511885131228131,-2,1,16,13,-2,0,-2,-1
1511885131237029,-1,-4,-15,-10,0,-2,1,0
1511885131237029,0,0,-5,1,3,-1,2,-1
1511885131243071,0,-3,0,4,-1,0,-1,-3
1511885131243071,1,6,9,-11,-3,-3,-3,0
1511885131258182,-2,-6,2,-7,3,-3,0,-2
1511885131258182,0,8,-9,0,-2,4,0,-2
1511885131265186,0,-7,-6,-4,2,4,-4,-1
1511885131265186,0,2,-6,4,2,-3,3,1
1511885131280147,1,-7,-14,6,1,-1,1,-1
1511885131280147,-4,4,9,-4,-1,-2,-5,-2
1511885131288335,-3,6,-3,0,2,-3,-1,-3
1511885131288335,3,-2,-4,8,1,-2,1,0
1511885131303208,-2,3,0,-2,2,6,-1,0
1511885131303208,-1,-2,2,-10,-4,1,1,-3
1511885131304207,0,3,-5,7,-1,0,3,0
1511885131304207,-3,-7,3,4,2,0,-5,-3
1511885131318249,1,1,-1,1,-1,-4,1,-1
1511885131318249,0,2,-1,-7,1,-1,0,-1
1511885131325428,1,-2,-1,12,4,-2,-6,-3
1511885131325428,-2,-1,-4,-2,-2,1,15,1
1511885131340366,1,-3,1,-4,-2,-1,-2,2
1511885131340366,0,0,0,-5,-1,0,0,0
1511885131348396,1,2,0,18,1,-5,-2,-3
1511885131348396,-1,-5,0,-7,-4,0,-4,0
1511885131363608,-2,6,4,-5,-7,-2,-1,-2
1511885131363608,-1,0,-7,17,26,4,0,0
1511885131364427,1,-2,-13,-14,-4,-1,1,-1
1511885131364427,-2,-2,8,0,1,1,-4,-2
1511885131378464,1,-2,2,-15,-5,0,0,3
1511885131378464,-2,4,2,-3,-10,-6,-2,-1
1511885131385486,-2,-7,-6,1,-2,0,2,1
1511885131385486,-1,2,-6,-5,-1,0,-5,-1
1511885131400526,-2,-3,2,5,2,-1,-2,-3
1511885131400526,1,3,8,-6,-4,-1,0,0
1511885131407545,-4,1,-2,11,2,2,1,2
1511885131407545,1,0,-4,-1,-9,-4,-1,0
1511885131423635,-1,1,10,3,3,-2,1,-2
1511885131423635,0,-2,-7,-3,-4,2,-1,-1
1511885131424615,1,2,0,-11,-2,2,1,1
1511885131424615,-1,-2,-1,1,-1,2,1,-1
1511885131437791,0,-4,-12,5,-1,0,-3,1
1511885131437791,0,-1,4,-1,1,-2,-1,-2
1511885131445851,-2,0,8,1,-5,1,-4,-1
1511885131445851,-2,-1,-3,-10,1,0,-1,0
1511885131460851,0,0,-7,3,2,0,0,0
1511885131460851,-3,-6,4,-3,-4,0,-2,-1
1511885131468052,1,-2,-6,-11,-3,-5,1,-1
1511885131468052,2,4,6,18,-1,-2,-2,0
1511885131483371,-3,-2,-2,-6,2,-1,-1,0
1511885131483371,-1,-4,0,3,-5,-1,-2,-1
1511885131484249,2,1,3,-8,5,2,-3,0
1511885131484249,-1,-2,-9,0,-4,-1,2,-1
1511885131498391,-2,1,4,-3,0,0,-2,-2
1511885131498391,0,0,-5,-5,-1,1,0,0
1511885131505432,0,-4,5,7,3,1,-1,0
1511885131505432,-1,-2,-2,-3,-5,-4,-3,1
1511885131520701,1,2,-2,-1,-6,-1,-2,-1
1511885131520701,-5,-3,-10,-4,1,-3,1,1
1511885131527867,-3,-5,-7,-5,-9,3,0,0
1511885131527867,-1,-2,6,-2,5,1,-5,-3
1511885131543942,1,1,-1,2,-1,2,6,-2
1511885131543942,1,-1,3,-1,-7,1,-1,0
1511885131544966,-2,3,3,0,2,-2,0,-2
1511885131544966,-2,-3,1,4,6,0,-2,-1
1511885131557836,2,0,-4,-2,-1,-3,-3,1
1511885131557836,0,-1,5,2,2,1,-3,-2
1511885131565854,-3,1,-4,-6,0,-3,0,-3
1511885131565854,3,0,0,1,-7,-2,-1,-2
1511885131581020,-1,-3,-3,0,1,2,-2,-2
1511885131581020,1,-1,-2,2,-2,-3,0,-1
1511885131587950,0,0,-2,0,0,-4,1,-1
1511885131587950,-1,0,-8,-1,3,2,1,-1
1511885131603996,-2,0,1,-2,-2,-3,-2,-2
1511885131603996,3,-2,-1,0,-1,-5,1,0
1511885131603996,0,-1,-1,-1,1,2,1,1
1511885131603996,0,-4,3,-2,1,3,0,0
1511885131618146,0,0,-10,1,0,2,1,2
1511885131618146,-2,1,8,-6,-1,3,-2,0
1511885131625373,-3,-1,1,8,2,1,1,-3
1511885131625373,1,-2,-1,-2,1,0,-4,1
1511885131640526,-1,3,6,-6,-4,-3,1,1
1511885131640526,-3,-2,2,2,-1,2,-1,0
1511885131648461,0,-3,-7,5,15,-3,0,0
1511885131648461,-2,-1,3,-6,-1,0,-2,-1
1511885131663463,0,-3,5,-4,-2,0,-2,-3
1511885131663463,1,1,-19,3,-6,0,0,-1
1511885131664466,0,-2,7,4,-8,-3,-8,-1
1511885131664466,-2,0,-6,-6,-2,-4,10,-2
1511885131677500,-1,-9,1,-3,2,-1,-2,0
1511885131677500,-2,-2,1,-2,0,-2,0,-1
1511885131685521,2,1,-7,-8,-3,-1,0,0
1511885131685521,1,1,1,2,2,-3,-1,-2
1511885131700563,-1,1,3,-1,-4,-4,-1,-1
1511885131700563,0,0,0,2,-2,-3,-1,-1
1511885131707582,-2,1,7,11,2,1,-1,1
1511885131707582,-3,-3,-2,-12,-2,-4,-2,0
1511885131723623,-2,1,-3,5,5,2,1,-1
1511885131723623,0,-3,1,-1,-1,2,-3,0
1511885131724625,-1,-1,1,0,5,-1,2,-2
1511885131724625,-1,1,-5,-4,-5,-2,-1,0
1511885131737661,0,-2,-2,4,-1,1,1,0
1511885131737661,-2,-1,2,-7,-3,-2,-1,-2
1511885131745681,-1,-1,-3,-8,-5,-1,-2,2
1511885131745681,1,-4,1,11,9,0,-2,1
1511885131760723,1,1,0,-2,0,-2,-1,-1
1511885131760723,-2,-1,5,-3,-2,0,2,-1
1511885131767740,0,-4,2,-8,-7,-3,1,-1
1511885131767740,-3,-1,6,2,2,-2,-1,0
1511885131783783,-1,-1,-8,-2,-3,1,-1,1
1511885131783783,-2,-3,-12,7,2,2,0,0
1511885131784805,1,4,4,-4,-3,-2,-3,-1
1511885131784805,-2,-1,3,4,-1,0,2,-1
1511885131797823,0,-2,2,-2,2,-3,-1,0
1511885131797823,-1,-1,1,0,-3,-2,-2,0
1511885131805841,0,0,-7,1,6,3,4,-1
1511885131805841,0,4,1,-1,-3,-1,-3,-1
1511885131820885,-3,1,4,0,0,-3,0,0
1511885131820885,0,4,-2,1,-2,2,-1,0
1511885131827934,-1,-2,-2,-4,-1,0,-4,-1
1511885131827934,2,1,3,-5,-2,-1,3,0
1511885131843946,1,-2,-5,-5,-5,1,1,-1
1511885131843946,0,0,-1,-2,1,-3,0,-1
1511885131844945,0,-1,0,6,-4,0,2,1
1511885131844945,-1,1,-3,4,2,1,-3,-1
1511885131858023,0,0,-2,1,0,-2,-2,-1
1511885131858023,-2,-3,2,-5,5,-2,-2,-3
1511885131866003,1,0,-2,-5,-18,-7,-3,0
1511885131866003,-1,-2,-3,-3,-3,-1,-1,1
1511885131880039,0,-3,-5,5,0,-2,0,-1
1511885131880039,-1,3,5,-8,1,4,0,1
1511885131888060,3,0,1,10,7,-2,-1,2
1511885131888060,-1,-3,-4,-2,-5,-2,-2,-2
1511885131903366,-1,0,2,-2,-1,3,-2,-3
1511885131903366,-1,-1,-4,-3,-5,-4,-3,0
1511885131904244,-2,-3,1,-4,0,3,0,-4
1511885131904244,0,0,-1,18,19,3,3,2
1511885131919283,-1,0,1,-1,-6,-5,1,-1
1511885131919283,-1,1,-5,4,-3,1,-1,-1
1511885131925633,-1,-1,4,-14,-3,-1,1,-1
1511885131925633,1,0,-5,-3,1,2,0,1
1511885131940606,-4,2,-1,2,0,5,-2,-1
1511885131940606,2,-1,-1,3,-2,-2,1,0
1511885131948557,-1,-1,-4,-19,-6,2,2,-1
1511885131948557,-3,-1,4,19,1,0,-3,0
1511885131963542,2,2,0,-9,7,-4,0,1
1511885131963542,1,1,2,-4,-10,-3,-2,-2
1511885131964542,-2,1,-1,5,7,-1,0,0
1511885131964542,0,1,3,-8,3,1,-3,-5
1511885131979581,-3,-1,-6,-5,-8,-2,-3,1
1511885131979581,-2,-2,-1,-1,3,1,-1,2
1511885131985601,-1,-4,-3,4,1,-2,0,1
1511885131985601,-2,1,7,-3,-4,-5,2,1
1511885132000642,2,-1,-11,3,3,0,0,0
1511885132000642,-3,-2,-2,-1,-3,-1,6,-2
1511885132007656,-3,0,7,10,9,0,-3,-2
1511885132007656,0,-1,-8,14,-4,-2,0,0
1511885132023840,-1,1,6,-15,-1,-2,1,0
1511885132023840,0,-3,1,19,17,5,-1,-1
1511885132024847,-1,0,-4,0,-13,-6,0,1
1511885132024847,-3,0,-6,-12,0,0,-1,-1
1511885132039883,1,-2,3,4,-2,-1,-1,0
1511885132039883,-1,-1,-4,-14,-3,-1,-2,-2
1511885132045900,-1,0,-1,-1,-4,0,1,-2
1511885132045900,2,-2,-1,-6,-1,-3,-3,0
1511885132060940,-4,-2,-3,4,-7,0,-3,-2
1511885132060940,1,5,2,6,0,1,0,1
1511885132067986,0,-2,-4,6,2,-5,3,1
1511885132067986,-1,-2,-4,-27,-11,-2,-1,-1
1511885132083142,-3,-3,2,16,-2,-2,-2,-1
1511885132083142,2,0,-2,-19,-11,-6,-4,0
1511885132090165,2,-1,-2,13,-3,0,0,0
1511885132090165,2,0,-2,-2,-6,0,0,1
1511885132099197,-1,0,-4,-5,10,0,1,-1
1511885132099197,1,1,9,6,6,-2,-1,0
1511885132105204,-1,0,-5,-9,-4,1,0,-4
1511885132105204,-1,-3,0,-6,-2,2,-2,-1
1511885132120266,0,0,4,8,9,-3,-3,0
1511885132120266,-1,-2,-4,8,1,2,2,0
1511885132128376,-3,1,1,-5,6,3,-1,0
1511885132128376,1,-1,-4,-3,-4,-3,-2,-2
1511885132143327,1,-2,2,15,-2,3,-2,-2
1511885132143327,-3,-4,-4,4,4,0,0,1
1511885132150325,0,-1,2,-3,1,1,-3,0
1511885132150325,-2,3,-1,3,-1,-2,0,0
1511885132159345,1,0,-1,-9,-6,-3,2,0
1511885132159345,1,2,2,0,3,-3,1,-1
1511885132165361,-1,-1,-2,-1,-5,0,-3,-2
1511885132165361,-2,-1,5,5,0,1,1,1
1511885132180457,1,0,-2,-3,-3,3,0,1
1511885132180457,1,-1,5,3,0,-3,0,1
1511885132188436,2,-1,-5,-4,3,-2,-2,2
1511885132188436,-1,-3,0,-6,-1,0,-2,-3
1511885132203466,-1,3,-5,4,6,0,2,-2
1511885132203466,-4,3,0,4,-2,0,-2,-1
1511885132210484,1,0,4,-8,-4,-3,-2,-1
1511885132210484,-2,-4,-3,0,-10,-1,-1,-3
1511885132226654,2,1,5,2,1,-1,-3,0
1511885132226654,-4,-6,1,-3,1,3,-2,-3
1511885132226654,-2,-1,-4,-4,-2,-2,0,0
1511885132226654,2,0,4,38,-5,-2,-2,1
1511885132240699,0,2,1,-27,-5,-3,-1,-2
1511885132240699,0,0,1,2,-1,-3,0,-1
1511885132247711,0,-4,1,0,-1,3,0,0
1511885132247711,0,3,-4,-16,4,1,1,0
1511885132262791,-4,-2,-1,12,-1,1,-4,-1
1511885132262791,0,2,-6,4,-5,-3,-1,0
1511885132270770,-1,-2,2,10,1,-1,0,-1
1511885132270770,1,1,-7,-4,5,-3,-3,-2
1511885132285851,0,-3,-1,-10,0,2,-1,-3
1511885132285851,-3,-1,-12,-10,-3,3,0,-2
1511885132286813,1,0,0,-5,3,-2,0,-2
1511885132286813,-3,-3,3,24,3,2,1,0
1511885132300852,-2,0,-7,-1,-3,-1,-2,2
1511885132300852,-2,-4,5,22,0,2,-3,0
1511885132307870,-2,-1,2,-28,-1,1,-2,-2
1511885132307870,-2,1,-7,-10,1,0,-1,-1
1511885132323019,-1,-1,3,-3,-1,-1,-1,0
1511885132323019,1,2,-1,31,-3,-6,0,0
1511885132331053,-3,0,-4,-9,1,3,2,1
1511885132331053,0,0,4,-5,-3,-3,-1,-2
1511885132346204,-1,0,-1,-1,1,1,-2,0
1511885132346204,-1,2,1,-18,-3,1,-2,-1
1511885132347097,0,-5,-3,19,1,0,-2,-3
1511885132347097,-3,1,1,-34,1,1,1,-1
1511885132360116,1,1,-2,17,-4,-2,0,0
1511885132360116,-1,-1,-2,1,0,0,1,1
1511885132368309,-1,-1,0,-3,-2,-1,0,0
1511885132368309,2,-3,-8,4,0,2,-1,0
1511885132383353,-5,-6,3,-9,0,-1,0,0
1511885132383353,1,-2,-14,-5,3,-1,-2,2
1511885132390370,1,1,17,1,-6,-4,-1,1
1511885132390370,-1,-4,-8,-10,0,-1,-1,1
1511885132406413,-2,0,1,4,-3,-2,-1,-2
1511885132406413,1,-2,7,8,-1,-3,-1,-1
1511885132407510,0,-3,-8,13,-1,2,-1,0
1511885132407510,-3,4,2,4,0,-3,-1,-1
1511885132420450,4,0,-1,-11,1,-3,-2,0
1511885132420450,-3,2,1,-19,1,0,-1,0
1511885132428471,0,2,-7,-8,-1,0,1,-1
1511885132428471,-1,-2,6,0,0,1,0,0
1511885132442667,-3,-2,-5,10,1,1,2,-1
1511885132442667,-1,2,5,-17,3,4,-2,-3
1511885132450689,2,-1,-4,5,-1,-1,0,0
1511885132450689,0,1,-1,8,0,0,-2,1
1511885132465684,3,-7,-8,-7,-2,-2,0,-2
1511885132465684,-2,-2,2,-3,-2,-1,1,0
1511885132466687,0,2,-5,6,1,-2,-1,1
1511885132466687,4,3,1,3,1,3,-3,1
1511885132480725,1,-4,7,1,1,0,-5,-2
1511885132480725,-4,-5,-8,-9,-2,-1,2,0
1511885132487777,2,5,3,0,-1,0,-1,-2
1511885132487777,5,4,1,6,-1,-1,0,2
1511885132502821,-1,4,-1,-9,-1,3,-2,0
1511885132502821,3,-2,4,-3,-5,0,-3,0
1511885132510848,-1,-2,-1,0,-2,0,-3,-2
1511885132510848,-2,0,0,0,-2,2,8,4
1511885132526005,-1,-1,1,2,2,2,3,-2
1511885132526005,1,4,5,-1,-3,-2,-2,-5
1511885132526881,-1,0,-3,-2,0,3,0,-1
1511885132526881,2,0,-2,-1,-2,-3,-3,-5
1511885132540923,-11,-3,-1,4,-3,3,23,2
1511885132540923,-4,-6,-2,-3,1,0,-5,2
1511885132548062,-3,0,1,0,0,-6,-2,2
1511885132548062,1,-2,-10,-3,-5,-7,-3,-3
1511885132563286,-2,2,0,-1,-5,-1,-3,1
1511885132563286,-3,0,-5,-3,3,-1,-1,-3
1511885132570126,-3,-3,4,1,0,1,2,1
1511885132570126,-6,-5,-2,-2,0,3,-30,-2
1511885132586166,8,2,1,0,-1,-5,-5,1
1511885132586166,0,4,-1,-3,-3,-1,-1,1
1511885132587168,0,-2,-3,1,0,-2,0,2
1511885132587168,-2,-3,1,4,2,1,-9,1
1511885132600228,2,3,-1,1,-1,2,1,-2
1511885132600228,1,2,0,-6,-2,1,5,0
1511885132608332,1,2,0,0,-6,-1,-4,-1
1511885132608332,-1,-10,-2,-5,-7,-6,-11,-1
1511885132623444,-2,1,-1,14,17,6,-7,1
1511885132623444,-2,-7,-4,-4,4,3,3,-3
1511885132630435,-4,3,10,-20,-10,3,-1,-4
1511885132630435,-6,-5,-11,2,3,-2,8,-2
1511885132646651,-3,0,4,30,6,-4,0,0
1511885132646651,0,-1,4,-4,-7,0,-7,-3
1511885132646651,-2,-2,-6,-5,-4,-2,-5,-1
1511885132646651,-2,-1,8,-3,17,4,12,0
1511885132660658,0,-1,3,-21,-3,-2,-2,-5
1511885132660658,-2,0,-5,45,-3,-4,4,0
1511885132667797,0,-2,4,-7,1,-1,-2,2
1511885132667797,1,4,21,-4,-8,-1,10,-1
1511885132682715,0,-10,-34,-6,4,-4,-1,1
1511885132682715,-1,3,16,1,25,7,-1,0
1511885132690737,1,-2,-12,2,-8,-3,-3,-2
1511885132690737,-2,0,0,-7,-6,2,12,1
1511885132706782,-2,-1,5,-16,-1,1,-9,-1
1511885132706782,2,-1,4,3,-5,-2,-1,-2
1511885132706782,-2,-1,-6,11,5,-2,6,2
1511885132706782,-2,-2,-16,-2,-9,-3,1,-3
1511885132720817,-2,4,19,-16,-10,-3,0,-2
1511885132720817,1,2,-27,-17,-4,-3,0,-2
1511885132727832,-3,-3,20,12,4,2,-6,-2
1511885132727832,4,0,-11,-12,-7,-4,1,1
1511885132742999,2,0,0,21,0,1,3,1
1511885132742999,-1,-4,-16,-6,-4,-2,-1,-1
1511885132751027,1,1,2,3,13,4,4,-2
1511885132751027,0,0,3,34,2,-3,-1,-1
1511885132766103,0,-2,2,-15,-4,0,0,0
1511885132766103,-1,2,5,-5,7,1,2,1
1511885132767073,-2,0,-11,-12,-2,2,3,-1
1511885132767073,-6,-1,-2,-2,26,6,-4,-2
1511885132780100,5,2,0,15,-8,-3,-2,1
1511885132780100,1,-1,1,-5,-10,-4,-4,2
1511885132788122,-2,-4,-2,-12,1,-6,-23,-3
1511885132788122,4,1,3,2,0,-1,12,2
1511885132803184,-3,0,4,-8,-6,-1,-6,-2
1511885132803184,3,0,-9,-4,2,-2,-2,1
1511885132810177,-5,-3,13,13,-2,1,-3,-3
1511885132810177,2,1,-19,-10,-4,-5,-4,-3
1511885132826479,0,-3,2,-4,3,-2,0,-1
1511885132826479,-2,0,4,-6,-2,-1,-6,1
1511885132827353,2,1,-5,26,-1,-2,6,1
1511885132827353,0,1,21,-2,-2,-1,-4,1
1511885132840654,-4,5,-6,1,3,5,5,-1
1511885132840654,0,-6,5,3,2,1,-3,-1
1511885132847559,1,1,-12,-13,-2,-4,4,-2
1511885132847559,1,0,6,23,-4,-1,-2,-2
1511885132862603,-2,4,-1,-2,-4,2,-4,1
1511885132862603,-2,-2,13,-2,-1,2,3,-2
1511885132870663,-1,-7,-16,-7,-1,-1,3,1
1511885132870663,-2,5,-10,-5,-6,-2,1,-1
1511885132885707,-5,-8,19,-8,0,-4,-1,-4
1511885132885707,0,5,5,3,-2,1,1,1
1511885132886699,-3,0,1,-2,1,1,2,-1
1511885132886699,-2,-14,-12,-5,0,2,5,-1
1511885132900700,-4,-3,-25,9,1,-1,-12,-1
1511885132900700,3,-3,26,-9,-3,-4,-5,0
1511885132907986,0,0,-1,2,0,0,0,-2
1511885132907986,-1,6,13,-1,-2,-2,-1,0
1511885132937941,-1,-2,-5,-5,1,-1,1,-4
1511885132937941,-5,0,-9,3,-3,-3,4,0
1511885132946962,-1,0,-4,1,1,3,1,2
1511885132946962,5,0,3,-3,-1,0,-7,-3
1511885132969024,4,-1,-2,-2,-3,-3,3,2
1511885132969024,-1,0,-16,-2,-2,-1,-34,-1
1511885132971026,3,4,4,0,-3,-6,5,0
1511885132971026,-2,4,6,-7,-3,1,-1,-1
1511885132977219,0,3,-8,4,1,-2,1,1
1511885132977219,0,-2,32,4,0,1,1,-1
1511885132978220,3,-2,-17,3,1,0,-3,-2
1511885132978220,1,-1,1,-7,3,-1,1,-1
1511885132983424,-3,-5,6,-3,-3,0,-2,0
1511885132983424,6,7,7,0,-1,-1,4,-1
1511885132990547,-4,-5,5,3,-1,1,-3,-3
1511885132990547,-3,-3,-2,-3,0,-1,1,2
1511885133006401,1,-4,0,2,0,0,1,-1
1511885133006401,-3,1,-14,1,-1,1,7,0
1511885133007485,-2,-2,9,0,-2,-2,0,-1
1511885133007485,1,0,-1,-2,-2,1,-32,-1
1511885133020530,2,-4,-9,-1,0,0,-4,1
1511885133020530,-3,-5,-2,0,-3,1,1,-2
1511885133028483,3,7,1,-1,0,2,13,0
1511885133028483,-5,0,12,2,-3,3,1,-4
1511885133042503,-2,-2,9,-3,-1,-3,3,1
1511885133042503,0,-6,-25,-2,0,-1,4,-3
1511885133050625,-4,4,5,-3,0,-3,-11,-1
1511885133050625,8,4,-1,1,0,1,8,-1
1511885133065738,-12,9,15,-4,-1,-1,-1,-3
1511885133065738,-3,-10,-13,-2,-1,-3,39,1
1511885133073666,2,-7,3,-1,-1,-2,-6,-3
1511885133073666,1,1,4,-2,-1,-2,17,1
1511885133080682,2,2,-13,-4,-1,-4,0,0
1511885133080682,3,-5,3,1,1,-2,-10,1
1511885133087708,-2,5,1,0,-2,3,0,3
1511885133087708,-4,-9,-3,-1,-6,-7,16,2
1511885133102748,3,4,-6,-5,-2,2,1,-2
1511885133102748,-3,-1,5,2,1,1,43,3
1511885133110769,-8,-3,-4,-1,-1,0,-2,-7
1511885133110769,-4,-7,-9,-1,2,1,-14,-2
1511885133125862,10,0,6,2,-3,-3,10,-1
1511885133125862,-1,-1,-3,-3,-1,-5,-29,-3
1511885133133828,-7,-2,-3,0,4,12,63,2
1511885133133828,7,5,5,1,-3,6,-18,8
1511885133149054,-3,-9,-3,-2,0,-1,-26,-13
1511885133149054,-8,2,-2,1,0,-4,12,-1
1511885133149054,0,-2,-5,1,2,-3,-20,2
1511885133149054,9,2,-6,-2,2,-5,0,4
1511885133163282,-8,-1,2,1,0,-4,21,6
1511885133163282,7,3,-5,-3,0,0,-39,-2
1511885133170105,1,0,-1,-1,-2,0,8,1
1511885133170105,-6,-1,0,-2,-1,-6,-13,-5
1511885133185142,3,0,-1,-1,-2,6,-11,2
1511885133185142,0,-1,-1,2,0,0,4,1
1511885133193165,0,3,1,-6,-3,-7,11,1
1511885133193165,-1,-5,-5,1,4,7,27,-1
1511885133208207,0,0,0,-1,-4,-1,-4,-2
1511885133208207,-4,6,2,2,2,-3,-17,-2
1511885133209207,4,-3,-2,1,0,5,-5,-2
1511885133209207,-3,-1,-4,-11,-17,-4,-8,0
1511885133223441,-6,-1,2,16,21,4,-3,-2
1511885133223441,2,-3,0,1,-11,0,3,0
1511885133230450,2,1,3,-7,-10,-11,-22,2
1511885133230450,-5,-1,-1,2,9,1,-3,-2
1511885133245302,3,1,0,-14,-32,-6,-1,4
1511885133245302,1,-2,1,-5,10,4,4,-3
1511885133253323,2,1,4,6,4,-2,-9,0
1511885133253323,-4,-1,-13,-1,-4,1,-3,1
1511885133268363,0,-5,1,-6,-7,-1,5,-3
1511885133268363,-2,4,5,2,13,-1,-7,-4
1511885133269366,-1,-1,2,7,9,1,-9,-2
1511885133269366,1,-2,-2,-10,-2,1,1,-1
1511885133282402,2,0,12,-5,-6,-3,-3,1
1511885133282402,-5,-6,-6,3,-17,-2,-5,-2
1511885133290444,-1,2,4,-7,7,0,-11,0
1511885133290444,3,4,-5,10,10,-2,1,-5
1511885133305463,3,-3,-6,5,11,-5,3,0
1511885133305463,-4,-1,6,-23,-17,3,-2,-4
1511885133313484,4,-5,-4,9,11,3,0,1
1511885133313484,-3,7,11,20,-3,-2,-2,-1
1511885133328524,0,0,-9,-8,5,4,1,1
1511885133328524,-1,-2,3,17,-6,0,0,0
1511885133329527,-4,-3,-5,-13,-8,-1,-7,-1
1511885133329527,1,-4,7,4,17,1,0,0
1511885133342609,0,-4,-8,-4,-13,-1,-1,0
1511885133342609,1,5,4,11,18,0,2,0
1511885133350585,-1,-2,-2,-4,-14,-3,-1,0
1511885133350585,-3,-4,-13,-1,-8,4,-6,-2
1511885133365623,-4,-2,5,-36,5,0,-2,-3
1511885133365623,0,-4,-18,22,0,1,-1,1
1511885133373647,0,-4,4,-8,-16,-5,-2,-2
1511885133373647,1,-1,-1,-14,4,3,2,-2
1511885133388689,-5,1,0,30,6,5,-3,-2
1511885133388689,2,-1,-1,-7,-18,-6,-1,2
1511885133389690,-3,-3,-7,6,14,2,-4,-3
1511885133389690,1,-1,9,-5,-6,-3,0,0
1511885133402724,2,2,-3,-14,3,1,-1,-1
1511885133402724,0,2,5,9,-4,-2,0,2
1511885133410752,1,1,0,1,1,-4,-1,1
1511885133410752,-3,2,18,-7,-7,1,-2,-1
1511885133425961,-4,-12,-23,-23,2,1,0,-3
1511885133425961,-4,1,0,39,11,7,-1,-3
1511885133434057,-1,-6,3,-30,-5,-1,-2,0
1511885133434057,2,6,-6,13,-3,0,2,0
1511885133448204,-4,3,14,1,1,-1,-1,-2
1511885133448204,-2,-6,-14,-26,4,3,0,-1
1511885133449206,-2,-1,-3,14,2,0,-1,1
1511885133449206,-2,-3,-7,7,-2,-4,2,-1
1511885133463248,5,5,13,5,0,1,-3,0
1511885133463248,-4,-7,-15,-4,2,-3,-5,1
1511885133470266,1,8,-3,5,-10,-1,-1,-2
1511885133470266,-2,-3,0,-14,3,-1,-2,-2
1511885133485500,-4,-3,-6,24,2,-4,-1,1
1511885133485500,2,3,13,-27,-7,-1,0,0
1511885133493520,-1,-1,-3,4,4,-1,-4,-3
1511885133493520,-1,-4,-24,3,-3,0,0,1
1511885133508564,2,3,10,2,1,-1,1,1
1511885133508564,0,0,-2,-9,1,1,1,0
1511885133509563,-1,4,5,6,3,2,-3,-2
1511885133509563,-1,-11,-13,-3,-4,-6,-2,-1
1511885133522601,1,1,-2,21,0,-1,-1,1
1511885133522601,5,4,6,-5,-4,-4,1,-2
1511885133530811,1,0,0,-7,0,0,-2,1
1511885133530811,-3,-2,-1,-10,1,2,-1,-4
1511885133545972,3,3,1,-2,-7,-2,0,-1
1511885133545972,-2,-3,-1,2,3,1,0,-1
1511885133553897,2,0,-1,3,-1,-2,-7,-2
1511885133553897,-3,-1,4,-6,1,-1,4,0
1511885133568876,-2,-1,-5,4,-3,0,-1,-2
1511885133568876,2,-4,-1,-7,0,1,2,3
1511885133568876,-5,-1,-3,-3,0,0,1,0
1511885133568876,-1,1,6,11,-1,0,-2,3
1511885133582884,1,-1,5,-19,-6,0,-1,0
1511885133582884,-1,0,-3,9,0,-1,-2,-2
1511885133591035,-2,-5,6,-11,-4,-4,3,-1
1511885133591035,0,7,-21,22,4,-2,-2,-2
1511885133605987,1,-4,14,8,-1,-3,0,1
1511885133605987,0,3,4,-8,-6,-4,-1,-1
1511885133613265,2,2,-7,-1,2,3,-1,-2
1511885133613265,0,0,21,-7,-3,0,-2,-3
1511885133629209,-1,-3,-16,-1,1,-4,-2,2
1511885133629209,2,2,-14,-2,0,1,-2,0
1511885133629209,1,-2,5,5,-3,-4,2,1
1511885133629209,0,12,23,-12,-2,0,-12,0
1511885133642517,-3,-6,-4,7,0,3,4,-2
1511885133642517,-3,-6,-10,3,1,-2,-1,-3
1511885133650450,0,2,5,-1,0,0,2,1
1511885133650450,0,-6,-4,1,-4,-2,0,-2
1511885133665490,1,1,5,-9,-2,-1,1,-1
1511885133665490,-2,4,-7,7,3,4,0,-2
1511885133673520,-1,-7,-23,0,-1,-4,-1,0
1511885133673520,0,12,26,-7,2,1,-2,1
1511885133688675,3,-3,4,7,-2,-2,-1,0
1511885133688675,-2,-1,4,-18,1,1,0,0
1511885133689553,-1,4,13,16,1,-2,-3,-2
1511885133689553,0,-9,-31,-8,1,-1,2,0
1511885133702749,-2,4,3,0,-3,0,2,0
1511885133702749,2,3,12,4,3,-2,-4,1
1511885133710771,-1,-1,-9,-10,1,5,-1,-1
1511885133710771,-1,0,11,2,-3,0,2,-2
1511885133725862,2,5,-11,2,14,2,-4,-3
1511885133725862,-5,4,21,-1,-4,-2,-2,-2
1511885133733835,-1,-1,-34,4,0,-4,2,-1
1511885133733835,1,-9,9,8,12,3,1,-1
1511885133749100,-3,4,6,-10,-2,0,-1,2
1511885133749100,1,-7,-25,7,2,2,0,-2
1511885133749100,0,1,9,-5,-2,-2,-1,-2
1511885133749100,1,-4,-7,3,-10,-4,0,1
1511885133763299,-3,-4,-6,-17,5,1,-1,-2
1511885133763299,0,3,11,25,-3,-3,-1,1
1511885133770246,-2,-1,1,-21,3,2,1,0
1511885133770246,-2,-4,-12,30,-2,-3,0,-1
1511885133785233,3,2,12,14,1,1,-1,2
1511885133785233,-1,-1,-6,-27,-4,-2,0,0
1511885133793252,-3,-9,-3,-1,-2,-1,-1,1
1511885133793252,-2,1,-8,-26,-1,3,1,-2
1511885133808418,-3,-3,-3,23,-5,-3,-2,-1
1511885133808418,2,0,0,2,1,1,-2,1
1511885133809295,0,0,14,-2,-1,1,1,2
1511885133809295,3,5,-14,-21,-4,-2,-1,1
1511885133823417,-2,-8,1,-1,0,-3,-1,-1
1511885133823417,-5,-1,-19,-13,-2,-2,3,-1
1511885133830532,3,4,15,18,-4,0,-2,-1
1511885133830532,1,1,-2,-12,1,-5,-1,-1
1511885133845729,-1,3,-2,6,-7,-1,-1,2
1511885133845729,0,4,14,-1,0,-5,-5,1
1511885133853553,2,-2,-4,8,7,-1,-1,-1
1511885133853553,3,1,0,-5,-4,0,-2,1
1511885133868641,-1,-3,-3,-6,0,1,0,0
1511885133868641,-5,-1,6,-8,1,3,8,-2
1511885133869597,-1,-1,-11,-4,-7,-2,5,-2
1511885133869597,-5,-5,9,7,3,0,-2,0
1511885133882753,1,2,0,11,-4,-2,0,-1
1511885133882753,1,-1,-5,-10,-2,1,4,-1
1511885133890694,-1,3,5,10,0,2,-3,-2
1511885133890694,-1,-8,-10,-8,0,-3,3,1
1511885133905694,-2,2,-2,11,0,2,-2,-2
1511885133905694,3,-3,6,-22,-6,0,-8,-1
1511885133913953,3,4,-2,-6,-3,-2,-1,0
1511885133913953,-3,0,4,2,-4,-1,-6,-3
1511885133928905,-3,-5,-1,-27,1,-3,-4,-1
1511885133928905,-3,-2,9,2,1,2,0,0
1511885133929953,-1,-5,-33,34,2,-3,-2,0
1511885133929953,-2,3,0,-24,-9,2,3,-2
1511885133942959,-2,-6,19,-1,0,0,0,-2
1511885133942959,0,5,-20,5,-2,-3,1,-1
1511885133950928,1,-5,8,-10,1,-1,-3,3
1511885133950928,3,6,14,12,3,0,-2,0
1511885133965992,-2,-5,-16,-12,-6,0,3,-1
1511885133965992,0,0,4,-12,2,2,-1,0
1511885133973991,-2,-1,7,-2,2,5,-1,-2
1511885133973991,-3,-1,-5,11,-2,-4,0,1
1511885133988029,1,1,-13,-10,-3,1,0,-1
1511885133988029,-2,-7,9,37,0,-1,5,-2
1511885133996158,-2,7,0,-29,-3,-4,0,-2
1511885133996158,-1,-7,16,1,0,-1,-1,0
1511885134003068,3,-4,-28,12,0,-3,0,1
1511885134003068,-1,-1,-2,14,4,-2,-4,1
1511885134010083,-2,-3,-5,-4,-6,-1,0,1
1511885134010083,1,4,1,-18,0,-2,-2,0
1511885134025337,0,2,11,-2,4,0,2,1
1511885134025337,1,-4,-1,26,-5,-1,-2,-1
1511885134033145,-4,-5,4,-8,8,4,-3,-2
1511885134033145,0,1,-7,3,-4,0,2,-1
1511885134048361,-2,0,-4,-3,0,-1,-4,-1
1511885134048361,0,-2,0,-13,0,-3,1,-2
1511885134056307,2,-2,-9,-6,-5,-4,0,-2
1511885134056307,-2,-4,2,14,7,4,-2,-4
1511885134063403,-1,5,12,8,-4,1,-3,-1
1511885134063403,0,0,-12,-14,-1,1,4,-1
1511885134070439,-2,-4,-1,-13,0,-1,0,1
1511885134070439,0,4,-12,17,1,-1,-1,-1
1511885134085360,0,0,13,-7,-2,-3,-2,1
1511885134085360,0,0,-12,-4,2,-1,-1,-2
1511885134093381,0,2,8,-1,-4,-3,0,-1
1511885134093381,-3,-2,-6,10,-2,-2,1,0
1511885134108568,1,3,-4,8,3,1,2,-1
1511885134108568,-1,0,2,-17,2,2,-4,1
1511885134116444,-1,4,0,21,-2,-1,-1,1
1511885134116444,1,-3,3,24,-4,-3,0,1
1511885134131606,-4,0,-5,-18,-5,-2,-2,-2
1511885134131606,-1,-5,6,-1,-6,-2,3,0
1511885134131606,0,6,7,7,13,2,-1,-3
1511885134131606,-1,-3,9,5,-8,0,-1,0
1511885134145714,0,0,-7,29,-8,-1,-2,-2
1511885134145714,1,2,-5,-5,4,3,0,0
1511885134153771,0,3,3,-27,-8,-1,3,2
1511885134153771,1,-3,-4,-6,2,-2,0,-2
1511885134167805,0,-2,-1,0,4,-3,3,1
1511885134167805,-1,-1,4,-14,-1,1,-5,-2
1511885134175936,-2,-5,3,33,0,3,0,0
1511885134175936,-3,-1,-8,-35,2,1,-2,-1
1511885134191096,2,1,-6,-38,-4,-1,-2,-2
1511885134191096,-1,1,3,45,-3,-4,-2,-2
1511885134191977,-1,-1,-3,-11,-3,0,-2,0
1511885134191977,-1,-2,-6,-3,1,0,1,0
1511885134206009,-1,0,10,-4,2,1,-1,-1
1511885134206009,-2,-4,-7,-2,1,-1,1,0
1511885134214213,0,1,-1,-12,-3,1,1,-1
1511885134214213,-1,-5,3,3,1,-1,-1,-2
1511885134228263,-1,2,-10,-2,0,1,0,2
1511885134228263,-1,0,8,-9,1,3,0,-2
1511885134236089,0,-1,6,17,-6,-3,-1,-2
1511885134236089,0,-1,-8,-4,1,0,2,-1
1511885134251462,-2,-2,-1,1,3,1,-1,-1
1511885134251462,0,6,2,-4,-2,-4,-3,1
1511885134252296,-1,-4,-4,7,2,1,0,0
1511885134252296,-1,6,7,-18,-1,3,0,-1
1511885134265414,0,-4,1,24,2,0,1,1
1511885134265414,-1,-4,-4,2,1,0,-5,-1
1511885134273354,-1,-4,-2,-8,-1,-2,8,1
1511885134273354,-2,0,2,-4,3,1,-2,1
1511885134288395,1,-3,-3,16,-1,-2,-2,0
1511885134288395,0,2,9,-7,-2,-3,-1,-1
1511885134296608,-2,0,-8,-2,0,2,-4,-4
1511885134296608,-1,-3,-2,-8,0,-2,1,-1
1511885134311489,-2,-4,-1,3,2,-2,1,-2
1511885134311489,2,-2,-2,-9,1,1,0,1
1511885134311489,1,1,0,-22,-5,0,-1,-1
1511885134311489,0,1,-2,19,-1,1,0,-1
1511885134325493,-3,1,2,2,-2,1,0,-1
1511885134325493,0,0,-8,-15,-4,-2,1,0
1511885134333720,-3,-4,11,30,-2,-3,-4,-1
1511885134333720,2,-5,-13,-13,7,-1,2,-1
1511885134347874,-2,4,4,-12,-4,-1,-2,-2
1511885134347874,-1,-9,-18,5,7,-2,1,0
1511885134355778,-1,6,3,-10,-2,-2,-1,-1
1511885134355778,-3,-3,7,2,-7,1,-3,-1
1511885134370818,1,-2,-6,-2,1,-2,-1,-1
1511885134370818,0,1,0,3,-4,-3,-4,-1
1511885134371818,0,-1,0,-2,1,-2,-1,-1
1511885134371818,-1,0,2,20,-2,-4,-2,-2
1511885134385858,-2,0,0,-8,-2,2,3,0
1511885134385858,-2,0,5,-2,-2,3,-2,-2
1511885134393877,1,-6,0,-1,1,-2,-1,-3
1511885134393877,1,0,1,-16,-6,0,-2,0
1511885134408039,0,-3,-2,15,-5,-2,-3,-1
1511885134408039,-3,0,1,-6,4,-1,0,-2
1511885134415940,-2,-2,-11,1,-1,-2,1,1
1511885134415940,-4,-1,0,-8,3,1,1,-1
1511885134431093,-3,3,0,-1,-1,1,-1,-2
1511885134431093,1,-2,0,3,-1,1,12,-2
1511885134431983,1,-2,-4,-7,-5,1,-1,-2
1511885134431983,1,2,10,7,-2,-3,0,0
1511885134445013,2,0,-9,-19,3,1,3,2
1511885134445013,0,-1,11,21,-5,-2,-3,-2
1511885134454105,1,-2,-5,0,1,1,-1,0
1511885134454105,0,-2,-7,-6,-1,-3,1,-1
1511885134468077,-1,0,-1,3,3,1,-5,-3
1511885134468077,-1,-3,7,-13,-2,2,13,0
1511885134476105,0,0,-5,-1,-3,-3,-1,0
1511885134476105,-1,-3,-2,-7,0,3,-3,0
1511885134491329,1,-3,0,3,-2,-1,0,2
1511885134491329,-1,1,-7,0,-1,0,-5,0
1511885134492292,-2,1,3,-1,-1,1,-1,-1
1511885134492292,-1,7,-1,3,-5,0,-1,-1
1511885134505425,0,-4,4,-22,-5,0,-1,0
1511885134505425,-2,-2,1,24,-2,0,-4,0
1511885134513369,0,-4,-6,-26,1,-1,0,-1
1511885134513369,-1,1,2,-20,0,0,0,0
1511885134528438,-1,0,-1,34,2,1,0,-1
1511885134528438,0,-1,0,1,-4,-3,-7,0
1511885134536409,-1,0,6,1,-3,1,2,-1
1511885134536409,-2,-3,-9,1,-1,0,-1,-1
1511885134551449,1,2,0,-8,5,0,-1,-4
1511885134551449,-1,-5,-10,-25,-1,0,-1,2
1511885134552451,-1,-2,0,24,-7,2,6,0
1511885134552451,0,-1,-1,8,8,0,-2,-1
1511885134565484,0,4,-3,-4,-5,-2,-2,-2
1511885134565484,0,-2,-3,-7,4,-1,-2,1
1511885134573651,0,2,1,0,3,-1,-4,0
1511885134573651,-2,-3,3,15,-3,-2,0,-1
1511885134587707,1,1,1,-15,-2,0,0,2
1511885134587707,1,2,2,15,-4,1,-2,-2
1511885134595995,-3,0,3,-4,1,1,-9,-1
1511885134595995,-1,-2,-3,3,0,-2,-1,-2
1511885134611029,-1,-5,4,-9,0,-2,-1,0
1511885134611029,0,1,-9,-2,-1,2,-1,-1
1511885134611916,-1,-2,1,-15,1,-2,-8,-2
1511885134611916,2,-1,1,35,1,-1,-2,0
1511885134625216,0,3,-4,-17,-3,0,-1,0
1511885134625216,0,0,4,-4,0,-2,0,-3
1511885134633164,1,-1,5,6,-1,-2,0,-2
1511885134633164,1,0,-10,-18,-5,0,0,-1
1511885134648377,-5,-2,-4,10,-1,-2,1,-2
1511885134648377,1,0,1,0,-5,-6,-2,3
1511885134656320,0,2,0,2,6,2,-1,-1
1511885134656320,-2,0,3,-11,-6,-1,3,-2
1511885134671265,-1,0,3,1,1,-1,-1,1
1511885134671265,0,1,-1,5,1,-1,2,0
1511885134672268,-3,0,-2,-15,-3,1,1,0
1511885134672268,-1,-1,2,22,-1,-1,-1,-1
1511885134685426,2,-2,-5,0,-3,1,-5,1
1511885134685426,-1,2,3,-8,8,3,-3,-1
1511885134693448,-1,3,6,0,-3,-3,2,0
1511885134693448,0,-1,-6,1,3,-1,-1,-1
1511885134707489,-1,-2,2,3,2,0,0,2
1511885134707489,1,1,-5,4,-3,0,-1,-1
1511885134716533,0,-1,6,-5,-1,2,2,0
1511885134716533,-1,0,-3,-12,0,-2,-6,1
1511885134731549,-1,0,7,7,-2,-1,3,-2
1511885134731549,-2,-1,-5,-10,1,0,-1,0
1511885134731549,1,-2,-4,16,-2,-3,-1,0
1511885134731549,1,2,0,-15,-1,0,-2,1
1511885134745610,1,-6,4,2,-1,0,1,-3
1511885134745610,-2,1,2,0,-4,0,-1,1
1511885134753631,-3,-1,-4,2,1,-1,-2,0
1511885134753631,-4,0,1,-9,-2,-1,6,-3
1511885134767663,-1,-2,6,3,-3,-3,-2,1
1511885134767663,-1,3,-7,1,2,2,-2,-2
1511885134775693,0,-6,-4,3,-2,-4,2,-1
1511885134775693,-1,0,2,-1,0,0,-3,0
1511885134790734,-1,0,0,0,2,-3,5,-1
1511885134790734,0,-1,1,-31,-6,-1,-1,-1
1511885134791730,-1,-3,3,53,1,0,-5,2
1511885134791730,1,2,-10,-16,10,1,0,0
1511885134805769,-2,-4,-2,2,1,3,-3,-1
1511885134805769,-1,-4,2,0,-1,0,-1,-1
1511885134813791,0,3,-7,-14,-5,-2,-3,-1
1511885134813791,1,-4,-2,3,-3,-2,7,-2
1511885134827832,0,0,-5,-1,1,-1,-1,-2
1511885134827832,-1,0,1,3,0,1,-1,0
1511885134835844,-2,2,2,-11,2,1,2,-1
1511885134835844,0,-2,-5,8,-3,-1,-4,0
1511885134850893,1,0,-9,-7,2,0,2,1
1511885134850893,2,0,3,5,-3,-2,1,-1
1511885134851869,0,-1,-6,-4,1,1,-2,-1
1511885134851869,-1,0,4,2,1,0,-2,0
1511885134864904,-1,1,-1,-13,-3,0,0,-2
1511885134864904,-1,-1,2,26,3,1,-3,-4
1511885134873954,1,-1,-6,-15,0,-3,2,0
1511885134873954,0,-5,2,-5,-4,-1,-2,1
1511885134887991,-1,1,-4,-6,1,0,-7,-3
1511885134887991,-3,-3,20,4,1,0,1,0
1511885134895986,-1,-4,-18,-6,-1,-1,-3,-2
1511885134895986,-1,1,13,3,-4,2,-1,0
1511885134910023,-1,1,-6,3,2,-2,1,0
1511885134910023,-1,-6,3,-6,-1,-4,0,1
1511885134919047,1,-1,-1,1,-1,-1,-2,2
1511885134919047,-1,0,-1,-4,4,1,-1,-2
1511885134925090,-2,0,2,5,-3,-1,0,0
1511885134925090,-1,2,-6,-1,-2,-2,-1,-2
1511885134933106,0,-1,4,-2,-5,1,-1,0
1511885134933106,-1,-1,-3,-12,-2,1,-2,0
1511885134948151,0,-1,2,19,-3,-2,0,1
1511885134948151,1,0,-10,-3,3,2,1,-1
1511885134956174,-1,2,5,-8,-6,-3,-2,-1
1511885134956174,0,-3,-2,3,3,-2,10,-2
1511885134970207,0,2,11,3,-4,3,-4,-1
1511885134970207,-1,-4,-21,-7,-3,-3,1,-1
1511885134978228,1,1,7,-1,2,0,1,1
1511885134978228,0,0,6,5,-3,2,-5,-1
1511885134985247,-1,-1,-2,-5,0,0,1,0
1511885134985247,-1,1,-2,-6,-2,-1,0,0
1511885134993244,-4,1,5,15,7,1,-1,-2
1511885134993244,1,-6,-7,-6,-3,1,-1,0
1511885135008311,-2,4,1,-4,3,2,-2,0
1511885135008311,3,4,1,-1,-3,1,-2,-3
1511885135016305,-1,0,0,-12,0,-3,2,1
1511885135016305,-1,2,3,2,-3,-2,0,-1
1511885135030343,0,-1,-8,0,-2,-3,1,-4
1511885135030343,0,-1,-1,-4,2,0,0,1
1511885135038391,0,2,-6,6,0,2,-1,1
1511885135038391,1,0,-1,0,-6,-4,-2,2
1511885135054408,1,-3,-5,-6,3,3,1,-1
1511885135054408,-2,-2,2,6,-1,-3,-3,0
1511885135055410,0,-2,6,-3,-3,0,-1,-2
1511885135055410,1,2,-3,11,-4,-1,-2,0
1511885135067462,0,-1,-1,-6,-1,0,-3,2
1511885135067462,-1,0,8,4,0,-2,-1,0
1511885135076466,2,-2,-3,-4,-3,-1,0,-1
1511885135076466,-2,-4,-3,-4,0,0,0,-2
1511885135090504,1,-3,0,1,2,-2,1,-1
1511885135090504,0,0,-6,2,1,0,-3,1
1511885135098524,1,0,-1,8,0,1,1,-2
1511885135098524,-2,1,5,-8,1,2,-10,-1
1511885135114567,-1,-4,-2,0,-3,-1,-2,0
1511885135114567,-2,-1,-2,-10,-1,-2,-1,0
1511885135114567,-2,-3,-3,-14,0,-1,1,-3
1511885135114567,1,1,6,38,2,-1,0,0
1511885135127602,-1,-4,-5,-9,1,-2,-1,-2
1511885135127602,0,2,7,4,-6,0,0,1
1511885135135624,0,-4,-8,-14,-2,1,-3,1
1511885135135624,-2,-1,6,-13,0,0,1,-4
1511885135150668,-1,-3,0,8,-1,-2,3,0
1511885135150668,0,-3,-5,-1,0,1,1,0
1511885135158716,-1,0,-7,2,-2,1,0,-1
1511885135158716,-1,1,1,1,-1,0,-3,1
1511885135174728,-2,-1,-1,-13,-2,-2,-2,-1
1511885135174728,-1,-2,-4,-2,2,-1,-3,-2
1511885135174728,-1,3,12,6,-3,-1,8,1
1511885135174728,0,-1,-14,1,2,0,2,2
1511885135187769,0,-3,0,0,2,-2,-2,0
1511885135187769,1,-1,-4,-10,-4,0,1,-1
1511885135195801,-1,0,-1,6,7,-1,0,-2
1511885135195801,1,-4,7,2,-4,-2,-2,1
1511885135210823,0,2,-6,-7,-3,2,2,1
1511885135210823,-1,-3,2,-9,-5,-1,-1,-3
1511885135218844,1,-1,0,7,-1,-2,-3,1
1511885135218844,-2,0,2,-6,2,0,2,0
1511885135233884,-2,-2,-5,-6,-1,0,-3,-2
1511885135233884,-1,2,3,27,-4,-2,-2,-1
1511885135234887,1,0,-1,-6,0,-1,2,-1
1511885135234887,0,1,-9,-6,1,1,-2,-2
1511885135247922,1,-1,10,3,-2,-2,1,0
1511885135247922,0,-5,-14,5,-1,0,0,-2
1511885135255943,-2,-2,0,-5,6,0,-1,-1
1511885135255943,-2,-2,1,-1,-4,2,-3,0
1511885135269981,-4,4,3,7,-1,2,-1,-1
1511885135269981,2,0,3,-7,2,2,-1,0
1511885135279004,-1,-6,-5,3,-4,2,-3,-1
1511885135279004,-1,-1,-2,-16,7,0,-9,-3
1511885135294050,-1,0,7,25,-1,-2,5,0
1511885135294050,-1,-3,-8,9,1,0,-1,0
1511885135295048,-1,1,5,-1,-2,-3,-2,-2
1511885135295048,0,-2,1,4,-1,2,2,-2
1511885135308345,-2,1,-2,-13,-1,2,-5,1
1511885135308345,0,-2,2,-10,-3,-3,-3,-2
1511885135316442,-2,0,-1,14,3,1,-1,-1
1511885135316442,1,-3,-6,-12,-1,-4,-4,-1
1511885135330509,3,-3,-4,-3,-6,-2,0,0
1511885135330509,-1,-1,0,7,1,-1,2,0
1511885135338530,3,-1,0,-29,-3,-2,-1,0
1511885135338530,-1,2,5,30,-4,-1,2,-2
1511885135354524,-1,-2,9,-7,6,4,-3,-1
1511885135354524,-1,2,-6,12,4,0,1,0
1511885135355521,0,-2,2,-4,-1,-1,-1,0
1511885135355521,-1,0,-10,-4,-2,0,2,-1
1511885135367555,1,2,0,-8,-3,-4,1,-2
1511885135367555,-2,-1,4,-6,0,1,-1,-1
1511885135376577,0,-2,2,6,1,-1,-8,-3
1511885135376577,0,2,0,-10,3,-1,4,0
1511885135390627,0,-2,-5,7,-4,1,-2,1
1511885135390627,-1,-4,-3,-4,6,-1,-2,1
1511885135398638,-2,6,-2,12,-6,-1,0,-2
1511885135398638,0,-4,-12,-8,0,1,-2,1
1511885135413872,1,-2,9,-2,-3,0,0,-2
1511885135413872,0,2,-16,-24,-1,-3,0,-1
1511885135414850,-2,-1,14,13,-3,-4,0,1
1511885135414850,-2,2,6,-6,-2,-2,0,-1
1511885135427974,1,-1,-9,-1,7,2,0,-4
1511885135427974,-4,2,4,-1,-1,1,-1,-2
1511885135435973,1,-3,2,-6,3,1,1,-1
1511885135435973,-2,4,-3,1,-1,0,0,-2
1511885135450943,-1,2,3,5,-2,-2,-7,1
1511885135450943,-2,-3,6,-2,-1,-2,-1,2
1511885135458931,-1,0,-9,-5,-2,-1,0,-1
1511885135458931,-1,-1,4,4,-4,-2,-2,1
1511885135472971,-4,2,-7,-2,-4,-2,0,-1
1511885135472971,0,-3,-3,7,4,0,-1,-2
1511885135481992,2,2,2,-7,-4,-2,2,-1
1511885135481992,-1,-6,-7,2,-7,-2,-1,-1
1511885135488008,2,3,0,-1,2,0,3,0
1511885135488008,-1,0,4,-2,-6,4,0,-1
1511885135497031,-4,2,-1,-2,6,0,0,-1
1511885135497031,0,-2,3,-24,-3,-1,1,0
1511885135510221,-1,1,0,0,-5,-1,-2,-1
1511885135510221,1,0,6,13,5,1,-1,0
1511885135519235,1,-3,-7,11,-4,0,-1,1
1511885135519235,-2,1,-2,1,1,1,2,2
1511885135533273,-2,-3,-4,-5,2,0,-2,-2
1511885135533273,1,1,1,-17,0,1,-1,-3
1511885135542298,-1,-3,-6,3,2,-3,-2,0
1511885135542298,0,-1,0,6,-5,-3,0,-1
1511885135548484,-1,-1,-6,-1,-2,-2,3,-1
1511885135548484,1,-1,0,-1,-7,-3,0,0
1511885135557340,-1,6,2,-17,1,2,-1,-2
1511885135557340,-1,-1,-4,4,0,-3,-1,-1
1511885135570559,2,0,-1,24,1,0,-5,0
1511885135570559,-1,1,4,6,2,-1,-1,-1
1511885135579396,0,-4,-8,10,-1,-2,0,0
1511885135579396,-1,-3,2,-20,5,0,-2,0
1511885135592547,-1,1,3,-10,0,-2,-1,-1
1511885135592547,1,3,-2,3,-3,-3,0,0
1511885135601455,0,-6,-3,3,-3,-1,0,-1
1511885135601455,0,3,1,8,0,-2,1,-2
1511885135608475,1,-8,-1,-14,5,4,1,-2
1511885135608475,-1,4,5,11,-3,0,1,-1
1511885135616496,0,-1,-6,-7,0,-1,-1,1
1511885135616496,3,2,-1,10,-2,-1,0,0
1511885135630537,-3,-2,-3,-12,-1,-1,-2,0
1511885135630537,-1,0,7,-5,2,-1,-1,0
1511885135639556,1,0,6,-3,-6,1,-1,1
1511885135639556,0,-2,-1,7,2,1,-4,-2
1511885135652593,0,-2,-1,-3,-1,-3,0,0
1511885135652593,0,2,0,2,-2,0,-5,0
1511885135661771,-4,-3,-2,3,0,1,4,-3
1511885135661771,-2,2,0,-12,1,1,-2,-2
1511885135667633,-4,-1,-1,-1,-1,2,-2,-2
1511885135667633,0,-8,-7,-14,-2,2,-2,-1
1511885135676656,1,-1,3,12,-3,0,-2,-2
1511885135676656,0,-1,0,1,-2,-2,-1,-1
1511885135690737,-1,2,11,6,0,-1,2,-2
1511885135690737,2,-2,-19,-11,-4,-2,0,-1
1511885135699716,0,4,4,-8,2,0,1,2
1511885135699716,-5,-1,7,5,0,1,2,-2
1511885135712750,6,-2,-7,6,-1,2,-2,2
1511885135712750,-1,1,10,0,1,-1,0,2
1511885135721780,-2,-1,-7,-5,1,0,-4,-2
1511885135721780,-1,-5,3,8,3,2,1,-1
1511885135727932,-3,1,0,-3,-3,-1,1,-1
1511885135727932,-2,-1,1,-3,-1,-5,-2,1
1511885135736912,4,1,-5,-2,2,-1,4,0
1511885135736912,1,-2,0,-3,-2,-2,0,3
1511885135749945,-3,-2,-2,6,0,-1,0,-5
1511885135749945,2,0,0,3,-2,-1,0,-1
1511885135759164,-3,-3,-2,-2,-1,0,-2,1
1511885135759164,1,-1,-6,-5,0,-1,-1,-1
1511885135773128,1,-2,-2,-1,-1,-2,1,0
1511885135773128,-3,1,-3,7,0,1,-2,-1
1511885135782110,0,0,1,-20,-4,3,-3,-4
1511885135782110,4,1,0,12,1,-3,1,2
1511885135788167,-3,0,-4,1,-1,-3,-2,3
1511885135788167,-1,-2,3,-5,-2,-1,2,-2
1511885135797263,-1,0,-5,4,-2,-2,-2,-1
1511885135797263,-2,1,-2,-3,-3,0,-1,-3
1511885135810306,-1,-4,0,0,-2,2,0,-2
1511885135810306,-1,7,2,3,0,-2,1,-1
1511885135819296,1,-1,5,-2,0,-1,2,0
1511885135819296,-1,-3,4,0,-1,1,-3,-3
1511885135833334,0,3,-1,1,3,-1,-2,2
1511885135833334,0,-2,3,-3,3,-1,1,2
1511885135842495,1,-1,0,0,-1,2,-2,-3
1511885135842495,-2,4,9,-2,-1,0,-1,0
1511885135847595,0,3,-8,1,-1,0,10,-1
1511885135847595,0,-12,-7,-1,0,-5,-2,0
1511885135856829,-2,0,-2,0,0,-1,-2,3
1511885135856829,4,2,-6,-4,-1,-6,-2,-3
1511885135870952,1,-1,6,-1,-1,0,-1,1
1511885135870952,0,2,-5,0,-2,2,0,-5
1511885135879152,12,3,4,3,2,2,2,0
1511885135879152,-7,-7,-2,-3,-3,2,6,2
1511885135893221,-6,0,-4,-3,-1,1,-5,-3
1511885135893221,-6,1,6,-3,-3,-2,8,-5
1511885135902248,6,3,5,1,0,-3,-3,5
1511885135902248,1,0,-14,-1,1,0,-1,-4
1511885135908263,0,-5,7,1,0,-6,-12,1
1511885135908263,0,-2,-2,3,-2,4,24,2
1511885135917288,-3,-2,0,-1,-1,-2,-4,0
1511885135917288,-1,-2,-3,0,2,0,-5,1
1511885135930501,-6,2,0,-1,-4,-1,3,-2
1511885135930501,5,-1,0,-3,-2,1,-14,-1
1511885135939343,-2,-1,-2,-1,0,-4,1,-5
1511885135939343,0,-1,2,0,-2,-4,2,1
1511885135953384,3,-3,0,1,-3,0,1,-3
1511885135953384,-1,2,-1,-1,-1,-2,-6,1
1511885135961603,-5,-2,-2,2,-1,-2,7,-2
1511885135961603,0,-2,-1,0,-1,-1,-6,-1
1511885135968420,3,-4,-5,-1,2,3,0,-1
1511885135968420,-2,-2,1,-7,-6,-2,-4,-2
1511885135976442,-5,0,-1,11,16,2,-9,-2
1511885135976442,2,0,1,-5,-4,3,4,1
1511885135990660,2,0,-3,0,-4,-3,-1,1
1511885135990660,-2,-2,-1,-6,2,-2,-30,-3
1511885135999503,-2,-1,1,1,7,1,-5,0
1511885135999503,-5,2,-3,10,10,2,2,0
1511885136013589,5,-5,-3,-18,-17,-4,1,0
1511885136013589,-2,2,4,9,-7,2,-3,0
1511885136021581,2,2,-26,4,5,-4,3,-1
1511885136021581,-1,-1,-3,-9,-7,-3,-3,-2
1511885136036608,-4,-3,15,21,4,0,-4,-1
1511885136036608,-2,-3,0,-2,-2,0,6,-1
1511885136038608,-3,-4,-5,-15,-8,-1,0,-1
1511885136038608,-2,1,10,2,-2,0,4,1
1511885136050643,-2,1,-15,-17,-3,-2,0,-1
1511885136050643,-1,-1,-4,-8,-3,-2,3,-1
1511885136059663,-1,-4,11,12,2,4,2,1
1511885136059663,1,-1,-11,-2,-5,0,-1,-1
1511885136072744,-2,10,58,4,-2,4,-1,-2
1511885136072744,-3,-17,-97,0,9,-5,5,3
1511885136081746,-2,-5,14,-15,-9,-1,-4,-1
1511885136081746,2,10,-29,-8,-1,0,-2,0
1511885136096804,0,-21,15,12,2,-2,-4,-1
1511885136096804,-2,15,25,13,2,1,6,-1
1511885136098771,5,7,5,2,-8,1,0,-2
1511885136098771,-3,-6,0,1,2,-5,-3,-1
1511885136110928,0,8,-19,-9,8,2,3,-1
1511885136110928,0,0,17,-5,-3,0,-3,1
1511885136118955,-3,-5,10,-6,1,-4,0,-1
1511885136118955,-2,5,11,9,3,3,0,0
1511885136133002,2,-2,-22,-8,-1,-3,0,-2
1511885136133002,1,-5,15,-4,-4,2,-2,-1
1511885136142013,-4,2,5,11,4,5,1,-4
1511885136142013,1,-2,-2,-15,-5,-2,0,-1
1511885136157161,-2,1,-14,4,2,-2,0,2
1511885136157161,3,-11,8,0,2,1,2,0
1511885136158078,1,2,-14,-8,-3,-3,-1,1
1511885136158078,-1,4,1,5,-4,-1,-3,-1
1511885136170091,0,0,4,17,0,0,-1,-1
1511885136170091,2,13,19,-9,1,-3,2,0
1511885136179262,-4,-7,-2,-2,-1,-5,-1,1
1511885136179262,-3,-1,15,-3,-3,0,-2,-2
1511885136193215,-2,4,-22,1,1,1,10,-1
1511885136193215,1,-2,4,0,0,0,1,-2
1511885136202173,-5,1,7,-5,-5,-3,-4,-3
1511885136202173,4,-11,-3,-4,1,2,2,2
1511885136216436,-2,11,10,0,0,2,-3,0
1511885136216436,1,-16,-7,-3,-3,-1,-3,1
1511885136223405,-2,-4,-21,-2,0,-5,2,0
1511885136223405,-1,-3,11,3,-4,1,-1,0
1511885136230373,-4,-8,-12,-5,1,-5,-2,0
1511885136230373,0,4,1,-1,0,-2,1,0
1511885136239394,3,5,-2,-1,-2,0,-1,0
1511885136239394,-2,-2,7,4,0,-2,-1,-2
1511885136252430,-1,1,6,-3,-1,-3,-3,-1
1511885136252430,-3,-1,-1,1,1,4,-2,-1
1511885136261665,-3,-9,2,2,-2,0,0,0
1511885136261665,-1,11,-13,1,2,3,1,-2
1511885136276526,0,-6,18,-3,1,-4,0,3
1511885136276526,2,4,2,4,2,2,-2,2
1511885136278504,1,12,46,-2,-6,-2,-5,-3
1511885136278504,-3,-3,10,1,-2,0,2,0
1511885136290572,-1,1,7,-3,-2,3,-4,-1
1511885136290572,-4,3,-1,2,0,0,0,-3
1511885136299555,0,-7,-20,-1,0,-1,1,-2
1511885136299555,2,1,10,1,0,-1,0,-1
1511885136312592,-1,-16,-29,-2,0,-2,-1,0
1511885136312592,-3,0,15,-1,2,-5,0,-2
1511885136321630,-1,5,-20,-2,-8,-3,4,0
1511885136321630,-6,-14,-29,-1,5,-2,-2,-3
1511885136336656,2,5,-20,-1,0,3,-3,-1
1511885136336656,-1,-1,14,1,0,0,-1,1
1511885136338662,-1,-6,-22,-5,-2,0,-1,-1
1511885136338662,1,1,6,1,0,-4,3,3
1511885136350820,1,-1,8,0,-2,-3,0,-1
1511885136350820,0,-3,6,5,-1,1,0,0
1511885136359985,-2,1,4,1,-1,-2,-2,-1
1511885136359985,2,5,-14,-7,-1,-2,-6,0
1511885136373140,3,6,13,0,2,2,9,1
1511885136373140,-3,4,-1,0,-4,1,-4,-3
1511885136382041,-2,-2,16,2,0,0,1,-2
1511885136382041,-3,-3,-21,-2,0,-2,-5,-1
1511885136396188,1,3,-3,0,2,1,-3,-1
1511885136396188,1,-7,-21,-7,-3,-2,0,0
1511885136403100,2,-4,-64,1,1,2,1,0
1511885136403100,-3,-13,34,0,-1,-6,-1,-1
1511885136410132,0,10,-5,-2,-2,-3,-3,-2
1511885136410132,-1,-11,-12,-2,2,2,2,0
1511885136419168,1,0,-1,-2,-1,-3,-2,1
1511885136419168,2,2,-3,-3,-3,2,0,0
1511885136433176,1,-6,1,-1,-3,-3,-3,2
1511885136433176,-2,-2,-12,-3,-1,-4,6,-4
1511885136442201,1,4,20,1,1,5,2,1
1511885136442201,1,-2,2,-1,-3,0,-5,0
1511885136456510,-2,-5,-3,-3,1,2,2,0
1511885136456510,0,6,21,-2,-2,-6,-2,-1
1511885136462398,-4,-2,7,0,0,2,-1,-2
1511885136462398,2,10,-8,1,-1,-4,2,1
1511885136502548,-1,3,-16,1,3,2,-2,0
1511885136502548,-1,1,0,-1,-5,-4,-4,0
1511885136504511,1,0,5,-4,1,0,2,0
1511885136504511,1,1,4,0,-2,4,2,-1
1511885136515544,-2,0,0,-1,-5,-7,-5,-4
1511885136515544,-1,3,-5,2,3,-5,-3,-2
1511885136524564,3,-1,15,3,-2,9,9,0
1511885136524564,-1,-1,-1,1,0,-4,5,2
1511885136539736,-1,-2,3,-3,-1,1,-4,0
1511885136539736,-4,4,-4,0,-2,5,0,-3
1511885136540608,-4,-6,5,1,1,1,-9,-3
1511885136540608,-1,-7,-4,0,-1,-3,0,0
1511885136553686,-3,-2,-5,-2,0,4,2,-6
1511885136553686,0,-10,3,0,-3,-1,-3,0
1511885136554644,-3,-1,-9,-1,1,3,-5,-2
1511885136554644,-6,-1,7,0,-3,5,-2,-1
1511885136568724,-2,-2,-10,-1,-6,-5,-5,-2
1511885136568724,-1,0,-4,0,-6,-4,-3,-2
1511885136575744,-4,-2,-6,-1,0,-3,0,2
1511885136575744,-1,-3,1,-2,1,4,-3,0
1511885136591765,-6,-3,1,0,-2,1,-3,-3
1511885136591765,-2,-5,-13,-2,2,3,1,-2
1511885136593747,0,0,-4,-3,-4,-4,-7,-1
1511885136593747,1,1,3,-1,-4,-6,3,1
1511885136606979,-2,-1,0,-9,-5,6,2,1
1511885136606979,0,0,6,0,-3,4,3,3
1511885136608788,-3,-4,3,13,28,-1,0,-2
1511885136608788,-2,6,7,-12,-9,2,1,1
1511885136620819,-1,0,-6,7,4,-3,0,-1
1511885136620819,0,6,7,-6,-14,-8,0,4
1511885136629021,4,1,6,6,9,-1,1,2
1511885136629021,3,1,-1,3,9,2,2,0
1511885136643994,0,3,-2,-1,3,-4,1,4
1511885136643994,0,-3,5,-6,-16,-10,0,1
1511885136645885,-3,-7,-6,5,0,-8,3,1
1511885136645885,3,2,6,-9,-2,0,2,-1
1511885136667096,1,4,-17,7,17,6,1,3
1511885136667096,-2,3,15,10,32,3,-1,0
1511885136667995,4,2,-9,-11,-16,-12,-1,1
1511885136667995,2,4,5,-3,-11,-10,-1,-1
1511885136680010,3,-4,2,-2,4,-8,2,0
1511885136680010,6,3,-5,-10,13,-6,2,2
1511885136689037,4,5,9,0,-6,-5,2,2
1511885136689037,0,-6,-9,18,13,-4,-1,1
1511885136695053,6,1,0,-14,-11,-14,3,3
1511885136695053,10,8,6,4,2,-7,4,6
1511885136704200,1,-2,4,20,11,0,-2,-2
1511885136704200,8,9,2,-20,-12,-4,0,2
1511885136710221,3,-7,5,5,11,-13,1,2
1511885136710221,4,5,0,-13,-5,-3,0,2
1511885136719232,-4,-4,-4,4,-1,3,0,0
1511885136719232,1,-2,-5,-5,-4,-11,0,0
1511885136732571,-1,2,8,-8,1,2,1,0
1511885136732571,1,-1,-5,21,-10,-3,-2,-1
1511885136741587,1,2,1,-15,-8,-3,-2,1
1511885136741587,-1,-1,-3,15,11,2,-1,-2
1511885136756564,-1,-1,-2,-13,-12,4,-1,0
1511885136756564,-2,-3,-10,-29,-9,-1,-2,-1
1511885136762588,-4,1,13,-14,-3,-5,-4,-4
1511885136762588,1,-4,-8,24,12,1,0,1
1511885136770532,3,3,4,15,-6,2,0,-2
1511885136770532,-8,-7,10,51,6,3,-1,-5
1511885136779553,1,2,-6,-47,-8,-1,2,0
1511885136779553,-4,-4,-4,-23,-5,-2,0,-1
1511885136792771,-2,-2,3,-14,0,0,-1,0
1511885136792771,-2,-2,-9,-21,0,2,-3,-3
1511885136801668,0,3,6,42,-5,-6,0,1
1511885136801668,-1,-1,2,-6,3,3,-1,-1
1511885136815649,2,-3,-2,18,-4,0,-1,2
1511885136815649,-4,4,2,-31,1,4,0,-1
1511885136824673,-2,-12,-13,-18,1,1,-1,1
1511885136824673,1,6,5,5,0,-2,-1,-1
1511885136830883,2,0,3,2,1,-3,-1,-2
1511885136830883,3,-3,-10,0,1,1,-1,1
1511885136839026,-1,5,2,-3,-2,0,0,1
1511885136839026,-1,-7,-6,-4,1,-3,-2,0
1511885136852935,-4,3,5,-1,0,-3,0,-1
1511885136852935,1,-1,-4,12,1,-2,-1,-2
1511885136861962,-1,4,3,3,-3,-2,-1,-1
1511885136861962,-1,-3,3,7,-1,-4,0,-3
1511885136875997,0,0,-1,-19,-2,-3,-2,2
1511885136875997,2,-4,-4,18,2,0,0,2
1511885136883015,2,-1,5,-9,-3,2,0,0
1511885136883015,0,-2,-7,5,1,0,-2,-1
1511885136899065,-1,-1,3,-5,0,0,-1,-2
1511885136899065,-2,1,-5,10,-5,-1,2,1
1511885136901067,0,-5,-5,-1,-2,-2,-1,-3
1511885136901067,-2,1,4,-13,0,-2,-1,-2
1511885136913220,2,0,1,4,0,2,-1,0
1511885136913220,-3,2,-4,-10,3,-1,-1,-1
1511885136922118,6,0,2,5,-1,-3,2,0
1511885136922118,-2,-2,-3,5,-4,-4,2,-1
1511885136936201,0,4,6,2,1,3,-2,-2
1511885136936201,0,-3,-3,0,0,-1,0,0
1511885136943211,-2,-1,1,-10,2,1,-1,-2
1511885136943211,2,2,9,34,0,-2,7,-1
1511885136959215,-2,-1,-4,0,1,0,-2,1
1511885136959215,1,2,2,-4,-1,0,-1,1
1511885136961221,-3,-2,-4,0,-1,0,1,1
1511885136961221,-2,-2,-5,-12,0,0,-5,0
1511885136973254,-3,3,3,3,-3,-1,-1,-1
1511885136973254,-2,-8,-1,-1,0,-3,0,-2
1511885136982275,-1,0,-6,-1,-3,-2,-1,3
1511885136982275,1,1,4,-5,0,4,-2,-1
1511885137004437,-1,2,-3,-9,-1,-1,2,-1
1511885137004437,-1,-2,4,7,1,-1,-3,-2
1511885137005441,1,2,2,4,3,-2,1,-2
1511885137005441,0,0,-7,-5,4,2,-5,1
1511885137019477,3,-4,1,3,-2,-1,2,-1
1511885137019477,-2,-1,-1,-14,-7,-1,-2,-1
1511885137020481,1,0,10,0,-4,2,1,-2
1511885137020481,-2,0,-11,1,1,-2,-1,-1
1511885137033551,0,-3,5,-3,-2,-3,-2,1
1511885137033551,3,0,-10,4,-1,-3,2,-1
1511885137041533,0,-1,10,4,-6,-1,-1,-2
1511885137041533,1,-1,13,-23,-6,-2,-3,0
1511885137056763,0,1,-23,11,4,-2,6,0
1511885137056763,0,-2,-1,-1,-2,1,-2,0
1511885137062697,-1,-4,1,1,-3,-1,-1,-1
1511885137062697,0,8,15,1,0,0,-3,0
1511885137079835,-3,-3,-4,2,-3,-1,-3,-1
1511885137079835,-2,5,1,-19,0,-1,-1,0
1511885137080687,-1,-3,6,34,4,-1,4,-1
1511885137080687,-1,0,-20,-11,-4,0,-3,2
1511885137092766,-1,-1,9,2,-4,-1,0,-2
1511885137092766,0,0,-4,-1,1,0,1,-1
1511885137101692,-1,1,-1,-18,3,3,-5,1
1511885137101692,1,-4,-2,-1,-7,-4,1,-1
1511885137124902,-2,1,9,9,6,1,2,-1
1511885137124902,-1,-1,-3,4,0,6,-4,-1
1511885137125759,-1,-1,-7,-6,4,-4,-1,0
1511885137125759,3,1,-1,6,1,2,1,-3
1511885137139796,0,4,6,-8,-3,2,-1,1
1511885137139796,2,-5,11,8,-1,-2,1,0
1511885137140801,2,3,-4,-16,-8,0,1,3
1511885137140801,-5,-2,-6,9,7,0,-1,-3
1511885137152836,0,-8,4,15,-2,-2,-1,-3
1511885137152836,-2,1,-2,-6,4,-1,-2,-1
1511885137161858,-4,-2,-3,-7,-1,-1,0,-1
1511885137161858,-2,2,4,2,1,3,3,0
1511885137176036,-2,-5,-9,-7,0,-1,-1,2
1511885137176036,-1,1,5,8,-5,-2,0,-3
1511885137183920,1,2,-15,-2,5,-2,6,2
1511885137183920,0,-8,-7,-4,-4,-4,-1,1
1511885137199000,0,4,2,-4,3,1,-1,0
1511885137199000,0,1,3,-3,-4,1,3,-2
1511885137200995,-1,-4,-13,-1,-3,-4,-4,-1
1511885137200995,-2,-1,7,2,12,-1,4,1
1511885137212996,-4,-5,-4,19,12,5,2,0
1511885137212996,3,-2,-9,-38,-6,-2,-4,0
1511885137222016,2,0,-1,20,-6,-2,-2,-2
1511885137222016,-1,-3,1,8,3,3,-2,-1
1511885137235204,-1,-3,3,-5,-4,-4,-2,0
1511885137235204,0,7,-4,8,6,0,1,1
1511885137244203,1,-6,5,-7,3,4,-1,0
1511885137244203,-2,-2,1,-18,-10,-5,0,-2
1511885137259355,-1,-2,2,2,-2,-1,3,-1
1511885137259355,0,1,1,3,-4,-3,-2,2
1511885137261249,3,2,-14,-1,4,1,8,0
1511885137261249,0,-1,3,8,5,0,-3,-2
1511885137273280,1,-2,1,-14,-7,-1,-2,-2
1511885137273280,-3,-5,-5,0,-5,-1,-1,-3
1511885137282303,-3,3,5,7,4,-1,-4,-1
1511885137282303,4,1,4,-20,-2,-5,-1,0
1511885137295642,0,3,-6,3,1,0,0,0
1511885137295642,2,2,6,19,3,1,1,-1
1511885137304497,-1,-10,-7,-10,-5,-4,-4,0
1511885137304497,-2,2,-3,-1,-9,-3,-1,-1
1511885137319616,1,2,-1,-6,0,-4,-4,-2
1511885137319616,0,-3,-4,-6,0,-1,2,2
1511885137321532,-2,3,-4,-6,0,3,-1,2
1511885137321532,3,-1,9,17,1,-2,1,3
1511885137332560,-5,-6,-11,-12,-3,-1,-1,-2
1511885137332560,3,1,13,3,-2,-5,-5,-3
1511885137341586,-3,1,3,6,1,1,0,-2
1511885137341586,0,0,2,0,-2,3,-4,-2
1511885137355740,-1,8,-2,-17,-1,-1,-2,-2
1511885137355740,-3,-4,-3,3,1,2,8,0
1511885137364646,1,6,10,17,1,-3,-3,-2
1511885137364646,0,-5,-7,4,-2,1,-1,0
1511885137379860,-2,1,-1,-2,-4,0,0,0
1511885137379860,-1,-1,-5,-8,3,2,-4,0
1511885137380690,-1,0,9,-12,-4,-3,-3,-1
1511885137380690,-1,-4,-7,5,3,1,0,1
1511885137392922,2,3,-7,-3,-3,2,-1,-1
1511885137392922,-2,1,6,3,-1,-1,0,-1
1511885137401745,-2,-3,-7,2,-2,-3,-1,-2
1511885137401745,-2,-4,-1,1,-3,1,-4,0
1511885137415781,0,2,7,-5,-6,-3,-2,0
1511885137415781,-1,-1,-6,6,6,-1,-1,1
1511885137424911,-1,-1,2,-2,-3,-2,-1,0
1511885137424911,2,1,-3,-14,-6,-2,4,-1
1511885137438885,0,3,7,10,7,3,-9,0
1511885137438885,-1,-5,-9,9,-3,-5,6,3
1511885137440855,-2,0,0,-9,-4,-2,-6,-1
1511885137440855,-2,-1,3,0,3,2,0,-2
1511885137452944,3,3,-2,3,-3,1,-1,0
1511885137452944,0,5,5,-8,-2,-1,-5,-1
1511885137461993,1,-5,-8,6,2,-1,0,0
1511885137461993,-3,5,9,-6,-2,1,-1,0
1511885137476008,1,-6,-5,4,-1,-6,1,-1
1511885137476008,-1,-5,-9,-6,0,1,-3,-1
1511885137484031,-2,2,12,-15,-4,-1,-1,-3
1511885137484031,-2,2,-6,26,9,0,-2,0
1511885137499107,-2,-6,-4,-7,2,-1,-1,-1
1511885137499107,1,1,-1,-1,-3,-4,-2,-1
1511885137501109,-3,-5,1,-4,-2,3,-3,-1
1511885137501109,0,6,0,-3,-2,-1,-3,-3
1511885137513145,2,-2,-6,4,-1,-1,0,0
1511885137513145,-3,-1,1,2,-1,-2,1,0
1511885137522132,-1,4,5,1,-1,0,-1,-2
1511885137522132,-1,-2,-6,-6,-3,1,-1,0
1511885137536256,-5,-15,2,4,-1,0,0,-2
1511885137536256,-1,2,5,-9,-5,-1,-1,-2
1511885137543308,1,1,-10,5,1,1,0,-1
1511885137543308,0,0,3,-3,-3,-3,-1,1
1511885137559437,-1,2,-2,-9,-2,-1,-1,0
1511885137559437,-3,-7,1,-6,3,8,-1,-2
1511885137561324,-1,0,7,20,0,-1,1,-1
1511885137561324,-4,0,-3,-5,0,0,-1,-4
1511885137573444,0,4,0,2,4,0,0,-1
1511885137573444,-3,1,0,-4,-5,-2,-2,-2
1511885137581549,1,1,-8,2,-4,-2,-1,1
1511885137581549,-1,-1,2,-1,-7,-1,8,-1
1511885137596603,0,-2,2,1,-6,-2,1,1
1511885137596603,0,-3,-15,-7,-1,0,-3,-1
1511885137602500,1,-1,2,-8,2,2,-1,2
1511885137602500,-5,-1,-1,2,-4,0,-5,-1
1511885137619545,0,1,2,-1,3,4,0,-3
1511885137619545,1,0,2,9,-3,-3,-1,2
1511885137620549,-3,3,-6,-6,0,1,-3,-2
1511885137620549,3,1,-10,-3,0,-6,0,0
1511885137632613,-3,-5,-1,-4,0,2,0,2
1511885137632613,-4,8,6,2,5,1,-1,-1
1511885137641734,2,-4,7,30,-3,-4,1,0
1511885137641734,0,-2,-3,-12,2,0,-1,1
1511885137656678,-1,3,-6,10,0,-2,0,-1
1511885137656678,1,0,4,7,-3,0,-2,-1
1511885137662799,1,-4,-2,-3,-2,0,-4,0
1511885137662799,1,-3,5,15,3,1,7,1
1511885137679737,0,-1,6,-4,-3,-3,2,0
1511885137679737,-3,-3,-9,-46,-2,3,-4,-3
1511885137680753,1,4,11,32,0,-2,1,0
1511885137680753,-2,-2,-12,-2,3,-1,-3,2
1511885137692772,-2,4,0,1,-1,2,-1,-1
1511885137692772,1,-1,1,3,0,-3,1,0
1511885137701796,-2,-6,-6,-26,2,4,2,-1
1511885137701796,-1,0,2,-15,-4,-1,-2,-5
1511885137716042,3,2,-11,31,-1,-4,2,0
1511885137716042,2,3,2,-6,3,-2,2,0
1511885137722982,-3,-3,-3,-5,1,-1,2,-2
1511885137722982,0,-2,3,-14,-2,-2,-3,-1
1511885137739038,-2,-1,-6,-5,4,-2,0,2
1511885137739038,4,-6,0,19,-1,-3,-8,0
1511885137740932,-3,5,-1,-9,1,-2,6,-1
1511885137740932,-1,-1,6,1,-5,-1,-3,-1
1511885137752966,-3,0,-12,-1,8,1,-1,-2
1511885137752966,-2,3,4,3,-8,0,-4,-2
1511885137761987,1,-3,-7,0,2,1,-2,-2
1511885137761987,3,4,1,-3,-2,-2,-1,1
1511885137776156,2,-1,8,-2,-5,-2,-2,0
1511885137776156,-2,0,3,6,2,1,5,-2
1511885137783044,2,-5,-6,6,-1,-2,-2,1
1511885137783044,-2,2,0,4,-3,-3,3,-2
1511885137799199,1,0,5,-5,-3,0,-4,-1
1511885137799199,0,-1,-10,-3,4,-1,3,1
1511885137805102,-1,2,4,-5,-7,-4,-2,-2
1511885137805102,-3,-3,-9,5,3,1,-5,0
1511885137813318,2,4,14,-8,2,0,2,-1
1511885137813318,3,-4,-1,7,-2,-3,-3,-1
1511885137822147,-1,3,-6,-2,1,0,3,-1
1511885137822147,2,-7,-5,0,1,-2,-2,-1
1511885137836184,-4,-2,2,0,-4,1,-1,-1
1511885137836184,1,2,-4,-1,-1,1,1,2
1511885137843220,-2,-6,1,-6,-3,-3,-3,1
1511885137843220,-1,0,-1,11,-8,-1,-1,0
1511885137858246,-2,0,8,-3,7,-2,1,-2
1511885137858246,1,-5,-3,-4,1,0,-2,-1
1511885137865265,3,2,-2,-4,-1,-3,-4,-2
1511885137865265,0,-2,7,4,-5,0,2,-1
1511885137881310,-1,0,-6,17,3,2,-3,-1
1511885137881310,-2,-2,-1,-6,-2,-3,-1,-1
1511885137883314,-2,0,2,-6,0,1,-2,-2
1511885137883314,-2,-4,0,-5,0,2,-1,-1
1511885137896345,1,2,-8,1,-8,-2,-2,-1
1511885137896345,-3,-1,-2,-6,-2,-2,-2,-1
1511885137902364,1,-2,-4,0,1,-1,-4,2
1511885137902364,2,2,-2,0,2,-2,1,-2
1511885137918433,0,-3,-3,-14,-3,0,0,0
1511885137918433,-1,0,1,2,-6,0,2,1
1511885137925590,0,0,-1,-7,1,2,-4,-2
1511885137925590,-3,-4,-3,-3,3,2,-1,-1
1511885137941544,3,-1,-2,29,-4,-4,1,1
1511885137941544,-3,2,3,-2,1,0,1,-3
1511885137943556,-1,2,1,1,2,-1,3,-2
1511885137943556,1,-1,1,-6,-1,3,0,1
1511885137956653,1,1,0,-13,-4,-2,-3,-1
1511885137956653,-1,1,-12,12,0,1,-1,0
1511885137962598,-1,-4,4,0,-1,-1,1,1
1511885137962598,0,-4,-4,-20,-2,-3,1,1
1511885137978638,-4,-4,4,3,4,0,-1,-3
1511885137978638,-1,3,5,16,5,4,1,-1
1511885137985660,0,-1,-7,-14,2,-2,-2,0
1511885137985660,1,0,-5,8,2,-1,5,-2
1511885138001703,-2,0,0,-6,-5,2,-7,1
1511885138001703,0,-3,2,-4,2,-3,1,-2
1511885138003709,0,-2,-4,-12,-2,-2,0,-2
1511885138003709,-3,2,7,36,3,2,-3,-1
1511885138015737,1,0,-1,-20,0,-2,-2,1
1511885138015737,1,-1,-7,4,-2,-2,1,0
1511885138024775,1,2,6,4,-3,0,-1,0
1511885138024775,-2,-2,-4,-10,0,-5,-2,-3
1511885138038802,-2,-1,1,-8,-1,0,1,-2
1511885138038802,-2,-2,2,-6,1,-1,-2,-2
1511885138045944,0,3,0,1,-3,0,-1,0
1511885138045944,2,1,2,-2,0,0,-3,0
1511885138061982,-3,0,6,3,1,1,-3,1
1511885138061982,-1,-1,-7,0,-5,-1,-7,0
1511885138062982,0,-1,7,4,-2,-2,0,-2
1511885138062982,1,1,-5,-3,1,0,-2,-2
1511885138075993,4,-1,0,-4,-1,2,3,1
1511885138075993,-1,2,7,-1,-3,1,-4,0
1511885138084926,-1,-1,-5,-4,0,0,0,1
1511885138084926,1,-3,0,13,1,-3,-4,0
1511885138099169,-3,-4,-7,-1,-3,0,3,-2
1511885138099169,-1,-2,2,-11,0,-3,3,-1
1511885138105002,-1,-1,-1,16,-1,2,1,-1
1511885138105002,-4,3,1,-8,1,0,0,-2
1511885138122152,-1,-3,0,2,-3,-1,2,-1
1511885138122152,0,-2,-2,2,1,-3,-1,1
1511885138123165,-2,1,0,-5,-1,1,-3,-1
1511885138123165,2,0,-2,-3,-4,-1,0,1
1511885138135054,-3,-8,-7,1,0,-3,1,0
1511885138135054,-2,1,1,-1,0,0,2,2
1511885138144082,-5,1,0,-2,6,3,-2,-1
1511885138144082,0,1,0,-1,-6,-1,-3,-1
1511885138159149,-1,2,-1,-4,1,-3,-5,-1
1511885138159149,2,1,4,2,1,-2,-1,-1
1511885138165246,0,-4,-8,0,-2,1,-3,1
1511885138165246,-3,3,4,-4,1,2,0,1
1511885138182181,1,2,-1,-4,-3,0,-1,-4
1511885138182181,-2,-2,3,3,3,0,-2,1
1511885138183183,2,-1,1,4,15,2,1,1
1511885138183183,-1,-3,-5,-8,-8,0,-3,-2
1511885138195413,0,1,-2,-6,-13,-4,3,-2
1511885138195413,0,1,-5,10,-5,2,3,-2
1511885138204238,1,-1,-2,-10,-36,-7,0,-1
1511885138204238,-2,-2,0,17,47,11,1,-2
1511885138218471,-2,-1,-4,3,-3,-3,-1,1
1511885138218471,-1,-2,1,6,20,5,3,0
1511885138225312,0,0,-1,-7,-16,-2,0,0
1511885138225312,1,-1,0,11,-23,-8,-4,-2
1511885138241337,-1,2,-1,-19,4,-3,0,-2
1511885138241337,1,0,-2,39,5,2,-4,-2
1511885138243343,-1,-3,0,-11,-3,-6,-1,1
1511885138243343,1,0,0,-27,-15,-6,1,1
1511885138255498,0,0,2,13,3,3,0,1
1511885138255498,-4,-4,1,-4,8,-4,-3,-2
1511885138264555,0,-1,-3,11,11,3,-1,-1
1511885138264555,-3,-2,-2,-26,-2,3,3,1
1511885138278595,-3,1,3,-15,1,2,0,-2
1511885138278595,-2,-4,-3,-21,-4,0,-3,-1
1511885138285615,-2,-3,-2,15,7,0,-1,-2
1511885138285615,4,1,-2,13,5,-4,2,2
1511885138301821,0,-2,-3,-7,0,1,0,0
1511885138301821,3,4,-2,-13,-11,-1,0,0
1511885138303805,-7,-3,0,-18,1,0,0,-5
1511885138303805,1,-2,0,16,-10,-1,-2,0
1511885138315962,5,0,-3,2,2,0,0,2
1511885138315962,-2,0,3,-16,-10,-6,-2,-3
1511885138324862,2,3,1,33,-4,-2,-2,0
1511885138324862,-1,-2,3,20,3,-1,0,0
1511885138338898,-2,0,-2,5,2,-2,0,0
1511885138338898,-3,-3,-3,-21,1,2,1,-2
1511885138345913,3,1,-3,-22,2,2,-1,0
1511885138345913,0,-4,-1,4,-1,-1,0,2
1511885138362068,1,-2,-2,8,-5,0,-2,-2
1511885138362068,-4,0,-1,7,-5,0,1,-1
1511885138363967,-1,0,1,-5,4,-2,0,0
1511885138363967,-3,2,-3,-10,-2,3,-3,0
1511885138375999,-3,-1,5,-4,-1,2,-5,-2
1511885138375999,3,2,-8,24,-7,-2,2,-2
1511885138384015,-3,-1,-7,-5,4,1,0,0
1511885138384015,-3,-4,-3,-9,-2,-2,0,0
1511885138399184,-2,-2,3,-2,-1,-2,1,0
1511885138399184,2,-3,-3,-2,-1,1,-2,1
1511885138405181,1,1,2,-19,-3,0,-1,-2
1511885138405181,-1,0,-11,-15,-3,-3,1,-1
1511885138422116,2,4,0,9,2,0,-1,-2
1511885138422116,2,-3,2,10,-6,-2,1,0
1511885138423119,-1,2,0,10,1,-4,-1,-1
1511885138423119,1,-4,8,1,0,0,0,-4
1511885138435154,-3,1,-8,-3,-2,-1,-1,-2
1511885138435154,1,-4,1,-5,-4,4,-2,0
1511885138444174,-1,0,-1,-14,0,2,-3,4
1511885138444174,2,3,-5,-21,-1,-1,0,1
1511885138458307,1,-2,7,7,-1,-2,-1,2
1511885138458307,-4,-3,7,18,-1,-1,-1,-3
1511885138465241,4,0,0,12,2,-1,-1,-3
1511885138465241,8,-5,3,-16,-3,4,1,-1
1511885138481451,-2,-1,-12,-15,2,-2,1,0
1511885138481451,10,3,2,2,-2,-3,-2,-1
1511885138483280,-9,-6,0,8,0,-4,-1,-1
1511885138483280,1,5,2,10,2,0,-7,0
1511885138504339,-8,-3,-1,-2,-1,-1,8,-2
1511885138504339,7,-1,3,3,2,1,-1,2
1511885138506458,5,1,3,-18,-3,1,0,2
1511885138506458,-10,1,0,30,-2,-1,0,-6
1511885138518816,0,-4,-4,2,2,0,-2,-1
1511885138518816,-6,0,6,-3,-4,-1,-1,0
1511885138525712,2,-3,-4,-2,1,0,0,-3
1511885138525712,-1,1,-1,-3,-1,-3,-1,0
1511885138541876,2,-1,7,9,-3,0,-1,0
1511885138541876,-4,-2,-1,-7,-1,1,-1,0
1511885138543758,-4,-1,-3,-6,-1,-5,-1,-2
1511885138543758,0,-1,-4,-4,2,-1,0,5
1511885138555833,3,0,6,9,-1,-4,-7,-3
1511885138555833,-6,4,1,-16,2,0,11,-1
1511885138564927,-4,-2,1,3,-1,-3,-2,-1
1511885138564927,0,-3,5,7,2,1,0,-1
1511885138579076,-3,1,-3,-8,-3,-4,-4,-5
1511885138579076,0,-6,-6,-10,2,2,-2,4
1511885138584961,5,3,-1,12,-3,3,-7,1
1511885138584961,-3,1,1,-1,-2,-3,6,-4
1511885138602092,-1,-1,-1,1,-1,2,14,-1
1511885138602092,-2,-2,-10,-7,-1,-4,-7,-3
1511885138603091,-2,-1,4,5,1,-1,-8,0
1511885138603091,2,-2,-5,-1,0,-1,0,1
1511885138624147,-1,-5,-12,-8,-4,-1,7,2
1511885138624147,-4,-4,12,5,-1,4,-3,-2
1511885138626153,3,2,-19,-3,1,3,-30,2
1511885138626153,2,3,19,2,-3,-3,-18,-3
1511885138638187,-4,-6,-31,4,2,1,11,-1
1511885138638187,-2,4,0,-1,-1,-2,-6,-2
1511885138645508,0,0,13,5,-3,1,4,-1
1511885138645508,-1,1,-10,-6,-2,2,7,-1
1511885138662410,1,1,11,2,-3,0,-29,-1
1511885138662410,4,-2,1,-3,-1,-4,-53,2
1511885138663375,-1,1,-9,-2,1,-2,72,-1
1511885138663375,6,0,3,0,-3,1,-2,3
1511885138675532,-11,5,8,2,15,2,-5,-4
1511885138675532,4,-3,-4,0,0,-3,-13,2
1511885138684437,0,-2,1,2,8,1,-2,0
1511885138684437,-6,-3,-4,-4,-7,-1,-20,-3
1511885138698768,5,0,6,-6,2,-2,-50,2
1511885138698768,4,2,-8,2,-8,-3,-79,0
1511885138705704,1,3,-2,-6,-5,-9,-21,-3
1511885138705704,3,-2,5,19,-1,0,9,0
1511885138720825,0,-3,-1,-9,-4,5,-16,0
1511885138720825,0,4,-3,-12,-8,-4,11,1
1511885138727805,0,-4,8,5,-18,-6,-3,0
1511885138727805,-4,1,6,-5,16,5,-20,-2
1511885138734984,4,-4,-19,12,-11,-8,18,-1
1511885138734984,-3,2,2,-4,-3,1,41,0
1511885138744095,-2,-3,8,1,-2,3,3,0
1511885138744095,-3,-2,-11,-31,14,-1,-55,-1
1511885138759160,4,2,21,16,-4,-6,-50,3
1511885138759160,0,-3,-10,-3,21,0,34,-3
1511885138765352,1,0,3,6,-2,3,-11,0
1511885138765352,-3,1,-5,6,-9,3,-6,1
1511885138781650,0,-3,13,-2,10,1,14,1
1511885138781650,-2,0,-5,-16,-6,-3,1,-1
1511885138787726,-2,0,1,-1,4,3,-14,-2
1511885138787726,3,0,-9,-25,8,1,25,-1
1511885138804735,2,1,0,-2,3,-2,22,-2
1511885138804735,-1,-1,11,26,-3,-3,24,0
1511885138805719,-1,-9,-2,-3,-1,0,5,0
1511885138805719,-2,-5,-10,3,-6,-1,6,-4
1511885138818757,1,0,-21,-8,-2,-5,12,0
1511885138818757,0,6,-4,-3,-8,1,-5,-1
1511885138825817,-2,2,7,-3,-2,-1,-4,0
1511885138825817,-3,-1,-4,8,-4,0,0,-1
1511885138840816,0,7,14,-1,-1,3,5,-3
1511885138840816,-3,-9,1,-5,-3,0,0,-2
1511885138847830,0,6,-6,3,1,0,-2,-1
1511885138847830,-2,-7,2,3,-7,-4,23,1
1511885138864065,-2,2,4,15,1,3,3,-1
1511885138864065,5,5,10,-9,-1,-1,8,1
1511885138865878,-2,-8,-35,-8,4,0,0,-2
1511885138865878,4,0,9,-4,-3,-2,-8,-3
1511885138879026,-5,-4,-7,6,-5,-1,0,0
1511885138879026,-1,-2,-5,-6,7,1,-1,-1
1511885138884932,-4,-1,3,13,1,1,-3,0
1511885138884932,1,5,13,0,-4,-3,7,0
1511885138901117,3,-5,-8,-12,-4,0,2,0
1511885138901117,3,2,-2,0,1,1,13,-3
1511885138908452,-3,-4,3,-7,5,-1,-3,-2
1511885138908452,-2,5,-5,7,0,1,3,-2
1511885138924739,-3,-11,7,-6,0,-3,6,2
1511885138924739,-2,3,6,10,2,3,-9,-1
1511885138925718,-1,1,5,-6,-2,-2,2,-2
1511885138925718,-2,-3,-18,1,1,-6,4,-1
1511885138938087,2,1,2,-3,-1,0,-4,1
1511885138938087,-4,5,8,-11,-2,-3,2,0
1511885138947197,3,-1,16,17,-1,1,1,-1
1511885138947197,-3,-3,-23,-8,-5,-3,41,0
1511885138961448,-2,-3,6,-4,4,2,2,-4
1511885138961448,-2,-7,-9,3,-2,-3,1,-1
1511885138968295,1,2,4,-8,3,0,4,0
1511885138968295,1,5,10,9,-1,0,-10,-2
1511885138984501,-1,-2,5,-9,-2,1,1,-2
1511885138984501,0,-5,-11,5,4,-1,4,1
1511885138985576,-4,-5,-13,-1,-3,-3,-6,-1
1511885138985576,2,-2,1,0,0,1,-6,1
1511885138997552,-1,3,0,1,-1,-2,-1,0
1511885138997552,-2,0,2,2,0,-4,-8,-1
1511885139006535,2,-2,7,1,-2,-2,1,0
1511885139006535,-4,-16,-30,-6,-1,0,-8,0
1511885139021579,1,11,0,-3,-1,0,-1,-2
1511885139021579,-1,-5,8,2,-1,3,1,-1
1511885139027592,2,3,-8,-1,1,-1,1,1
1511885139027592,-2,-7,14,6,-3,1,0,-4
1511885139044637,2,0,-12,-3,-1,0,-2,1
1511885139044637,-4,-8,-5,2,2,-2,1,4
1511885139045643,8,9,7,-5,-3,0,-5,-4
1511885139045643,-7,2,6,-2,-1,-1,-4,2
1511885139057715,-5,-2,-5,-2,-3,-2,10,-1
1511885139057715,-1,-3,2,3,1,-2,-2,-1
1511885139066699,-3,1,0,-1,0,1,-2,0
1511885139066699,11,4,-15,-1,2,-3,-5,-3
1511885139080735,0,-3,15,-1,-3,-3,-2,5
1511885139080735,-1,4,5,-1,-1,-1,0,-5
1511885139087754,-1,-1,8,2,0,-3,0,1
1511885139087754,-4,-3,-26,-1,1,-1,-5,-2
1511885139104797,5,2,5,3,-1,2,-27,2
1511885139104797,1,2,3,0,-1,-1,-7,5
1511885139105804,-14,-4,4,-2,-2,0,-5,-11
1511885139105804,9,7,27,4,2,3,4,4
1511885139117832,2,-2,1,1,0,-1,13,-4
1511885139117832,-2,-3,-15,-4,1,-2,3,-3
1511885139126856,1,1,-7,0,0,0,-5,3
1511885139126856,-5,5,21,0,-2,-4,-6,-2
1511885139140935,-3,-7,-17,-2,1,-6,0,-1
1511885139140935,-3,-2,-3,-2,-2,1,-12,2
1511885139147954,-2,-2,5,0,1,0,37,-4
1511885139147954,1,2,19,2,-2,5,-5,-3
1511885139163996,-6,-7,-40,-3,0,-2,-2,1
1511885139163996,5,2,17,2,0,-5,-7,-2
1511885139165962,5,-1,-21,0,2,-2,-37,6
1511885139165962,-6,-8,-2,-3,-1,1,71,-2
1511885139177994,-2,7,14,1,1,4,25,-3
1511885139177994,0,-4,-14,-3,1,-3,-8,-3
1511885139187147,2,5,9,-1,-3,-3,0,0
1511885139187147,2,-4,-20,-2,1,-6,-50,-2
1511885139201188,0,0,1,3,1,2,81,1
1511885139201188,-3,1,-3,1,0,0,17,0
1511885139208476,6,-3,-3,-3,-1,1,-5,1
1511885139208476,-3,-1,-5,0,1,0,-19,2
1511885139224555,0,-1,7,-2,-2,-5,-27,-2
1511885139224555,-4,4,-4,2,-1,-1,-11,-4
1511885139225479,1,-3,-2,0,3,-2,-65,-1
1511885139225479,-1,1,6,-2,0,-3,-24,2
1511885139238415,2,3,6,1,-2,1,-32,2
1511885139238415,1,-1,1,-4,-8,-3,0,2
1511885139247437,0,-3,-6,3,8,-1,2,-1
1511885139247437,-1,2,6,-2,-6,2,9,-1
1511885139261474,-3,1,1,9,22,4,-21,-3
1511885139261474,-2,0,-5,-2,-6,6,52,-3
1511885139267493,-1,0,-1,-3,-5,-3,-4,2
1511885139267493,-1,-1,4,-3,0,1,-10,0
1511885139284539,0,-2,-4,-5,-7,-4,16,-2
1511885139284539,-2,-1,-1,-4,-2,2,-11,-2
1511885139285538,-3,1,1,-5,-10,-4,-45,0
1511885139285538,3,-1,5,13,15,3,-10,0
1511885139297676,6,2,3,-4,-11,-5,-44,2
1511885139297676,0,1,-4,-2,5,-2,-1,-1
1511885139306697,-4,-1,-2,-6,-8,1,19,1
1511885139306697,-1,2,1,-4,-8,-8,-17,0
1511885139321738,2,0,5,-3,-2,-1,-5,0
1511885139321738,2,1,1,4,6,-5,-26,2
1511885139327903,-3,-10,-15,-1,-4,5,98,-2
1511885139327903,-2,2,11,0,-1,0,-8,-4
1511885139344117,-1,-6,1,0,5,0,-17,-1
1511885139344117,-3,1,1,-1,-6,-2,52,-3
1511885139346019,1,-6,-3,-4,-7,-14,-16,1
1511885139346019,-1,1,10,-3,13,14,-9,-1
1511885139358169,-1,-6,-36,-2,-22,-14,36,2
1511885139358169,6,3,16,-13,-9,2,-46,2
1511885139367074,0,3,9,8,3,1,-13,2
1511885139367074,0,-1,13,-13,-29,-18,-11,-2
1511885139381288,1,5,-5,-1,2,8,-15,-2
1511885139381288,1,-8,-2,13,24,-6,-8,0
1511885139388243,1,5,-4,2,-5,-1,18,-1
1511885139388243,1,2,7,15,11,6,24,-1
1511885139404334,-2,0,3,-21,-15,-1,-13,-4
1511885139404334,-2,-1,5,7,8,6,-4,-2
1511885139406457,1,0,-3,-17,-3,0,-12,-1
1511885139406457,-1,-4,-30,6,-2,-1,-6,0
1511885139418494,0,3,22,-2,-13,-4,-4,1
1511885139418494,-1,1,-12,10,15,1,-18,-1
1511885139426612,1,-2,0,22,1,-3,-4,2
1511885139426612,-6,-2,-8,-1,15,-3,5,-3
1511885139441642,0,-2,2,-8,-16,2,0,-3
1511885139441642,-2,3,5,-21,-15,-1,1,-2
1511885139447720,-1,-1,-5,3,4,-1,-5,-2
1511885139447720,1,0,-3,10,-8,-3,-14,3
1511885139464752,-2,1,4,4,3,-1,-14,0
1511885139464752,-2,-4,2,0,15,5,-10,-2
1511885139465707,-2,-1,-6,8,-4,2,-1,-4
1511885139465707,0,3,-10,-5,5,0,0,-2
1511885139477737,-1,-1,7,9,3,2,-4,-3
1511885139477737,-2,-4,-11,15,-10,1,-2,2
1511885139486907,2,3,3,-34,10,-2,-7,-2
1511885139486907,2,-4,7,1,-7,-2,8,1
1511885139500953,-1,-1,-6,18,21,4,-8,0
1511885139500953,-2,-3,-2,-34,-16,-5,2,0
1511885139508005,-1,-1,6,33,8,5,-3,-4
1511885139508005,1,-1,-2,0,-6,-5,1,0
1511885139524048,1,-2,1,-21,5,-2,31,-2
1511885139524048,1,1,2,9,-2,-2,-7,-2
1511885139526012,-4,0,-4,-17,12,4,0,-2
1511885139526012,2,3,8,-8,-9,-4,0,3
1511885139538086,0,-1,-5,1,-3,-3,-10,0
1511885139538086,0,2,-2,13,-5,3,0,1
1511885139547068,-2,-10,-3,-4,-4,-4,0,-2
1511885139547068,-2,0,-2,-18,1,2,6,-1
1511885139561229,0,-1,-2,4,10,3,-3,1
1511885139561229,-2,2,3,32,-5,-1,-2,-1
1511885139568390,2,6,10,-5,-5,0,-8,0
1511885139568390,-1,-7,-9,1,0,-1,-2,-4
1511885139584541,-1,-1,-3,-8,3,-2,-6,2
1511885139584541,1,0,-1,-9,0,-3,-1,-3
1511885139585466,2,4,4,2,-5,-4,0,1
1511885139585466,1,1,4,-3,2,1,4,-2
1511885139597550,-2,-1,-4,0,2,0,-2,2
1511885139597550,0,-2,-4,3,-3,-4,-1,-1
1511885139606579,-2,-1,5,0,3,1,-1,0
1511885139606579,0,-2,-5,-18,-4,-2,-2,-3
1511885139621538,3,-1,5,15,-2,-2,-4,1
1511885139621538,1,-1,1,3,3,1,-1,1
1511885139628553,1,0,-3,-11,-4,0,0,0
1511885139628553,-3,-4,2,1,1,3,-2,0
1511885139643596,-3,0,2,-2,-1,-3,-2,-4
1511885139643596,0,-1,-2,-11,1,0,-1,-1
1511885139650614,-1,1,0,4,-1,-4,2,-1
1511885139650614,0,-1,-1,4,0,2,0,1
1511885139657811,-2,1,1,-2,-1,-3,1,-1
1511885139657811,0,0,-6,-6,-2,-5,-1,0
1511885139666793,-2,-3,-3,0,-1,0,-1,-2
1511885139666793,-1,-2,4,6,1,0,-7,0
1511885139680830,1,2,-1,-2,2,-5,-7,-2
1511885139680830,0,0,3,-4,-2,-1,-1,0
1511885139687848,-1,-3,1,4,-3,3,2,2
1511885139687848,1,0,-2,0,-1,-2,1,0
1511885139703891,-1,-2,1,2,3,1,-1,0
1511885139703891,-1,-1,-2,-2,-3,-2,-1,0
1511885139710909,-3,-2,-1,5,9,1,-3,1
1511885139710909,0,1,-1,-20,-9,-3,2,0
1511885139717930,-2,-2,2,11,2,-1,1,-1
1511885139717930,0,-2,-1,-1,1,-1,1,-1
1511885139726950,2,0,-2,-2,-5,-1,0,2
1511885139726950,1,0,-2,0,0,0,-1,-4
1511885139741028,0,1,-1,-21,-1,1,1,-1
1511885139741028,-4,-4,0,18,1,-1,-4,0
1511885139748050,1,0,2,8,8,-2,0,-1
1511885139748050,-1,-1,-2,2,-1,-1,1,1
1511885139764074,2,2,-2,0,-7,-3,-2,0
1511885139764074,1,-1,1,-15,-7,1,7,0
1511885139770067,-3,-1,-1,-5,-6,1,-1,0
1511885139770067,-2,0,-1,8,0,-1,0,-2
1511885139787154,-4,-2,-4,-3,-2,1,-1,-3
1511885139787154,2,2,2,0,5,-2,-2,1
1511885139788113,4,-1,-6,-6,-9,1,1,3
1511885139788113,-3,1,6,3,7,-2,-1,-1
1511885139801240,0,-4,-5,1,-4,-2,-1,-1
1511885139801240,-1,0,-5,-9,-6,2,-3,0
1511885139808386,-1,-3,-2,8,18,2,0,-4
1511885139808386,2,-4,-6,0,-5,5,0,-1
1511885139823395,-2,0,-2,3,-1,0,-1,2
1511885139823395,0,3,5,1,-1,1,-2,-2
1511885139830438,0,3,1,-8,-8,-3,1,0
1511885139830438,-3,2,-6,3,8,-2,1,0
1511885139847360,-2,-2,1,0,0,-2,-2,-1
1511885139847360,2,1,-6,-2,-5,-2,3,0
1511885139848360,-2,1,-2,-5,-7,-6,-1,-2
1511885139848360,-2,-1,4,5,0,1,-2,1
1511885139861436,-2,0,-2,0,0,-1,-2,-1
1511885139861436,0,-1,-2,-4,6,1,-2,-2
1511885139868417,-2,-1,0,5,1,-2,1,-2
1511885139868417,0,-1,-1,3,-6,-4,0,-2
1511885139883454,0,1,1,-8,-2,0,-2,-2
1511885139883454,-2,-3,1,-1,3,-2,0,1
1511885139890670,-2,0,0,-2,-3,1,-5,-4
1511885139890670,-1,-4,-2,-3,-2,-5,-1,0
1511885139906789,2,3,2,-1,4,3,0,-1
1511885139906789,1,-7,-24,4,-4,-2,0,-2
1511885139908789,0,-1,12,-2,-1,-1,-6,1
1511885139908789,-1,0,-2,-6,-1,2,0,-1
1511885139920828,0,4,5,6,2,-2,-1,-1
1511885139920828,-1,4,3,-5,0,0,0,-2
1511885139929840,-1,0,10,-1,1,-2,-1,-1
1511885139929840,-4,-4,-8,7,3,-3,3,0
1511885139943869,-2,1,6,-11,-1,3,0,-2
1511885139943869,1,2,2,-4,-3,-3,-4,2
1511885139950867,0,-4,-10,10,-1,-1,3,0
1511885139950867,1,4,9,-2,-3,1,0,-1
1511885139967046,0,-4,-8,4,-3,-2,1,0
1511885139967046,0,1,4,-3,2,0,-2,-1
1511885139968049,-2,3,-1,-4,-4,0,1,1
1511885139968049,1,-5,-4,2,-1,-4,-2,2
1511885139980265,0,-1,-5,1,-2,-2,1,1
1511885139980265,-2,-4,2,1,2,-4,-2,-1
1511885139989206,0,3,-8,-6,2,0,0,0
1511885139989206,-2,-1,1,5,-2,0,1,-3
1511885140003388,2,1,1,6,7,-4,-2,-1
1511885140003388,2,0,5,2,0,-3,0,1
1511885140010402,-2,-1,0,-2,-1,1,0,-1
1511885140010402,3,-1,-2,-10,-6,0,2,1
1511885140026446,-1,-4,2,-1,-1,-3,-8,1
1511885140026446,1,0,-5,1,1,-1,-1,0
1511885140028463,-2,-2,-3,-3,2,2,-3,1
1511885140028463,1,4,-1,4,2,-2,1,-1
1511885140040485,-3,-2,-2,-3,-2,2,2,0
1511885140040485,1,-1,0,0,-2,-1,-1,0
1511885140049507,-1,-1,-2,-1,0,-3,1,1
1511885140049507,-2,2,2,-3,1,1,-2,0
1511885140063547,-2,-2,1,4,2,0,-1,0
1511885140063547,0,0,2,2,-1,3,0,0
1511885140070566,0,-2,-1,-9,-2,-1,0,-2
1511885140070566,-3,-2,1,20,-5,0,-2,-1
1511885140086652,1,-1,-1,-6,-2,0,3,0
1511885140086652,-1,0,-6,0,-1,-1,3,3
1511885140088612,1,0,2,-3,-2,-2,-2,-2
1511885140088612,2,0,-2,-7,0,2,-3,0
1511885140100723,0,0,-2,5,-3,0,1,-3
1511885140100723,0,0,4,-5,-4,-2,-1,-4
1511885140109768,0,1,-2,3,0,0,-1,-1
1511885140109768,-1,-2,-1,-2,7,-3,-8,1
1511885140123826,-2,-1,0,2,-3,-2,3,1
1511885140123826,0,1,7,-3,0,-1,-1,-1
1511885140130822,-2,-3,-18,-1,-2,-3,-1,-2
1511885140130822,-2,-1,-1,-1,-1,0,-1,-2
1511885140146890,1,-1,-2,0,-1,0,-2,-2
1511885140146890,-1,-3,12,-7,-3,-2,1,1
1511885140148859,-2,-1,-9,3,-1,-2,1,-1
1511885140148859,-2,1,0,-5,-2,2,2,0
1511885140160887,1,-2,-4,0,2,0,-1,1
1511885140160887,-1,1,-1,3,4,-1,-1,-2
1511885140169912,0,-2,3,3,-2,1,-2,-1
1511885140169912,-2,-1,0,-4,-2,-1,-2,-1
1511885140183949,0,1,-1,-1,-3,2,1,-1
1511885140183949,0,-1,-4,3,-4,0,0,-2
1511885140190993,-1,-1,3,-3,-1,-1,0,0
1511885140190993,1,2,-4,4,0,-2,0,-2
1511885140207049,-1,-1,-2,-4,-1,0,0,2
1511885140207049,-1,0,-4,-2,3,4,0,0
1511885140208011,0,0,3,-5,-6,-2,-1,0
1511885140208011,-2,-2,3,-1,-4,-1,1,0
1511885140220084,-1,1,-1,5,-3,-2,-6,1
1511885140220084,-1,-6,-8,-3,0,-1,-9,0
1511885140229090,1,2,-7,2,0,1,3,0
1511885140229090,2,1,6,3,0,-2,-2,1
1511885140244133,0,-5,-2,-4,-3,2,2,-2
1511885140244133,-3,5,11,2,-1,-1,0,0
1511885140250245,0,-3,-9,-17,-4,-1,-1,0
1511885140250245,0,-5,-2,12,0,0,1,-1
1511885140267265,-3,-1,-1,-7,5,1,-1,0
1511885140267265,0,1,-2,6,2,1,3,-2
1511885140268172,0,0,5,5,-3,-2,-1,-1
1511885140268172,-3,-2,-3,-14,-1,0,0,0
1511885140280203,0,2,4,5,1,-6,0,1
1511885140280203,-1,-3,-3,-7,-4,-1,0,-1
1511885140289224,-1,-3,-1,1,-2,-1,3,-1
1511885140289224,1,2,-2,-4,-2,1,-1,1
1511885140303516,-3,-1,1,8,1,-6,-2,-1
1511885140303516,0,2,-3,-5,-7,-3,-2,-2
1511885140310677,0,0,10,11,0,-1,-3,-3
1511885140310677,0,0,-8,-4,0,-2,2,-3
1511885140326773,0,-3,-2,-10,-1,3,1,-2
1511885140326773,-3,0,1,3,-1,0,0,0
1511885140328730,-2,-3,2,-1,0,3,4,2
1511885140328730,0,-2,3,2,-5,0,-2,-1
1511885140340760,1,1,1,-3,-1,1,-4,-2
1511885140340760,-3,-3,-10,12,9,1,2,-1
1511885140349786,0,0,0,-6,0,0,-5,-2
1511885140349786,2,3,0,-3,3,0,-2,-1
1511885140364064,0,0,-2,3,-1,-2,0,-4
1511885140364064,-1,-1,1,-4,-5,0,-1,0
1511885140369979,0,-1,2,3,3,-2,0,0
1511885140369979,-3,-4,-6,-16,-1,-1,-2,0
1511885140387149,0,-1,1,0,-4,0,2,-1
1511885140387149,-1,2,13,12,-5,-3,0,-1
1511885140388091,-1,-1,-3,2,0,3,-2,1
1511885140388091,-2,1,3,-2,0,-3,2,0
1511885140400056,1,-2,-2,-11,-3,-3,-1,2
1511885140400056,-2,-2,-1,-1,2,0,2,-2
1511885140409110,-2,-3,2,-2,-1,0,0,0
1511885140409110,0,-1,-1,-1,-2,-2,-3,-1
1511885140424122,-3,-1,-2,6,0,0,-8,-4
1511885140424122,5,0,-4,-6,-1,-4,6,-1
1511885140430273,1,1,1,-1,-2,-1,-5,-1
1511885140430273,0,-3,-2,3,0,-2,1,-1
1511885140447182,-3,3,1,3,2,-1,-4,-1
1511885140447182,-1,0,-1,2,3,-1,-3,2
1511885140448188,0,1,2,-3,-1,-2,0,0
1511885140448188,-3,-3,1,5,8,4,2,-3
1511885140460215,0,-1,3,-1,-3,2,0,2
1511885140460215,0,1,-6,-5,-4,0,-2,1
1511885140469241,-3,-1,-2,0,6,-1,1,-1
1511885140469241,1,2,3,1,-2,4,3,-1
1511885140483429,1,-1,-1,-1,-2,-6,-2,1
1511885140483429,-3,-3,-4,-3,3,2,-3,0
1511885140490447,-1,2,5,1,1,-2,-1,-1
1511885140490447,1,-1,-4,-4,-9,-5,0,-1
1511885140506605,0,-2,-6,5,4,-1,0,-1
1511885140506605,-1,-2,0,-10,-8,-3,0,-2
1511885140508497,1,-1,1,-8,1,0,-2,1
1511885140508497,0,-1,3,3,2,-2,-2,-1
1511885140520530,0,0,-6,-2,0,2,3,0
1511885140520530,-3,-2,1,1,1,0,-4,0
1511885140529699,1,1,-4,3,0,-2,0,0
1511885140529699,0,-1,5,-2,1,-1,-1,0
1511885140543736,-1,0,2,-1,-2,2,8,-3
1511885140543736,3,-2,-4,-4,-2,-1,-3,-1
1511885140550767,0,0,1,1,2,-3,-1,0
1511885140550767,-1,0,-5,1,-1,1,0,0
1511885140566950,-5,0,4,1,-2,-1,-2,1
1511885140566950,-1,1,-3,0,4,-2,-3,0
1511885140567952,-2,1,-2,1,-3,-1,7,-1
1511885140567952,-1,2,-5,-4,-8,1,-3,-2
1511885140581012,0,0,1,4,5,-1,-1,1
1511885140581012,-1,-1,-1,-4,-5,-1,-1,-2
1511885140589154,1,0,-3,-6,-1,1,-3,0
1511885140589154,-3,-3,1,1,5,0,0,2
1511885140603194,1,0,-3,-3,-3,0,-1,-1
1511885140603194,0,-3,-7,3,2,0,1,-1
1511885140610211,0,0,10,2,-5,0,-3,-1
1511885140610211,0,6,-7,-10,5,-3,-1,1
1511885140626256,-2,-7,5,9,2,-1,-2,-2
1511885140626256,1,-1,1,0,1,1,1,0
1511885140633461,-1,0,-2,3,0,-3,-2,1
1511885140633461,-2,-2,1,-7,-5,-3,0,-1
1511885140640320,2,-1,-4,-5,-2,0,-1,0
1511885140640320,1,3,1,1,-1,-1,3,0
1511885140649313,-3,-2,1,0,1,0,1,-2
1511885140649313,2,-3,-1,4,-2,-2,-2,0
1511885140663529,2,3,1,-3,8,-1,-1,0
1511885140663529,-1,0,-1,-1,-3,-1,-7,-1
1511885140670394,-2,-2,-1,0,0,0,0,-1
1511885140670394,2,-1,1,0,-3,1,-1,1
1511885140686416,0,0,2,-3,-4,-1,1,-2
1511885140686416,-1,0,2,-4,0,1,-1,-1
1511885140692433,0,-1,-3,5,0,-2,-2,-1
1511885140692433,-2,-1,0,-2,5,-1,-3,1
1511885140700571,0,1,-3,16,3,0,0,-1
1511885140700571,-1,4,4,-8,-3,-1,2,-1
1511885140709479,0,-3,-1,-2,-3,-1,1,1
1511885140709479,-1,0,-5,-2,-2,0,0,-1
1511885140723552,1,0,-1,-4,-2,-1,-2,2
1511885140723552,1,-2,1,5,0,-3,-2,1
1511885140730575,-2,0,0,-3,-4,0,-2,0
1511885140730575,-1,-3,4,4,3,0,-1,-1
1511885140746612,-2,-4,-1,-4,-3,-2,-3,0
1511885140746612,-1,1,-3,4,3,-1,0,-2
1511885140752594,-1,-2,1,-4,1,-1,-2,0
1511885140752594,0,1,-2,2,-1,2,2,-1
1511885140769663,-1,0,-1,-6,-5,-1,0,0
1511885140769663,-1,-2,0,-7,-1,-2,8,0
1511885140770637,-1,-2,3,1,1,3,2,-1
1511885140770637,-1,-1,-5,6,2,-1,-1,-3
1511885140783684,-1,-1,-3,1,-1,2,-1,-1
1511885140783684,-1,0,8,-5,-1,-1,-4,2
1511885140790693,0,1,-5,-3,-2,1,-2,-1
1511885140790693,-1,-2,2,-1,-2,-2,1,0
1511885140805772,-1,-2,1,-4,1,-2,0,0
1511885140805772,1,-3,5,4,-2,-1,-2,0
1511885140812794,-1,4,-3,-9,-1,-2,-2,-1
1511885140812794,0,0,2,16,-1,0,-1,-2
1511885140828833,-1,1,-2,-7,-1,-2,0,-1
1511885140828833,1,0,-3,4,-2,0,0,0
1511885140830802,3,-3,0,-4,-2,-4,1,-1
1511885140830802,-1,0,-6,-8,-4,-1,-1,-1
1511885140843839,-1,2,-2,3,2,1,-2,-2
1511885140843839,-1,-2,-5,1,2,1,-2,0
1511885140850854,0,1,2,-2,2,-1,-3,0
1511885140850854,0,1,-1,0,-2,-5,-1,-1
1511885140865894,0,-1,1,0,0,0,1,1
1511885140865894,0,-2,-4,1,1,-2,-5,-1
1511885140872913,-1,1,2,3,-1,0,1,1
1511885140872913,-2,-2,1,-2,0,0,-4,-2
1511885140889146,-2,1,0,-4,-2,1,1,-1
1511885140889146,-1,-2,-4,-4,-5,-1,-1,-2
1511885140890957,1,-3,0,2,1,1,-2,-1
1511885140890957,0,-1,-1,-3,-1,0,0,3
1511885140904136,-1,-2,1,-2,0,-3,-1,-2
1511885140904136,-4,-2,-4,0,1,0,-1,0
1511885140910294,0,-3,-2,3,0,0,4,-4
1511885140910294,0,0,3,0,-5,2,-1,-2
1511885140926523,-1,0,-4,2,2,2,-1,1
1511885140926523,0,1,-2,-4,-2,0,-1,-1
1511885140932483,-1,1,-2,-2,4,2,1,1
1511885140932483,-1,-1,-2,-6,-2,2,1,1
1511885140949401,0,-1,2,-8,-2,-1,0,-2
1511885140949401,-1,0,-1,7,0,1,0,-3
1511885140950405,-1,-2,0,19,-3,0,-2,-1
1511885140950405,-1,0,-5,-7,-1,3,2,0
1511885140963544,3,-2,2,1,0,-1,2,-2
1511885140963544,-2,0,-1,-14,-4,-1,-2,-1
1511885140970471,-3,-3,2,-4,2,-2,-2,0
1511885140970471,-1,-1,2,6,0,1,-1,-1
1511885140986587,1,1,-4,-16,-5,-1,-3,1
1511885140986587,0,0,2,4,-1,0,0,1
1511885140992610,-2,2,-10,-5,1,-1,2,1
1511885140992610,-1,-4,1,0,2,-1,-2,-2
1511885141009627,-2,0,2,2,0,-2,3,-1
1511885141009627,1,-1,3,6,8,-2,0,-2
1511885141010562,2,1,-3,-1,-1,-2,-1,2
1511885141010562,0,0,3,-3,-2,-2,-3,1
1511885141023646,-2,-2,-3,3,-5,-1,-2,-1
1511885141023646,-2,-1,2,3,-3,-1,2,-1
1511885141030667,-2,0,1,-3,-1,-2,-1,-2
1511885141030667,1,2,1,-3,-1,-2,-7,1
1511885141045706,1,-2,4,7,2,-3,0,0
1511885141045706,-1,-4,-4,5,3,-1,2,2
1511885141052676,0,0,-2,-9,-5,0,0,-1
1511885141052676,-1,-2,-4,-6,-1,-2,0,-2
1511885141068715,2,0,-3,3,-2,-2,-3,1
1511885141068715,0,-1,1,-19,-3,-2,-1,0
1511885141070721,-1,0,-2,26,1,3,-1,-1
1511885141070721,-4,-2,2,-4,-1,-1,0,-1
1511885141083902,1,-1,3,-3,5,-3,2,1
1511885141083902,0,-2,-7,3,-6,0,-1,0
1511885141090899,1,-2,3,-10,5,-1,-1,-1
1511885141090899,0,1,-2,3,-1,1,-1,0
1511885141106038,-2,-4,-5,2,-1,0,-1,-2
1511885141106038,0,0,-3,-4,-1,-2,-2,-1
1511885141113139,-1,-1,9,0,-5,-1,-1,0
1511885141113139,-2,-2,-8,-1,-1,-4,2,-3
1511885141129100,-1,-4,-1,3,1,1,0,-1
1511885141129100,2,-2,3,-2,-3,2,0,-3
1511885141131062,0,0,-4,3,5,-1,-1,-2
1511885141131062,0,-2,-3,0,2,-1,2,1
1511885141144097,0,2,-4,0,0,-3,-2,-2
1511885141144097,1,3,-4,14,-4,-1,1,-1
1511885141150117,-1,-3,7,-18,-5,2,-3,0
1511885141150117,2,-2,-10,-1,0,-1,0,1
1511885141166180,-3,1,0,-6,-5,-2,-2,1
1511885141166180,-3,-2,3,23,5,0,-2,-1
1511885141180237,-2,-3,-12,-7,-3,-1,-1,0
1511885141180237,-2,0,13,3,1,2,2,-1
1511885141189219,0,-1,5,-6,-2,0,0,0
1511885141189219,0,1,-5,-16,-1,1,-1,0
1511885141191225,2,-2,3,9,-3,-3,1,-2
1511885141191225,-1,0,-3,-2,0,0,1,-3
1511885141203325,0,-1,-2,1,-3,2,0,1
1511885141203325,-1,0,1,-2,-2,-3,0,-1
1511885141212305,0,1,-6,1,0,-1,0,-1
1511885141212305,0,1,1,0,0,2,-2,-1
1511885141226319,-1,0,-5,4,1,0,-1,0
1511885141226319,0,0,-2,-4,4,-1,-4,2
1511885141232586,0,0,-2,-9,-7,-2,0,1
1511885141232586,-1,-3,-3,-1,3,-3,-1,-1
1511885141249630,-2,0,3,-4,-2,0,-4,-2
1511885141249630,-3,-3,-5,4,9,1,0,-2
1511885141250634,-1,3,2,2,9,3,-1,-1
1511885141250634,-1,2,3,0,-7,0,-1,1
1511885141262852,0,-1,-1,3,0,0,-1,-2
1511885141262852,1,1,0,-6,-9,0,-1,0
1511885141271689,-3,-4,6,-8,-5,0,-2,-2
1511885141271689,-2,0,-19,0,3,-1,-3,1
1511885141285894,-2,-2,3,17,-1,-3,-1,-2
1511885141285894,-1,0,6,-2,-3,1,-1,0
1511885141292910,-2,-3,-8,-1,-4,-2,0,-2
1511885141292910,1,1,4,-5,-5,1,0,-1
1511885141309106,-1,-4,-9,4,17,2,1,-1
1511885141309106,1,-1,2,-4,-6,0,0,0
1511885141310945,-1,-2,-4,3,4,-2,0,0
1511885141310945,-3,1,10,-5,-6,-5,-2,-2
1511885141323061,1,-2,-5,0,-2,3,-1,-1
1511885141323061,-1,-1,1,-5,-1,-3,2,-2
1511885141331973,2,3,-2,1,4,-1,3,1
1511885141331973,-1,-4,0,10,4,4,0,-4
1511885141346118,-1,4,-3,-9,-5,-2,-3,0
1511885141346118,0,-3,0,-1,-7,0,-3,-1
1511885141353035,-3,0,5,0,-6,-1,-6,-3
1511885141353035,-2,-2,-8,2,-3,-2,4,-1
1511885141369074,1,0,2,0,-1,-5,-1,2
1511885141369074,-3,3,-6,-13,2,5,2,-2
1511885141371081,-2,-1,4,-1,4,2,0,-2
1511885141371081,1,1,3,6,19,1,-2,1
1511885141391256,0,-3,-3,2,-6,-3,1,1
1511885141391256,0,-1,-1,7,-1,-1,2,2
1511885141392219,-1,-1,-1,-13,-4,-2,-3,0
1511885141392219,-1,-3,1,-1,-3,-4,-1,-3
1511885141407261,-1,1,4,-6,-8,-6,-3,-2
1511885141407261,2,-1,-3,-2,-2,-1,-6,-2
1511885141413306,0,-4,-4,2,1,9,12,1
1511885141413306,1,-2,1,-7,1,1,12,0
1511885141428439,-2,0,0,5,-2,-4,-1,0
1511885141428439,0,2,0,5,0,-3,-2,-2
1511885141429316,-1,0,1,-3,-4,-5,-5,0
1511885141429316,0,0,0,-4,-8,-5,-2,0
1511885141451478,-2,0,-4,-14,-9,1,5,-2
1511885141451478,0,-2,2,16,1,-2,-5,-2
1511885141451478,2,-1,-5,-11,-14,-6,-2,0
1511885141451478,-3,1,11,8,9,5,-2,0
1511885141466415,0,-1,-6,-6,-6,1,-1,-2
1511885141466415,-1,-2,1,14,-2,2,-2,-1
1511885141472434,-3,1,-3,14,-6,0,-1,-2
1511885141472434,-2,-1,4,-9,-2,-1,-4,-2
1511885141488473,1,-1,1,-11,-2,3,-2,-2
1511885141488473,-2,-2,1,-28,5,-3,1,0
1511885141489476,-2,-3,-1,41,1,-3,-1,0
1511885141489476,0,0,-19,-29,-5,-4,-4,-1
1511885141511536,-1,2,11,-12,5,5,1,-1
1511885141511536,-1,-5,-8,16,-1,0,1,1
1511885141511536,3,-1,3,5,5,-3,-1,1
1511885141511536,-1,0,-2,-2,-2,2,-3,0
1511885141526588,1,1,-1,8,6,4,1,1
1511885141526588,-1,1,-2,-17,2,-2,-1,0
1511885141532594,3,2,2,-5,-1,-3,-5,-2
1511885141532594,-1,-4,-9,6,0,0,5,0
1511885141547751,-2,-3,2,21,3,0,7,-1
1511885141547751,-1,4,2,-9,-2,-2,0,0
1511885141555655,-3,0,-4,4,3,3,-1,-2
1511885141555655,2,-2,5,-8,-5,0,-4,1
1511885141570734,-1,2,0,2,3,-3,-4,-1
1511885141570734,-1,-4,-10,2,0,-1,1,0
1511885141571699,-2,2,0,-27,-4,0,2,-2
1511885141571699,0,0,-1,11,-1,0,-3,-1
1511885141586739,0,0,3,-1,-2,2,-1,-2
1511885141586739,-1,0,-8,11,2,-1,-1,-1
1511885141592877,1,0,3,-20,2,1,-3,-3
1511885141592877,-2,-2,-10,6,-1,-3,-1,-2
1511885141607993,0,2,5,8,0,-3,-9,1
1511885141607993,1,0,5,-3,-2,0,15,2
1511885141615813,-1,-4,-3,7,4,0,-8,-1
1511885141615813,-1,0,3,-9,-3,4,-5,-2
1511885141630852,-2,-4,-2,-4,0,-5,15,1
1511885141630852,0,1,2,5,3,2,16,2
1511885141631855,-1,-2,0,1,1,-4,-18,-3
1511885141631855,3,2,11,0,-1,1,5,-2
1511885141646896,-2,-5,-14,-7,-1,-3,-30,-5
1511885141646896,-3,6,13,2,-1,2,16,0
1511885141652935,-1,-3,-6,-5,-3,-3,10,1
1511885141652935,1,1,7,6,0,0,-5,0
1511885141668076,1,-4,-11,-4,0,1,-5,-1
1511885141668076,-2,-3,0,-4,-1,-1,-8,-2
1511885141675081,-2,-2,-3,0,1,-1,9,0
1511885141675081,-1,5,4,5,-2,-4,-7,3
1511885141691209,-1,-1,0,2,2,3,10,2
1511885141691209,5,-5,-6,-5,1,-4,-3,2
1511885141692016,-6,1,5,-1,-2,2,-18,-6
1511885141692016,-1,-2,-7,2,-1,6,27,2
1511885141707055,1,-1,-2,-4,-2,-2,14,0
1511885141707055,8,1,0,-4,-2,-5,-15,0
1511885141713170,2,-4,-4,2,0,2,1,3
1511885141713170,-7,-1,3,-1,-2,-3,-12,-4
1511885141728290,-2,-1,1,1,1,-2,-2,-1
1511885141728290,-1,2,4,-1,-5,-4,-45,-4
1511885141735133,-2,-2,-4,0,0,-1,40,2
1511885141735133,2,0,-1,0,1,0,-15,0
1511885141751313,-1,1,3,-2,0,2,-5,0
1511885141751313,-5,-2,1,1,3,2,8,-2
1511885141752326,-3,2,-2,-2,-4,-4,-19,-3
1511885141752326,3,-2,-2,4,5,0,10,-3
1511885141766487,-1,-1,3,-1,-5,-6,2,3
1511885141766487,-5,-5,-4,-4,0,3,1,0
1511885141773508,2,0,-1,1,0,-6,-6,-1
1511885141773508,-1,-2,-1,-3,-5,4,-20,-1
1511885141787587,1,2,0,1,11,2,26,1
1511885141787587,0,-2,-2,-1,-3,-1,-6,-2
1511885141795798,0,1,1,1,1,-5,6,1
1511885141795798,-5,0,-5,-2,-10,-4,-15,-4
1511885141810709,-3,1,3,4,11,4,-14,-2
1511885141810709,0,2,-3,-12,-9,-2,6,2
1511885141811708,-4,-1,1,26,10,8,1,-4
1511885141811708,2,0,6,-16,-2,-3,11,1
1511885141826747,0,-1,-1,18,-18,-2,-13,-1
1511885141826747,1,-1,-1,19,17,4,5,0
1511885141832760,2,1,4,-17,-7,2,-3,-1
1511885141832760,-2,-1,-2,1,-7,-6,-1,-5
1511885141847989,-3,-4,-2,13,21,6,0,-1
1511885141847989,0,0,-2,-18,-14,-4,22,-1
1511885141854983,-3,2,0,40,11,0,-10,-1
1511885141854983,5,-1,-5,-23,-1,1,13,3
1511885141871164,3,1,7,-5,-7,-5,0,0
1511885141871164,-3,-3,-2,-4,-1,2,-6,-2
1511885141872167,-2,-5,-6,-12,-1,-3,5,-1
1511885141872167,0,1,-4,1,-13,-8,-4,1
1511885141887350,-2,1,0,3,20,10,-6,-4
1511885141887350,-5,-2,-1,-13,-6,5,-7,1
1511885141892363,2,2,6,-13,-14,-5,4,-1
1511885141892363,2,1,-3,15,7,2,1,3
1511885141908403,0,-5,9,-45,-23,-8,-6,-2
1511885141908403,-1,3,-4,58,17,0,-4,-1
1511885141915424,2,1,12,-44,-5,-1,-13,0
1511885141915424,-4,-4,-3,16,6,0,34,0
1511885141931580,-1,7,0,-13,-7,1,2,-2
1511885141931580,0,-3,-3,-10,-5,2,8,0
1511885141931580,-2,-1,1,0,-4,0,-14,-1
1511885141931580,-1,1,1,2,8,-1,-4,0
1511885141947518,0,-2,-13,2,-5,-3,6,-1
1511885141947518,1,-1,11,-8,-2,-5,4,1
1511885141952521,0,-3,-15,15,5,9,17,2
1511885141952521,2,-2,7,-11,-3,1,3,1
1511885141967564,-2,1,-5,-3,-4,-6,-6,-1
1511885141967564,-1,1,5,4,1,5,4,-2
1511885141975701,2,-5,-9,-1,-1,-2,-17,-1
1511885141975701,-3,-3,2,-4,2,-3,-4,-3
1511885141990747,-2,0,-5,12,-3,-2,-5,-2
1511885141990747,3,0,6,4,-1,-10,16,2
1511885141991624,0,9,-1,-13,-1,5,5,-1
1511885141991624,-1,-13,-8,4,1,0,-6,1
1511885142006664,-2,2,9,-3,0,-3,-9,-2
1511885142006664,-5,1,-20,-7,-2,-1,-17,-2
1511885142012785,2,-4,1,3,1,-3,11,1
1511885142012785,-3,2,7,6,3,5,-4,-4
1511885142027823,1,1,-4,-4,-2,-1,-1,-2
1511885142027823,2,-13,11,5,0,1,-3,-1
1511885142035916,0,-2,-1,-12,-3,-3,0,1
1511885142035916,-1,1,-1,1,3,1,-4,-3
1511885142051036,1,-4,4,4,-1,1,5,1
1511885142051036,1,4,-4,-3,1,-2,-3,-2
1511885142051935,-5,-2,6,-2,0,-1,-4,-3
1511885142051935,-2,-11,-13,2,0,-5,-8,0
1511885142066974,-2,2,1,3,1,4,11,1
1511885142066974,1,5,1,-10,-3,-2,-9,1
1511885142072995,-5,1,8,5,3,2,-2,-1
1511885142072995,2,1,-2,3,-1,-5,3,-2
1511885142088126,-1,-2,-1,3,1,4,-7,0
1511885142088126,-1,-3,-7,-6,0,2,10,-2
1511885142095137,-1,-3,-15,2,-2,0,1,0
1511885142095137,-1,7,-3,0,0,0,-5,0
1511885142111093,0,-4,-7,1,-1,0,3,0
1511885142111093,-1,2,7,-2,-4,-3,-8,-1
1511885142112095,0,1,-2,-1,-1,-1,3,1
1511885142112095,-2,2,6,-1,0,-1,2,-2
1511885142127135,1,2,-9,0,-3,0,-1,0
1511885142127135,0,0,0,6,0,-3,-5,0
1511885142133150,3,-5,-1,-3,-3,-4,3,0
1511885142133150,1,5,-11,2,3,1,-1,1
1511885142148374,-4,-7,13,-2,-2,-2,1,-1
1511885142148374,-2,-3,6,0,-2,4,-4,-4
1511885142155212,-1,2,-12,3,1,-2,-2,0
1511885142155212,-1,1,5,-1,-2,0,-4,-2
1511885142171349,0,-3,-2,0,-3,-5,-1,2
1511885142171349,1,2,-11,-7,4,1,-2,-1
1511885142172279,-1,0,-2,1,-3,-2,1,-2
1511885142172279,0,-9,3,-3,2,2,0,2
1511885142187419,-2,2,2,-1,1,-2,1,-1
1511885142187419,3,3,-11,-5,-3,0,1,0
1511885142192599,-5,3,11,5,1,4,0,0
1511885142192599,2,4,-2,0,0,-1,-1,0
1511885142207479,0,-10,-7,-2,1,-1,0,-4
1511885142207479,-2,6,7,-5,2,-1,-3,0
1511885142215674,1,-5,-6,3,-1,-3,-2,-1
1511885142215674,-2,0,-2,-1,-4,-1,-1,3
1511885142230834,-3,4,-4,-1,4,0,-3,-8
1511885142230834,3,-4,-2,0,0,0,-3,2
1511885142231752,0,0,3,-2,1,-3,4,0
1511885142231752,-2,0,1,-1,0,1,-9,0
1511885142246934,2,-1,-4,-1,-1,-2,23,5
1511885142246934,-5,-1,-1,0,1,-4,-5,-6
1511885142252926,0,-3,-2,-3,-1,3,5,-2
1511885142252926,-3,1,3,1,-2,-1,-8,-2
1511885142268969,7,1,1,1,-3,-2,-12,1
1511885142268969,-4,-4,-2,2,-1,4,22,0
1511885142274988,2,3,6,0,-2,-6,-29,2
1511885142274988,-6,0,-4,-1,2,8,17,-5
1511885142291071,-2,1,0,-1,0,-4,-3,0
1511885142291071,7,-1,-1,-2,-2,3,4,-1
1511885142292064,-4,1,0,-1,-1,-2,-3,3
1511885142292064,-2,-2,2,1,0,0,10,-1
1511885142314088,2,0,-1,-4,-4,3,-2,2
1511885142314088,-2,-1,1,1,2,-2,-8,0
1511885142314088,0,-3,0,1,-2,1,6,1
1511885142314088,-5,-5,-4,-1,0,-4,-9,-7
1511885142329128,-3,0,0,2,1,-1,3,-4
1511885142329128,-4,-5,-3,-2,-2,-4,-6,-1
1511885142335148,0,1,-2,-1,0,2,0,-2
1511885142335148,0,0,-1,-1,-2,-1,-3,0
1511885142351190,-2,-4,4,-1,1,8,0,1
1511885142351190,1,3,-2,0,-3,-3,-6,0
1511885142352194,-6,-2,0,-2,0,-5,5,-1
1511885142352194,4,-1,-5,1,1,-2,-1,-1
1511885142373249,-1,-1,-8,-5,-3,-5,-4,0
1511885142373249,-2,0,4,3,-2,1,-9,0
1511885142374248,1,-3,-1,-4,-2,3,14,-2
1511885142374248,2,1,2,-2,-5,-3,-4,-1
1511885142389289,-1,0,0,-5,-1,-6,-4,0
1511885142389289,-6,-4,-3,2,-2,-2,0,2
1511885142395495,2,3,-8,2,-3,-4,-3,-1
1511885142395495,2,-1,8,-6,-8,-3,-3,0
1511885142411517,0,2,4,8,16,1,-2,-1
1511885142411517,1,-2,-2,-9,-8,-4,0,-2
1511885142412382,-1,-2,11,16,-7,4,-1,-2
1511885142412382,-2,-2,-7,-13,5,1,2,1
1511885142433406,-1,5,7,3,6,0,-4,0
1511885142433406,2,-2,-12,13,0,-6,-1,1
1511885142434408,-5,-2,5,16,-8,7,-2,-4
1511885142434408,-1,-5,-3,-5,-4,-1,-6,-3
1511885142456600,1,0,1,5,7,-2,1,-1
1511885142456600,-1,2,10,-25,8,3,1,-1
1511885142456600,4,-7,-14,-17,-2,-4,1,2
1511885142456600,-1,1,2,15,-8,2,-2,0
1511885142470504,-1,-1,7,22,-2,4,1,-3
1511885142470504,-1,2,-8,-27,-6,-2,-1,0
1511885142477701,-4,-6,-13,-7,10,-3,-3,0
1511885142477701,0,2,-4,9,-20,-7,-2,4
1511885142493566,-1,-5,-17,5,23,2,0,2
1511885142493566,-2,5,22,11,-1,6,-1,-1
1511885142494725,2,0,-6,-12,2,-4,-1,0
1511885142494725,0,-1,4,-19,-7,-6,0,-4
1511885142509609,-1,-1,2,26,2,2,-2,0
1511885142509609,1,-9,-9,-25,0,-2,-1,-1
1511885142515625,5,7,31,14,17,7,1,2
1511885142515625,1,-5,-29,2,-3,-6,1,1
1511885142530706,-2,-1,0,-14,-19,-2,0,-3
1511885142530706,-4,2,-5,5,5,-3,-2,-2
1511885142537726,0,2,8,-3,-11,-5,-3,-3
1511885142537726,3,3,9,-5,13,3,0,0
1511885142546797,0,2,1,-15,-17,-2,-1,-1
1511885142546797,1,-3,-8,27,20,-3,1,1
1511885142552926,-4,-1,-12,9,5,2,-2,-4
1511885142552926,-1,0,0,-9,-7,-2,-2,0
1511885142567853,-1,-1,-10,-24,1,-3,-3,-2
1511885142567853,-2,0,10,-26,-7,1,0,-2
1511885142575887,1,-1,-1,10,8,-3,0,1
1511885142575887,2,0,6,16,8,-2,4,2
1511885142590968,-2,-4,-9,-26,-5,3,0,-4
1511885142590968,-2,3,0,24,-4,-5,-2,-1
1511885142598116,3,-1,-6,-6,0,0,-2,1
1511885142598116,-2,0,-6,-21,0,0,-2,-1
1511885142613999,1,-1,0,26,-7,-5,1,0
1511885142613999,1,1,-4,-11,0,2,0,-2
1511885142613999,-6,-2,-4,7,-3,-2,-1,-4
1511885142613999,-2,1,11,5,1,3,-1,-5
1511885142628115,1,-1,-3,12,-4,-1,1,1
1511885142628115,-1,0,-6,-1,-2,-1,0,2
1511885142635129,-1,-6,1,-26,-3,2,-1,0
1511885142635129,-2,2,6,-4,2,0,-2,0
1511885142650167,1,6,1,-9,-2,-2,0,0
1511885142650167,1,-10,4,32,-6,0,0,-1
1511885142658091,-1,2,-6,-18,-1,-4,-2,-1
1511885142658091,-3,-5,10,8,5,-1,0,1
1511885142673453,0,-1,1,-12,-7,-3,-2,-2
1511885142673453,1,3,10,-20,-2,3,0,1
1511885142674347,1,-2,-4,19,-2,-1,0,-2
1511885142674347,3,3,-1,-10,3,-1,-1,0
1511885142689387,-1,-5,0,13,0,1,-2,-1
1511885142689387,-4,2,-7,-3,-3,-2,-2,1
1511885142695585,-2,-1,-9,-22,0,-2,0,0
1511885142695585,1,-2,14,36,2,-1,-3,1
1511885142732625,-1,-1,-4,-3,0,0,-2,0
1511885142732625,-3,-3,-5,1,0,1,-2,-4
1511885142741554,0,2,5,-15,-3,0,2,-3
1511885142741554,-1,-4,-5,-2,1,0,-1,0
1511885142756691,-3,1,2,-5,-2,-2,0,-2
1511885142756691,2,-1,5,15,0,-2,0,2
1511885142758570,-3,-3,-6,12,3,2,-1,0
1511885142758570,-1,-3,-2,-7,-4,-3,3,0
1511885142771608,2,4,5,-23,1,-3,-1,0
1511885142771608,2,-2,-3,-14,-2,-3,1,-2
1511885142773610,1,-2,-1,45,-1,1,-1,-2
1511885142773610,-1,-2,2,-12,5,3,-2,-3
1511885142785646,1,0,-7,-4,-4,-2,-3,0
1511885142785646,-1,-2,-4,2,-1,5,-2,-4
1511885142794666,-2,1,7,-11,-4,-1,-4,-1
1511885142794666,0,0,-2,-1,0,4,-3,-1
1511885142808820,0,-5,1,8,-1,7,-2,-1
1511885142808820,-2,4,-3,1,2,4,-1,-3
1511885142810710,-2,-2,-2,-7,-1,7,-2,-2
1511885142810710,-9,3,-2,5,0,9,-2,-4
1511885142815860,-6,0,-2,-1,-1,2,0,-4
1511885142815860,-3,-8,-11,2,0,7,-2,-1
1511885142816862,-2,8,-9,-1,-4,5,0,-2
1511885142816862,-6,4,2,-1,-3,4,-1,-4
1511885142829980,-5,-17,0,4,3,5,-3,-2
1511885142829980,-3,-3,12,1,-2,5,0,-2
1511885142837927,-4,1,0,-4,-1,7,-4,-2
1511885142837927,-4,-1,-20,0,1,6,-3,-4
1511885142853964,-2,2,-9,-2,-6,-1,-1,0
1511885142853964,-2,2,3,4,-3,2,-1,-2
1511885142853964,2,-5,7,8,3,-1,2,0
1511885142853964,-1,-9,-29,2,4,0,-2,-1
1511885142869004,2,1,18,-1,0,-4,0,-1
1511885142869004,-1,-1,-4,-7,-5,-2,-1,-2
1511885142875352,0,5,3,1,-6,-4,-2,0
1511885142875352,1,0,-2,-5,-3,2,0,0
1511885142890288,0,4,11,4,4,4,-1,-2
1511885142890288,-1,-8,-17,-8,-2,-4,0,-2
1511885142898219,2,6,1,1,-2,2,-1,1
1511885142898219,-1,-4,17,1,-2,-4,-1,-2
1511885142913438,-1,0,-9,-3,-3,2,-2,-2
1511885142913438,1,1,19,5,0,1,-2,1
1511885142914260,-1,-4,-27,1,2,-2,-2,-2
1511885142914260,1,2,10,-5,-5,-4,-1,-2
1511885142929299,-2,-6,-6,2,3,0,1,-2
1511885142929299,-1,10,0,1,3,-1,0,-3
1511885142935318,-2,-8,4,-11,-6,0,0,1
1511885142935318,-2,6,25,0,0,2,0,0
1511885142950358,0,-8,-44,21,-10,-4,-1,2
1511885142950358,0,2,1,14,23,6,-2,-1
1511885142957374,0,-1,-3,-15,-8,-3,3,-1
1511885142957374,1,0,-2,-17,3,-1,0,-1
1511885142973529,-1,5,13,-2,3,-3,-2,-2
1511885142973529,-3,-3,-9,5,-4,-3,0,-1
1511885142974419,0,1,6,-9,1,0,1,-1
1511885142974419,2,-2,-2,8,-1,0,0,1
1511885142989589,0,3,6,-5,-4,2,0,-2
1511885142989589,-3,-11,-10,-4,-5,-3,-1,-2
1511885142995807,-1,-2,13,4,1,-3,-2,-1
1511885142995807,0,0,-12,-4,-2,-3,0,0
1511885143010764,-2,3,-1,3,2,2,-2,1
1511885143010764,0,-1,8,-9,-3,-2,1,0
1511885143017870,-3,-3,-7,-9,3,3,-3,-2
1511885143017870,1,-3,-8,10,0,-1,0,1
1511885143034105,-3,1,7,-8,-1,-3,2,0
1511885143034105,0,0,-2,0,-2,-3,0,-2
1511885143034105,-1,-4,-4,0,1,-1,0,0
1511885143034105,-1,1,7,-2,0,-4,0,-1
1511885143049152,0,2,4,-21,1,1,2,1
1511885143049152,0,2,-9,24,-7,-2,-1,0
1511885143055138,0,1,-5,-1,2,-1,1,1
1511885143055138,-1,2,7,-8,-3,2,-1,1
1511885143070216,-2,-13,1,-7,4,0,-1,0
1511885143070216,-2,2,3,6,1,1,0,1
1511885143078408,1,-1,1,2,-10,-4,-2,-2
1511885143078408,-1,-1,-15,8,1,-2,-3,-1
1511885143093421,1,0,10,-27,-11,-4,0,1
1511885143093421,-1,-2,-4,-10,-2,0,-2,-1
1511885143094536,0,-2,6,5,0,0,2,2
1511885143094536,1,2,-5,11,1,-1,1,0
1511885143109469,-1,3,13,3,-1,-1,-3,-2
1511885143109469,1,-2,-5,-5,-1,-5,-1,-1
1511885143115487,0,4,3,-5,-4,-1,-2,0
1511885143115487,-2,-6,1,8,0,-3,-1,-1
1511885143130521,-2,3,-7,17,-2,-1,1,-3
1511885143130521,1,3,-1,-14,-6,-1,0,0
1511885143137541,-3,-1,0,4,2,0,1,-1
1511885143137541,1,4,3,-7,1,0,1,0
1511885143153581,0,-8,-11,-7,-2,2,-4,0
1511885143153581,0,2,6,29,-1,-1,-2,-1
1511885143154584,-1,-2,-3,-13,2,1,-2,-3
1511885143154584,0,-4,-6,4,1,2,-1,0
1511885143169627,-4,0,2,13,-4,-1,0,0
1511885143169627,-1,-1,-10,-22,1,2,-1,1
1511885143175643,-1,-3,0,10,6,0,-1,0
1511885143175643,0,-2,-5,-7,-2,-2,1,-2
1511885143190792,0,1,0,9,1,-2,1,1
1511885143190792,-2,-9,-16,-12,-1,1,-1,-2
1511885143197804,0,0,6,6,4,1,0,0
1511885143197804,0,-2,-2,-2,-5,-1,-1,0
1511885143213741,-2,0,0,-3,1,-2,-3,-2
1511885143213741,-1,-1,11,5,1,-2,-1,-5
1511885143214838,0,0,-9,-14,-8,-1,0,-1
1511885143214838,-2,0,-1,-8,-1,0,0,-3
1511885143229785,2,2,0,12,5,2,-2,2
1511885143229785,0,3,7,-4,-8,-1,1,3
1511885143235871,0,0,-3,26,1,2,-2,-3
1511885143235871,-1,-3,0,-8,0,-1,2,-1
1511885143250846,0,1,-7,-12,-5,-5,0,-1
1511885143250846,-2,6,7,-4,2,1,-3,1
1511885143257983,-2,-8,10,2,0,-3,-1,-2
1511885143257983,-1,1,-9,-9,-1,-2,-8,1
1511885143274006,-2,1,-3,2,2,0,5,-3
1511885143274006,-1,-1,-1,-4,0,0,-2,0
1511885143274006,-1,-4,1,-1,1,-1,0,0
1511885143274006,0,1,1,4,2,-1,-2,-2
1511885143289073,-1,-4,-2,-4,-3,0,-1,-1
1511885143289073,2,-1,-1,1,0,-3,-2,-1
1511885143294964,-3,-2,-3,-5,-3,-2,-1,-1
1511885143294964,0,-3,-10,-1,-5,1,3,-2
1511885143310005,0,-4,-1,-2,10,2,-1,0
1511885143310005,1,-2,1,4,-9,-1,0,0
1511885143318024,0,1,0,0,9,2,0,0
1511885143318024,-2,-2,3,2,-5,3,0,2
1511885143333063,-1,3,0,0,-1,0,-1,-2
1511885143333063,-2,-3,-7,-5,-1,-2,0,-1
1511885143334068,0,-2,-5,-16,-2,0,-1,0
1511885143334068,-1,0,12,4,4,-1,0,0
1511885143349101,2,10,-7,10,-6,-5,0,0
1511885143349101,-5,-16,-1,2,4,1,1,0
1511885143355120,0,6,1,1,-2,-1,-1,-2
1511885143355120,0,1,2,-7,2,-4,1,-2
1511885143370181,-1,-2,0,-7,-3,3,-2,0
1511885143370181,-3,-2,-1,3,2,2,0,0
1511885143378290,-2,3,-3,-4,-2,-1,-1,1
1511885143378290,-2,-3,6,2,-2,1,0,-1
1511885143393372,1,-1,-6,-6,-2,-1,-1,0
1511885143393372,0,3,7,2,3,-2,0,-1
1511885143394321,1,-3,-1,2,-4,-1,0,0
1511885143394321,2,3,-1,1,1,-3,1,-1
1511885143409360,-2,-1,3,4,2,-1,-1,-1
1511885143409360,-2,1,-8,-4,0,-1,-1,0
1511885143415555,-2,1,-2,2,-3,1,-1,0
1511885143415555,0,-1,-6,1,0,-2,-3,-1
1511885143430832,0,-3,3,-3,3,-3,2,-2
1511885143430832,0,0,-9,6,7,2,-1,-2
1511885143437826,0,-2,-3,-7,-3,-3,1,3
1511885143437826,-2,1,3,-5,-4,1,-2,-3
1511885143452866,-2,0,-3,3,-2,2,1,-1
1511885143452866,1,6,8,10,-5,-5,-1,-3
1511885143459888,2,3,4,1,-4,-1,0,-2
1511885143459888,-2,-1,-10,-1,2,-1,0,1
1511885143468907,1,0,-2,-1,1,1,-3,-2
1511885143468907,0,-4,-6,-9,-5,0,1,0
1511885143475051,-2,0,-3,3,1,2,-1,-1
1511885143475051,0,-3,6,-1,-3,-1,0,0
1511885143490203,0,3,2,-1,0,-2,-1,0
1511885143490203,0,5,3,-5,-3,0,1,-4
1511885143498215,-2,-8,-3,7,-1,-2,-1,-2
1511885143498215,0,0,-5,-8,2,2,-1,-2
1511885143513244,2,-1,-4,-2,-5,-1,0,1
1511885143513244,0,-2,-3,0,2,0,-1,1
1511885143520263,1,0,5,-3,-2,-3,0,-1
1511885143520263,-1,1,4,10,-3,2,-2,-1
1511885143529284,-2,-6,-6,4,1,0,1,1
1511885143529284,0,2,-1,-24,-4,-2,-1,-1
1511885143535302,-2,-1,1,19,8,0,-3,0
1511885143535302,-2,-2,-3,-3,-3,-2,1,2
1511885143550343,-1,-1,0,-1,-2,1,-2,-3
1511885143550343,-4,-3,-3,-7,-3,-1,-2,0
1511885143558360,-1,0,0,-6,11,1,1,-2
1511885143558360,0,0,-1,8,0,-3,1,1
1511885143572577,-2,-3,-1,1,-1,-2,2,1
1511885143572577,1,2,9,0,3,2,-1,-2
1511885143580660,-1,-3,-5,-27,-4,-1,-1,-1
1511885143580660,-1,-5,2,16,-1,-1,-1,-3
1511885143595704,1,-3,4,6,2,-2,-1,-1
1511885143595704,0,-1,-11,-16,-6,-4,-3,2
1511885143596583,-2,-1,2,16,4,-1,1,1
1511885143596583,-1,1,5,-20,-6,3,0,-1
1511885143610620,-1,-3,2,-2,-6,-1,-1,0
1511885143610620,0,1,8,11,-1,-1,0,-2
1511885143617642,0,2,-9,1,-2,-2,-2,-1
1511885143617642,1,-5,-3,-3,-3,1,-2,-2
1511885143632678,-3,5,0,-17,0,-2,-3,0
1511885143632678,1,0,2,14,-5,-1,0,0
1511885143640816,0,1,-5,-3,-4,-3,0,-2
1511885143640816,-1,-1,1,3,3,1,0,1
1511885143655853,2,3,4,-10,-2,-1,-1,0
1511885143655853,-3,-1,-4,-2,5,1,2,-2
1511885143656743,-2,-4,-11,-4,-4,0,1,-1
1511885143656743,1,3,-4,1,1,0,-2,-2
1511885143670876,-2,-5,3,4,-1,-3,0,1
1511885143670876,0,0,-5,14,2,2,-1,-1
1511885143677799,-1,5,14,-4,5,2,-1,0
1511885143677799,-3,-1,-6,-2,-3,-4,-1,1
1511885143692842,-1,0,-11,2,-1,1,-1,-2
1511885143692842,0,1,3,3,1,-1,-2,1
1511885143700860,0,-1,-1,-1,-6,0,0,0
1511885143700860,2,1,6,-2,5,1,0,0
1511885143715899,-1,2,-10,-8,-8,0,0,1
1511885143715899,-4,-4,0,9,15,5,-2,-1
1511885143716908,-1,0,-4,-6,-7,-3,-2,-1
1511885143716908,1,1,1,-16,-3,-4,0,0
1511885143730940,-1,-1,0,12,0,0,0,-1
1511885143730940,0,-1,0,-4,-3,-3,0,0
1511885143738002,-2,-1,5,13,-2,-3,0,-3
1511885143738002,-1,3,-3,5,-3,-2,0,-1
1511885143753042,-1,0,-4,6,2,0,-2,-1
1511885143753042,1,-1,1,-20,-3,0,1,-1
1511885143760017,-1,-1,3,7,-1,1,-1,-1
1511885143760017,0,1,2,-2,-2,-1,0,0
1511885143776325,-1,-1,-2,-4,1,0,-2,0
1511885143776325,0,-1,2,3,1,0,0,0
1511885143777201,-1,-3,-14,-3,-1,-1,-3,-2
1511885143777201,0,-3,0,-5,-4,0,3,0
1511885143790348,1,1,-3,3,3,2,0,-1
1511885143790348,-2,1,2,-2,-4,-2,0,1
1511885143798343,-1,-4,-3,-10,-3,-2,-1,1
1511885143798343,0,2,10,8,-1,0,-4,-2
1511885143812706,-1,0,2,-3,-2,-3,2,2
1511885143812706,-2,0,-1,-5,0,-1,0,2
1511885143820757,1,1,6,18,-1,0,-5,-1
1511885143820757,-3,-2,-9,-2,1,3,11,-1
1511885143836621,1,-1,4,0,2,0,-1,-2
1511885143836621,-2,-1,-5,-5,-1,1,0,-3
1511885143836621,-1,-1,-2,-6,2,2,0,0
1511885143836621,1,0,1,3,1,-4,-4,-1
1511885143850813,0,-2,-4,-14,-2,-1,-1,0
1511885143850813,0,-1,-5,10,-1,-2,-1,0
1511885143857984,-3,-1,-3,-8,-3,-1,-1,-1
1511885143857984,-1,1,-5,1,3,-4,-4,0
1511885143872997,2,-8,7,-4,-1,-4,1,-2
1511885143872997,-1,0,-5,0,-5,-1,-1,-1
1511885143880008,1,1,7,-3,1,1,2,0
1511885143880008,-1,-1,-8,-2,-1,0,-3,0
1511885143896159,-1,-1,-4,2,1,-2,-3,-1
1511885143896159,0,-1,-1,1,-4,0,1,-1
1511885143896975,-1,-2,8,-3,-3,3,0,-1
1511885143896975,-3,0,-6,2,1,2,-1,-2
1511885143910028,-1,3,4,3,-1,-1,-1,0
1511885143910028,1,-1,5,1,8,1,-1,0
1511885143918037,0,-1,-5,0,-4,-2,0,-1
1511885143918037,1,-3,0,-2,1,-1,-1,-2
1511885143933069,-4,-1,-1,0,-1,0,0,-1
1511885143933069,-1,-3,-1,0,-3,-2,-3,-2
1511885143940244,-1,1,-3,-8,0,1,0,-1
1511885143940244,-1,-2,0,2,0,0,-3,0
1511885143956134,0,-1,-2,11,0,1,0,0
1511885143956134,2,0,0,-12,-1,-2,1,-2
1511885143957317,-2,0,-3,6,1,-2,0,1
1511885143957317,-1,0,2,-2,-1,-3,0,-1
1511885143970170,0,1,-2,0,-2,0,0,-1
1511885143970170,-1,-1,1,2,-4,-2,-2,-1
1511885143978192,-1,-5,-3,-2,0,-2,-3,-2
1511885143978192,-1,1,5,-1,-2,-2,1,-2
1511885143993391,-4,1,-3,3,0,0,-2,1
1511885143993391,2,-1,-4,-16,0,-4,-1,0
1511885144000248,0,2,1,5,-2,0,0,-3
1511885144000248,-1,0,5,12,-2,-1,1,-1
1511885144016447,0,-7,-4,-7,2,-2,1,0
1511885144016447,1,0,5,5,-3,-1,-2,2
1511885144016447,-1,-2,-2,-11,2,-1,0,-1
1511885144016447,1,0,1,-3,0,0,0,0
1511885144030656,0,0,0,3,-2,-2,-1,-1
1511885144030656,-5,1,-3,-1,-1,1,-1,0
1511885144037502,-2,-2,-3,-1,-2,0,-1,-2
1511885144037502,-3,-1,-1,-1,-3,-2,-3,-1
1511885144052607,0,2,4,0,-3,1,-1,0
1511885144052607,-2,-1,-5,3,2,1,-5,0
1511885144060592,-1,2,0,1,0,-1,10,0
1511885144060592,0,-1,0,-2,0,-3,2,0
1511885144075732,0,-2,-2,-5,1,-2,-2,-2
1511885144075732,-1,0,2,3,-4,2,0,-2
1511885144076633,1,-1,-3,0,-1,-1,-3,-3
1511885144076633,0,0,-2,-5,1,-1,-3,-1
1511885144090825,1,0,-2,-3,-2,-1,2,-1
1511885144090825,2,-2,-3,2,-2,-4,1,-3
1511885144097950,-1,0,-3,-2,-1,-2,-2,-1
1511885144097950,-1,-3,-1,-1,-1,3,0,1
1511885144113064,-1,1,2,4,0,1,-2,-2
1511885144113064,1,3,-2,-6,-4,0,1,0
1511885144119904,-1,1,0,0,0,-3,-2,0
1511885144119904,-1,0,-1,0,-1,2,-2,1
1511885144135950,0,-1,-2,1,-2,-2,0,-3
1511885144135950,-3,-1,1,1,-1,0,2,-3
1511885144136949,-1,-1,2,-2,-2,-1,-1,1
1511885144136949,0,-4,-4,2,-2,1,-3,-1
1511885144149987,2,1,2,-2,-4,0,-1,1
1511885144149987,-2,-5,-1,3,0,1,-1,-1
1511885144158172,0,-1,0,-3,-1,-3,-3,-1
1511885144158172,-2,-1,-1,-3,-1,-2,0,0
1511885144173289,0,-2,-1,-3,-2,-2,0,-1
1511885144173289,-2,0,-7,3,0,-1,-1,-1
1511885144180297,0,0,2,-7,-4,0,-2,0
1511885144180297,2,-1,-2,2,-1,-2,-1,-1
1511885144196425,-2,-3,-3,-2,-2,5,-1,-1
1511885144196425,-2,-3,1,3,0,1,1,-1
1511885144197361,0,-1,-1,3,2,0,-1,0
1511885144197361,-3,-1,-2,-4,-1,-1,-2,-2
1511885144210280,-3,4,0,2,1,-1,-2,-1
1511885144210280,-1,2,2,1,-4,0,0,0
1511885144218305,-1,3,-1,3,0,2,0,1
1511885144218305,-2,1,4,-4,-2,-1,0,-1
1511885144233424,-1,-1,-2,-1,4,-1,1,1
1511885144233424,1,-2,0,-2,3,-2,-2,-3
1511885144240410,-1,-2,-4,-2,-1,-1,0,0
1511885144240410,0,1,-1,1,-3,-3,0,1
1511885144255646,-1,1,1,3,-2,0,0,0
1511885144255646,0,-1,-1,0,0,-2,0,0
1511885144256647,1,0,1,1,0,-3,-3,0
1511885144256647,2,-1,-2,0,0,2,-1,-2
1511885144270687,-2,0,0,-3,-1,-3,-2,-2
1511885144270687,0,2,0,-2,0,4,0,2
1511885144277703,-1,-2,-2,1,0,-1,-1,-2
1511885144277703,-2,-4,2,0,-1,-1,-1,-1
1511885144292747,-1,1,-2,0,-1,3,-1,-2
1511885144292747,0,1,-1,-6,0,-3,0,2
1511885144300764,0,0,0,1,-2,-1,0,1
1511885144300764,1,-1,-3,-2,0,-2,-2,0
1511885144315983,-1,-5,-1,2,2,1,-1,-2
1511885144315983,1,0,-3,-2,-2,-3,0,-1
1511885144316809,-1,0,0,-1,-3,1,0,0
1511885144316809,1,-2,0,0,0,2,-2,0
1511885144330917,0,-3,2,-2,0,-1,0,0
1511885144330917,-1,0,-5,1,-2,-2,-1,-2
1511885144337900,0,3,8,0,1,0,-1,-3
1511885144337900,0,1,-4,-1,2,-3,-2,0
1511885144352939,-2,0,0,-2,-3,-2,0,1
1511885144352939,1,-5,1,1,1,-1,-1,0
1511885144360976,-2,0,-2,0,-1,-2,-1,-3
1511885144360976,1,1,2,-1,-2,-1,0,-1
1511885144375248,-1,-1,-2,-1,-3,0,-2,0
1511885144375248,-4,0,0,2,1,2,0,1
1511885144383154,1,-2,-3,-2,-2,-1,-1,-2
1511885144383154,-3,0,-2,-2,0,-2,0,-2
1511885144390172,-1,1,1,-2,0,0,0,0
1511885144390172,1,-1,2,1,-2,0,-2,0
1511885144398369,-2,0,-3,0,1,-3,0,-2
1511885144398369,-1,0,0,2,1,1,-2,-1
1511885144413455,2,-1,-1,0,-1,-2,1,0
1511885144413455,-1,1,-1,0,-1,4,0,-2
1511885144420571,0,-2,0,-1,0,0,-1,-1
1511885144420571,0,0,0,1,0,-1,2,0
1511885144435516,-2,0,-1,-1,-1,-4,-2,-3
1511885144435516,2,-3,2,-1,0,-3,0,-1
1511885144443544,2,-1,-2,-1,0,0,1,2
1511885144443544,-2,1,-1,-1,-5,0,-1,-1
1511885144450555,1,1,-1,-1,0,0,-1,-2
1511885144450555,-4,-1,0,2,-2,1,-2,-1
1511885144457750,-1,-1,0,-1,-2,0,-3,1
1511885144457750,-1,-1,0,0,2,0,-2,0
1511885144472786,-1,1,0,1,-2,-1,-3,-2
1511885144472786,0,0,-6,-1,-2,-1,-2,-3
1511885144479804,-1,0,0,-1,0,1,2,1
1511885144479804,1,-1,1,2,1,-1,-1,-1
1511885144495161,1,-4,-2,-4,1,0,0,1
1511885144495161,-2,-2,4,-1,3,-3,0,0
1511885144503187,1,1,3,0,0,-1,-1,-1
1511885144503187,1,-1,-3,-2,-2,-3,1,-1
1511885144518249,-3,0,2,0,0,-4,2,2
1511885144518249,0,0,-2,-2,-1,-1,0,-2
1511885144519227,-2,1,-3,-3,-2,-1,0,0
1511885144519227,0,-2,0,-2,-1,2,1,0
1511885144533274,-1,-2,-1,-1,-1,0,-3,-1
1511885144533274,-1,3,-2,0,0,-1,0,0
1511885144540418,0,-1,-1,0,-1,-3,0,-1
1511885144540418,1,0,0,-1,0,-1,0,-1
1511885144555640,-1,1,-2,0,0,-1,-2,0
1511885144555640,0,-2,0,-2,0,-2,1,-2
1511885144563831,0,-2,0,0,1,0,-1,0
1511885144563831,-2,-2,0,-1,0,-2,0,-1
1511885144578861,2,1,1,-2,-3,-2,0,0
1511885144578861,-2,3,2,-1,-1,0,-3,1
1511885144579752,0,-2,-2,-1,-1,-3,0,-1
1511885144579752,-2,-4,-2,0,1,0,-2,-1
1511885144592810,-1,-1,0,-3,-2,2,-1,-2
1511885144592810,-1,-1,-3,0,-3,0,1,-1
1511885144600903,-1,-4,0,-1,-1,1,-1,-1
1511885144600903,-2,-1,0,1,-4,2,-1,0
1511885144617001,-1,-1,-3,-1,3,-3,0,0
1511885144617001,-5,-3,1,-1,4,2,-2,-2
1511885144624021,-2,-1,-6,-2,1,2,-2,0
1511885144624021,-2,1,1,0,-1,1,1,-3
1511885144638060,-1,-1,0,1,-3,3,-1,-2
1511885144638060,-3,0,-5,1,-1,1,1,-2
1511885144646254,0,2,5,0,-4,0,-1,-2
1511885144646254,-1,-1,-4,0,1,1,-2,-1
1511885144653149,-3,-2,-3,1,-3,-4,0,-1
1511885144653149,2,-3,2,0,0,-1,2,-1
1511885144660165,0,0,0,-1,-2,0,-2,0
1511885144660165,0,0,1,-2,0,-1,-3,0
1511885144675203,0,0,0,1,1,-2,1,0
1511885144675203,0,-1,-2,-3,0,-3,-1,3
1511885144683223,-2,-2,-3,-1,3,-1,0,1
1511885144683223,0,1,1,-2,-2,-2,0,0
1511885144698394,1,1,0,-2,0,3,-2,-2
1511885144698394,2,0,-1,-3,-1,-1,0,0
1511885144699267,-1,-1,0,2,-3,1,1,-2
1511885144699267,-1,-2,-3,0,-1,-2,0,1
1511885144713367,-2,-1,1,1,0,0,-2,-3
1511885144713367,-3,-2,-3,-2,-1,-3,-3,-2
1511885144720452,-1,-1,-1,-3,0,-4,0,-2
1511885144720452,0,-2,7,1,2,-2,-2,-1
