timestamp,emg1,emg2,emg3,emg4,emg5,emg6,emg7,emg8
1511885044937401,5,-1,0,4,7,-5,3,3
1511885044937401,-2,-5,-2,2,1,0,-1,-2
1511885044938403,-4,-1,-1,-2,-4,-1,1,-1
1511885044938403,-3,-1,-2,-3,-1,1,-2,-1
1511885044939406,-1,1,-3,-1,-2,0,1,-1
1511885044939406,0,1,-1,-4,-6,-2,-1,-3
1511885044942417,2,-4,4,-2,-2,-2,2,0
1511885044942417,3,2,-5,-2,-3,-4,-2,2
1511885044949435,-6,-1,-1,7,3,4,-5,-4
1511885044949435,1,-2,1,-4,-2,-2,-2,1
1511885044957516,1,1,-1,0,0,2,2,2
1511885044957516,-4,-4,2,-3,0,0,0,-3
1511885044964473,0,-1,-1,-1,-1,-3,-1,-2
1511885044964473,2,0,-1,-5,0,-1,0,1
1511885044979597,-4,1,0,4,4,-1,-1,-1
1511885044979597,-1,-1,-1,4,3,-1,-1,-4
1511885044987574,-1,3,2,-1,-8,-1,1,1
1511885044987574,4,-3,-2,1,3,0,2,0
1511885044995555,0,-2,-4,-2,-1,-1,-2,-1
1511885044995555,1,1,2,0,-3,1,0,1
1511885045009595,0,-1,-1,-3,-2,3,0,0
1511885045009595,-5,0,-1,4,6,1,1,-2
1511885045017614,0,0,2,-4,-1,0,0,-3
1511885045017614,0,2,0,6,6,1,-2,1
1511885045057745,0,-2,-1,-2,-6,1,1,2
1511885045057745,-6,-3,-3,0,-4,3,-4,-4
1511885045058726,1,-2,1,0,-4,-5,1,0
1511885045058726,0,-2,-2,0,-2,0,-1,2
1511885045061755,-2,0,0,1,-1,1,-1,-6
1511885045061755,1,0,2,-2,4,-3,1,1
1511885045062733,-2,1,-2,-5,-4,3,-2,2
1511885045062733,-3,0,-1,0,-1,0,-2,-4
1511885045069755,-3,0,-1,1,0,-2,-1,-2
1511885045069755,1,-2,-2,-1,-5,2,0,1
1511885045076774,-2,-3,-3,3,7,2,-3,-5
1511885045076774,-3,1,-2,-1,-1,1,-1,-3
1511885045083790,4,2,1,-3,-6,-2,1,3
1511885045083790,-1,-3,-3,-1,1,-4,0,-2
1511885045098833,0,-2,-1,2,-9,0,-2,-2
1511885045098833,0,0,-1,-4,1,-4,-2,-2
1511885045106855,-2,-2,-2,1,6,1,1,1
1511885045106855,-2,1,0,3,-3,1,1,-2
1511885045115879,-2,-4,0,0,3,-1,-1,-1
1511885045115879,0,-2,4,-4,-1,0,0,3
1511885045129036,-1,1,-4,1,0,3,0,-3
1511885045129036,1,2,-1,3,1,-2,-1,-1
1511885045137937,0,-1,-2,-7,-3,-3,1,2
1511885045137937,1,0,-2,9,5,2,0,-2
1511885045144031,0,-4,-2,-5,-4,-3,-4,-2
1511885045144031,0,0,-1,-1,-3,-2,0,1
1511885045159070,0,3,-3,5,2,-2,-2,0
1511885045159070,-2,-1,-1,-2,-4,1,-1,0
1511885045166305,1,-1,-1,-1,1,-2,0,0
1511885045166305,-2,-3,1,-3,-1,1,1,-1
1511885045175289,-4,1,-1,-1,-1,0,-1,-4
1511885045175289,-2,-1,-2,0,-4,1,0,-3
1511885045189325,-4,1,0,2,2,-4,0,0
1511885045189325,0,0,-2,-1,-1,1,-1,-1
1511885045198351,2,0,0,-1,-2,-1,1,0
1511885045198351,1,-3,-1,2,2,-3,0,0
1511885045204474,0,-2,-3,-2,0,-2,-2,-1
1511885045204474,-1,-1,3,-5,-7,1,-1,-1
1511885045219406,-2,-1,1,7,11,3,1,-2
1511885045219406,-2,1,-1,0,-1,0,-4,0
1511885045226424,0,-3,0,-2,-6,2,1,2
1511885045226424,0,-1,-2,0,7,2,0,0
1511885045235445,2,3,1,5,-4,0,2,2
1511885045235445,-2,2,-2,-3,0,2,-1,-1
1511885045249486,-2,-2,1,-3,2,-2,-1,-2
1511885045249486,0,0,-2,4,4,-2,0,1
1511885045256683,-2,-2,1,-1,1,-3,0,-2
1511885045256683,-1,-3,-2,1,0,2,3,-2
1511885045263521,-2,3,1,-1,0,-4,-2,-2
1511885045263521,-1,0,0,2,-5,-2,-1,0
1511885045279563,0,2,-4,-3,-3,-1,2,0
1511885045279563,0,1,0,0,-6,-3,-1,2
1511885045286584,-2,-1,-2,-2,3,0,-1,-1
1511885045286584,-3,-3,0,3,0,0,-1,0
1511885045301621,-2,0,-2,-4,-2,1,-2,-1
1511885045301621,-2,-2,-1,-6,2,-3,0,0
1511885045309758,1,0,0,11,8,1,-1,1
1511885045309758,1,0,-2,-3,2,-2,-2,-1
1511885045316664,2,0,-1,-7,-8,-2,1,0
1511885045316664,2,2,1,1,-5,-1,-1,0
1511885045323683,-1,-3,-2,3,4,1,-3,0
1511885045323683,-6,-1,0,-4,-5,2,0,1
1511885045338724,1,-4,0,1,-2,4,1,-1
1511885045338724,1,2,2,-1,0,-3,0,-2
1511885045346933,-2,2,-1,-6,-5,-2,0,-1
1511885045346933,1,0,0,4,4,-1,-1,0
1511885045361924,-1,-1,-5,-3,1,3,-1,1
1511885045361924,0,-3,-3,-2,0,1,-3,0
1511885045369805,1,-2,1,0,-3,1,0,-1
1511885045369805,-4,2,0,-5,-2,-1,-5,1
1511885045376825,-2,2,-1,4,-2,0,-1,-4
1511885045376825,2,-2,-3,0,-2,-2,0,1
1511885045383840,1,1,1,0,-4,-2,-1,-4
1511885045383840,2,1,2,1,7,1,-2,-3
1511885045398883,-2,-2,1,-1,0,-1,-1,0
1511885045398883,-2,1,3,-3,-2,-1,0,0
1511885045407022,0,-1,-2,-4,-5,-1,-4,0
1511885045407022,2,-1,0,-3,-4,1,1,0
1511885045421941,-1,-3,-1,0,0,-1,-1,-1
1511885045421941,-1,-2,-2,-2,-1,2,2,1
1511885045430013,0,-1,-2,5,-1,0,1,0
1511885045430013,-1,-2,-4,-2,-2,0,-1,-2
1511885045436026,0,2,-1,1,-1,1,-1,-3
1511885045436026,-3,-2,-1,-5,-1,1,0,-3
1511885045444046,0,1,-3,2,5,4,-1,-1
1511885045444046,0,-2,0,1,1,-3,0,-2
1511885045459326,0,2,-1,-1,0,-3,-4,1
1511885045459326,3,0,1,1,-1,1,-1,-1
1511885045466344,-4,-3,0,-1,-2,-1,0,-3
1511885045466344,-2,3,-2,-1,-2,-1,-1,-2
1511885045481387,-5,1,2,1,6,-1,1,-3
1511885045481387,1,-1,2,8,6,-2,-3,0
1511885045489547,0,-1,-2,-2,-4,3,-1,-2
1511885045489547,1,-1,-2,0,0,-1,2,0
1511885045496569,2,-1,-2,0,0,-3,-3,1
1511885045496569,0,-5,-2,-8,-7,0,0,-2
1511885045503587,-2,-4,4,10,2,1,-2,-2
1511885045503587,-2,0,-4,0,7,3,0,-2
1511885045518626,0,-1,1,-6,-2,-2,-1,1
1511885045518626,-2,0,-5,0,-1,2,0,-2
1511885045526757,-5,-2,-1,-4,-1,1,0,1
1511885045526757,1,-2,1,-3,-3,-3,-2,-1
1511885045541795,-3,2,1,2,-1,6,-1,1
1511885045541795,-1,3,1,2,-1,-3,1,0
1511885045549817,1,1,0,-6,-1,-3,0,-1
1511885045549817,-2,-1,-1,0,-7,-1,-1,0
1511885045555945,-1,-2,-2,-3,3,3,-1,1
1511885045555945,-2,-1,1,1,-8,-3,2,1
1511885045563964,1,1,-1,-6,1,1,1,-1
1511885045563964,-3,-2,2,4,2,-1,1,-1
1511885045579006,3,-1,-1,-6,-4,-4,-1,-4
1511885045579006,0,-3,-3,6,3,1,-3,-2
1511885045586051,2,0,-1,-3,-3,-5,-2,0
1511885045586051,-1,-1,0,-4,-3,-1,0,1
1511885045601067,-2,-3,-2,3,1,-2,0,-2
1511885045601067,0,-1,1,1,7,0,-2,0
1511885045610228,-1,-2,0,-3,-5,-3,-3,-2
1511885045610228,-3,0,-1,1,-1,2,0,2
1511885045616336,-2,-2,2,3,-2,1,1,3
1511885045616336,0,-3,-2,0,1,0,-1,0
1511885045632378,-2,4,2,3,-1,0,0,-2
1511885045632378,1,1,-4,-1,-1,1,-3,-1
1511885045639488,-1,1,2,-4,-2,-1,0,-2
1511885045639488,-1,-4,-1,5,6,0,-2,-2
1511885045646416,2,2,-4,0,0,2,-1,0
1511885045646416,-3,-2,-1,-1,-1,-1,-2,-3
1511885045661577,-1,2,1,-1,-5,-4,-1,-1
1511885045661577,1,3,-2,-1,-1,-1,1,-1
1511885045669494,-3,-1,3,2,-1,3,-3,0
1511885045669494,0,1,1,-5,0,-1,-3,-1
1511885045676665,0,-1,-3,6,8,0,0,-1
1511885045676665,-3,2,-2,-6,-6,2,0,-2
1511885045692729,0,-2,-1,-3,-2,-2,2,2
1511885045692729,0,-1,-2,2,0,0,-4,-1
1511885045698699,-2,-3,-1,1,3,1,0,1
1511885045698699,0,-1,-1,0,-4,-2,0,-1
1511885045706929,-4,0,-1,2,-1,0,0,0
1511885045706929,2,-1,2,1,0,-1,3,-2
1511885045721869,0,-2,0,0,0,-2,-1,0
1511885045721869,-1,2,1,-2,-1,0,-5,-2
1511885045729778,0,-2,1,0,1,-4,0,1
1511885045729778,0,1,0,6,5,0,3,1
1511885045736800,-1,4,-1,-3,-1,1,-1,-1
1511885045736800,-1,-1,0,0,-3,-4,-1,0
1511885045751837,1,-4,-5,-4,-4,-2,0,-1
1511885045751837,-3,-2,-1,5,9,3,-1,-1
1511885045758856,-1,-1,1,1,-4,-2,-1,0
1511885045758856,1,0,-1,-10,-2,0,1,-1
1511885045766881,2,-3,2,9,5,-1,2,0
1511885045766881,1,-2,0,-6,0,0,-1,-3
1511885045781923,-2,-3,-1,1,-5,0,-1,-2
1511885045781923,-6,4,-2,0,2,3,-4,-2
1511885045789967,-1,-2,-1,-3,-1,1,-2,-1
1511885045789967,1,-2,-4,1,-6,-3,-2,0
1511885045795957,-1,2,-1,-3,5,2,-1,-2
1511885045795957,0,-1,-2,-2,-2,-2,6,-1
1511885045812193,-1,3,0,0,-2,0,-1,0
1511885045812193,-2,0,0,1,-5,1,-2,-1
1511885045819019,1,-5,-3,-1,6,1,-1,-1
1511885045819019,-2,0,0,4,-1,-1,-3,3
1511885045826179,-1,-2,-3,-1,1,2,-1,-2
1511885045826179,-1,-2,0,-7,-3,-3,1,-1
1511885045841215,0,1,0,-1,-4,-1,-2,-2
1511885045841215,0,-1,0,6,6,0,-1,0
1511885045849237,-2,0,1,-5,-8,-1,3,-2
1511885045849237,1,2,0,-3,-7,0,-2,-1
1511885045856436,-1,-5,-1,-1,-5,0,-3,-1
1511885045856436,1,-2,2,-2,-2,-2,0,-4
1511885045872403,-1,0,-2,5,12,3,0,-1
1511885045872403,-2,0,-4,-5,-4,-1,0,0
1511885045879320,-1,-2,1,-2,-2,1,1,-3
1511885045879320,0,1,2,5,-1,-4,2,1
1511885045886354,1,-1,-1,-2,-3,-2,-4,1
1511885045886354,-1,-2,-1,-2,3,2,7,0
1511885045901509,-2,1,-3,5,-5,-1,-2,1
1511885045901509,-2,-1,-1,-5,0,4,-5,2
1511885045909533,1,0,-1,-4,-2,-3,-2,-2
1511885045909533,-1,1,2,5,5,0,-2,-3
1511885045916548,-3,-2,2,-2,0,0,-1,-1
1511885045916548,2,-1,1,0,-1,-2,1,-2
1511885045932596,-1,-2,-3,-1,-2,2,-1,0
1511885045932596,0,0,1,0,3,0,-3,1
1511885045938732,0,1,-1,3,3,-2,-2,0
1511885045938732,-4,-3,-1,-1,0,-1,-1,-3
1511885045946630,1,-1,-1,1,-6,-2,-2,-1
1511885045946630,-2,1,-2,4,6,3,0,1
1511885045961668,-1,0,-3,-2,-2,0,-1,-3
1511885045961668,-1,0,-1,-1,3,1,-3,-1
1511885045969693,2,-1,4,-6,-9,-2,-1,-3
1511885045969693,0,-5,-1,3,2,-2,-2,-1
1511885045976994,0,-2,1,1,-4,0,0,0
1511885045976994,-2,2,-1,-3,-1,0,-1,2
1511885045991878,-3,-1,0,1,4,3,-2,-4
1511885045991878,-3,2,-2,-3,-3,-5,-1,3
1511885045998897,1,-2,-3,0,-3,0,2,-1
1511885045998897,-1,-5,-1,1,-2,-2,-1,1
1511885046006921,-4,-2,-1,5,-2,-3,2,-2
1511885046006921,7,5,2,-3,-4,-1,-3,0
1511885046021097,-4,-13,-1,-6,3,-2,-1,0
1511885046021097,0,3,-2,-2,-3,3,-1,-5
1511885046030121,1,2,-2,-1,4,-4,1,1
1511885046030121,0,-2,-1,5,-2,-2,3,1
1511885046044348,4,7,4,-4,-2,-4,-1,-1
1511885046044348,-3,-3,0,3,-1,0,-3,2
1511885046052308,-3,-1,-2,-2,7,1,-4,1
1511885046052308,0,4,-2,4,3,0,-1,-2
1511885046067223,3,2,-1,1,-1,-1,0,0
1511885046067223,1,-2,-3,3,-3,-2,2,0
1511885046068226,0,0,-1,-4,-3,0,0,-1
1511885046068226,-1,-5,-3,-1,-2,-1,-4,-1
1511885046081291,-3,1,1,-6,-1,-2,8,-2
1511885046081291,0,3,-3,5,2,-2,0,-4
1511885046089312,3,-2,2,0,-6,-1,0,2
1511885046089312,-3,-14,-3,1,-2,-1,-2,-2
1511885046104353,1,4,2,-3,1,2,-2,-2
1511885046104353,0,-3,-1,1,2,2,1,1
1511885046112374,0,1,2,3,2,-3,1,0
1511885046112374,-2,3,2,-5,-2,2,-1,0
1511885046127604,-2,0,-1,3,-3,-2,-1,-2
1511885046127604,4,-4,0,-5,-3,-1,-1,-3
1511885046127604,-2,-7,-6,1,1,3,-2,1
1511885046127604,-7,3,1,-1,3,0,-2,-4
1511885046141576,-1,2,0,2,5,1,-3,3
1511885046141576,1,0,-4,-4,-2,2,3,3
1511885046149621,-3,1,0,2,5,2,1,-2
1511885046149621,0,-3,0,-2,-8,-2,-1,-3
1511885046163779,-2,-6,-7,3,-2,-1,-3,-1
1511885046163779,-2,8,4,-2,-2,2,0,-2
1511885046171800,0,-1,-1,-3,-1,-3,-3,1
1511885046171800,0,0,-3,2,-4,2,0,0
1511885046187034,-3,1,-3,-4,-4,1,-4,0
1511885046187034,1,-3,-1,4,-4,-2,0,0
1511885046187840,1,2,2,1,-2,0,-1,-1
1511885046187840,0,-2,0,-3,-2,0,-2,-3
1511885046201881,2,-2,1,0,-3,2,-2,1
1511885046201881,-4,-2,-3,-4,-2,-1,0,-1
1511885046209040,0,3,-2,-5,-3,-3,0,-2
1511885046209040,-3,-1,0,5,6,2,-1,-3
1511885046224077,2,-1,-4,0,0,-2,-1,-1
1511885046224077,-4,-1,1,-3,-4,0,-1,-2
1511885046232098,-2,-1,1,8,6,3,-3,0
1511885046232098,-1,1,-1,-10,-2,0,-1,1
1511885046247138,-3,0,-6,14,1,-1,0,-2
1511885046247138,1,-6,1,-3,-2,-2,1,1
1511885046248145,1,-4,-4,-11,-11,-5,-2,-2
1511885046248145,1,-2,3,-1,-3,1,-1,-1
1511885046261179,-1,1,-2,1,-5,-7,0,1
1511885046261179,-3,-3,-2,1,3,1,-4,0
1511885046269200,0,3,5,-4,-2,-4,2,1
1511885046269200,1,-2,-2,-5,-5,-2,3,3
1511885046283555,3,-2,4,6,2,-3,1,-2
1511885046283555,0,1,-1,-4,1,2,0,3
1511885046292404,2,-4,-4,0,1,-1,1,2
1511885046292404,2,1,-2,-3,1,-1,1,1
1511885046307444,-1,2,1,-7,1,1,0,1
1511885046307444,4,-4,6,0,-1,-4,-1,1
1511885046307444,-1,0,4,1,-1,2,-3,-2
1511885046307444,1,1,3,-1,0,-2,0,-3
1511885046321481,-2,0,-5,-2,1,1,1,-1
1511885046321481,-4,-2,0,-3,1,-2,-2,-3
1511885046329528,0,3,-2,3,0,-1,-1,-2
1511885046329528,-2,-6,-2,1,1,-3,0,0
1511885046344566,-2,8,4,-5,-3,-2,-5,-2
1511885046344566,0,-2,-1,2,-2,1,-5,-3
1511885046352560,1,1,1,0,2,-2,1,3
1511885046352560,-2,-6,-1,1,1,1,-2,1
1511885046367604,2,2,0,-2,-1,-1,1,1
1511885046367604,-2,-1,-1,-1,3,1,1,-1
1511885046367604,0,2,-3,-2,-4,-1,2,1
1511885046367604,2,-4,2,2,-3,-1,0,3
1511885046381641,-2,-3,-2,-4,-2,3,-3,1
1511885046381641,0,0,-3,10,0,-4,-10,-3
1511885046388668,3,-2,-5,0,-2,3,-10,-3
1511885046388668,1,5,2,3,0,2,24,2
1511885046403824,1,-3,-3,-11,1,1,-3,-1
1511885046403824,1,2,1,8,-2,-1,-28,1
1511885046412746,-3,-6,2,2,2,1,30,-1
1511885046412746,-1,1,-1,0,-3,-1,-12,-3
1511885046426761,-4,0,3,-2,1,0,-3,-3
1511885046426761,0,-2,0,22,-1,0,-6,1
1511885046427760,-6,-5,-1,-9,0,0,-3,-3
1511885046427760,3,0,-1,12,-1,-1,8,2
1511885046441799,2,0,1,-1,1,1,20,-2
1511885046441799,1,0,-3,-1,-4,-2,4,-3
1511885046448820,-4,2,3,14,-1,-5,-9,-1
1511885046448820,-1,-2,-1,4,-2,1,-2,-1
1511885046463999,-4,-5,2,2,-1,2,-7,-2
1511885046463999,-2,-1,-2,-18,1,-1,7,0
1511885046472018,-3,-4,-6,-4,0,2,1,-2
1511885046472018,0,2,1,18,-2,2,-8,-1
1511885046487176,2,-1,2,-15,1,-1,-2,2
1511885046487176,-1,0,2,-7,-2,1,8,-1
1511885046488067,1,1,7,20,2,0,-6,-3
1511885046488067,0,7,3,-6,2,-2,-8,-2
1511885046501096,-1,-14,-4,30,-6,1,-4,-1
1511885046501096,-2,4,0,-10,3,-3,8,-1
1511885046509299,-1,-3,3,17,4,7,-6,-2
1511885046509299,1,4,-1,-16,3,1,-3,0
1511885046524349,-2,-4,-3,-6,7,1,1,-1
1511885046524349,-5,-7,-1,-24,-5,2,2,-5
1511885046532180,2,0,-1,15,-9,1,-3,-2
1511885046532180,-6,-2,-3,2,3,2,-4,-4
1511885046547217,-2,1,-2,-17,-9,-5,-5,0
1511885046547217,0,-2,0,29,-1,5,-1,-4
1511885046548331,-3,-1,-3,1,3,-2,0,-1
1511885046548331,1,-1,-4,-22,-10,-6,0,1
1511885046561253,-3,-2,3,-2,2,0,-3,2
1511885046561253,0,1,-3,-16,-4,-2,-2,4
1511885046569274,2,-4,-5,5,-1,-3,-1,1
1511885046569274,0,-2,-3,15,-1,-3,-1,-5
1511885046584314,1,2,-2,12,2,1,-1,-2
1511885046584314,0,-2,6,8,2,2,3,-1
1511885046592337,-6,-3,-14,-28,-3,0,-2,-1
1511885046592337,-1,-2,5,-9,-1,1,-3,1
1511885046606543,-1,6,-4,7,0,0,0,-1
1511885046606543,0,-8,-2,-11,-1,-1,0,-1
1511885046614395,3,0,1,11,-1,-3,-2,1
1511885046614395,-2,-3,7,-1,1,4,-4,-2
1511885046621417,0,-2,-10,2,0,-3,0,1
1511885046621417,0,5,-7,-5,3,0,0,2
1511885046629519,4,1,-1,-14,-2,-1,-1,0
1511885046629519,-1,-5,-2,7,0,-3,0,-1
1511885046643673,1,2,-5,-5,-1,-3,-3,-3
1511885046643673,0,4,1,-3,-2,0,1,-3
1511885046652499,-3,-1,0,0,1,-4,3,0
1511885046652499,4,1,-8,-3,3,2,0,3
1511885046666533,-1,0,4,-6,-1,-1,0,0
1511885046666533,-4,0,3,4,2,0,-2,-3
1511885046674554,1,3,3,-7,-1,0,-2,-1
1511885046674554,-2,0,0,-4,0,3,-3,-2
1511885046681576,-1,-7,-5,6,0,-1,-2,-2
1511885046681576,2,0,1,-3,-2,1,1,4
1511885046688596,-3,3,1,-9,1,0,-1,1
1511885046688596,-5,4,-9,0,-3,-2,-1,-4
1511885046703663,-1,-3,6,1,1,0,3,0
1511885046703663,0,-4,-8,4,-1,-5,-2,0
1511885046711700,-1,-1,1,-8,1,-1,-2,-3
1511885046711700,-3,-3,-4,0,-3,1,-2,1
1511885046726730,3,5,5,1,0,-1,0,-1
1511885046726730,0,-5,-5,1,-3,-3,0,-1
1511885046734716,1,1,1,-1,0,2,1,-2
1511885046734716,-1,-6,-1,-3,1,-3,-1,3
1511885046749861,0,-1,-3,1,-1,0,0,-1
1511885046749861,0,1,4,-3,-1,-1,-1,0
1511885046750893,1,-4,-9,-3,-1,0,1,0
1511885046750893,-3,-6,2,-3,0,0,-1,-4
1511885046763952,1,0,-2,-8,-1,-3,-3,-1
1511885046763952,-7,2,1,16,3,0,1,-3
1511885046772042,2,-3,-4,-15,-3,-3,-3,0
1511885046772042,-1,2,7,1,0,-3,-1,-3
1511885046787007,-3,-8,2,-6,1,1,2,-1
1511885046787007,2,7,-6,-4,-4,-2,-2,-1
1511885046795143,-1,-3,-1,1,-2,-2,0,-2
1511885046795143,1,2,-2,-5,-1,1,-2,0
1511885046810166,-1,0,3,5,-3,-1,-1,2
1511885046810166,-2,-1,2,-3,2,-2,-1,1
1511885046811023,-1,-1,-2,2,0,-1,-1,-2
1511885046811023,4,3,-2,2,-4,-5,-1,1
1511885046824056,-1,-2,-3,0,-2,0,0,-2
1511885046824056,1,4,1,-2,1,2,3,1
1511885046832078,1,0,3,-3,-2,2,-5,-3
1511885046832078,2,2,-8,2,2,-1,1,0
1511885046846301,3,3,-10,6,2,-4,0,0
1511885046846301,-3,-5,10,-3,0,0,0,-3
1511885046855151,-3,2,6,2,0,1,-1,2
1511885046855151,2,1,2,-3,-4,0,0,-1
1511885046869352,-3,-2,-3,-1,0,2,2,0
1511885046869352,2,1,2,-3,-2,0,-3,-1
1511885046870353,0,-6,-5,2,1,-1,4,0
1511885046870353,-4,3,0,1,-3,-1,0,0
1511885046884405,2,0,5,-2,-2,-2,0,0
1511885046884405,6,3,-2,0,1,1,-3,1
1511885046892412,-2,-9,-8,-2,-3,-5,-5,4
1511885046892412,-1,1,1,-1,0,-6,-2,-1
1511885046906646,-2,2,6,3,-1,7,1,1
1511885046906646,-2,-3,-14,-5,0,-1,0,-4
1511885046914495,1,-1,9,0,1,-5,-3,-2
1511885046914495,-1,-6,0,1,1,1,4,1
1511885046929512,-1,3,3,-2,0,0,-1,-1
1511885046929512,2,-7,-6,0,-3,0,0,0
1511885046930512,-4,5,7,1,-1,2,3,-2
1511885046930512,-2,-1,-5,-2,-4,3,-7,1
1511885046943550,-1,-5,-7,-1,-2,0,-2,0
1511885046943550,-1,-4,8,4,0,0,-2,-3
1511885046952655,-2,1,2,-5,-2,1,-1,-1
1511885046952655,1,1,-10,-3,4,1,4,-2
1511885046966611,-4,-3,-1,1,2,-1,-2,-2
1511885046966611,1,1,-6,-1,-1,1,-3,0
1511885046974631,0,3,-5,0,-1,0,-3,-1
1511885046974631,-1,-3,1,-3,0,3,-3,0
1511885046989799,3,1,7,0,-2,-7,-2,0
1511885046989799,1,0,-4,-9,-5,-3,2,-1
1511885046990686,0,0,-1,1,0,5,5,-1
1511885046990686,-1,3,5,5,6,-6,-2,1
1511885047003836,-3,-6,2,4,9,7,1,0
1511885047003836,-2,-2,-5,-3,-2,3,17,-3
1511885047012733,0,5,1,6,5,-2,1,-1
1511885047012733,-1,-2,-2,1,-2,-1,1,0
1511885047026768,-2,1,-4,4,-2,-5,-2,-4
1511885047026768,-1,-2,1,-1,7,-1,-5,3
1511885047034906,-1,-1,-8,-4,-5,-1,-3,-1
1511885047034906,-1,-2,0,-1,1,3,2,-1
1511885047050024,4,6,5,-2,-7,0,-2,1
1511885047050024,-1,-2,-12,11,-2,2,1,-1
1511885047050915,1,-1,7,-1,3,-1,-1,2
1511885047050915,-1,0,2,3,3,-2,-4,-1
1511885047063980,1,0,-1,-7,-1,5,-16,-1
1511885047063980,3,6,4,-3,1,-1,-5,0
1511885047071892,-3,-2,-4,-9,-4,-4,-3,-2
1511885047071892,-1,-4,-5,8,-5,-2,2,-3
1511885047086932,2,4,-5,-1,0,-12,-5,-1
1511885047086932,-3,-1,1,4,2,11,2,-1
1511885047094996,1,3,-1,0,-4,-6,0,1
1511885047094996,0,0,-1,-10,-5,9,-1,-2
1511885047110031,-5,-5,-3,1,4,-5,5,-1
1511885047110031,-3,4,-3,1,-4,-5,-4,0
1511885047110031,0,-1,0,6,-1,5,4,-3
1511885047110031,1,-1,-1,-15,-2,-7,-4,1
1511885047124069,-3,-5,1,16,1,5,10,-1
1511885047124069,-2,0,-2,-3,7,-4,-1,0
1511885047132091,0,-1,-3,-2,-5,0,-5,2
1511885047132091,-1,-7,3,1,0,0,2,-3
1511885047146211,-1,1,-13,-7,-1,2,-12,-1
1511885047146211,-1,1,14,1,-4,1,3,-4
1511885047155109,1,2,-22,-3,-1,-4,0,-1
1511885047155109,-1,-7,12,0,0,-1,-1,-1
1511885047169150,0,1,1,-3,-7,2,-7,0
1511885047169150,-2,-6,-4,0,2,1,0,2
1511885047170149,-1,3,14,5,2,0,1,-2
1511885047170149,3,4,9,7,-3,0,-1,-1
1511885047184190,1,-3,-5,1,0,2,6,1
1511885047184190,-1,1,-14,-6,0,-6,-11,-2
1511885047192208,-3,-1,8,2,0,-1,2,-4
1511885047192208,-2,1,2,-6,-1,0,-1,-3
1511885047206429,2,0,-2,-1,4,-3,4,-2
1511885047206429,-2,-2,1,0,2,-3,-4,-2
1511885047214268,-1,-2,2,-5,3,2,-1,0
1511885047214268,-3,1,-14,-2,2,1,1,-2
1511885047229310,-2,-5,2,1,-5,2,-3,-2
1511885047229310,1,3,7,5,2,0,2,-2
1511885047230310,-3,-5,-2,1,2,-3,-1,-4
1511885047230310,-1,-6,-4,10,-1,0,3,0
1511885047244348,0,5,0,-7,-3,-1,2,-1
1511885047244348,-3,-3,6,-5,1,1,0,1
1511885047252493,-2,0,-5,1,0,0,-5,-1
1511885047252493,-1,2,1,-7,-3,1,-3,0
1511885047266408,-1,1,8,2,-3,4,4,-2
1511885047266408,0,-4,-20,-2,-4,-4,-1,-1
1511885047274655,-1,0,5,-1,-1,-2,-1,0
1511885047274655,-3,-1,-2,1,1,-1,-1,-1
1511885047289634,-2,-2,-2,-2,1,2,0,-3
1511885047289634,3,-3,2,-7,-4,-4,0,1
1511885047290509,-3,-7,-8,2,-2,2,1,0
1511885047290509,0,0,1,2,1,0,-1,-1
1511885047303573,-4,-1,1,-2,0,-3,1,-1
1511885047303573,0,1,5,1,-2,-1,-8,-1
1511885047312632,0,-1,-3,-4,0,-3,18,1
1511885047312632,2,-4,-7,-2,-1,1,-2,2
1511885047326605,-1,1,1,2,11,3,-1,-5
1511885047326605,-2,-2,-1,-6,-5,0,-6,-1
1511885047334742,-1,-5,-1,0,-2,1,-9,-2
1511885047334742,-5,7,-2,2,-1,-2,-3,-2
1511885047349666,-1,0,-3,-1,5,-2,2,2
1511885047349666,-2,0,-5,5,-3,1,3,0
1511885047350663,-1,5,3,-1,-3,1,-6,0
1511885047350663,1,-2,-14,1,2,6,3,-2
1511885047363915,-3,-2,6,-2,-6,-3,-6,0
1511885047363915,-3,-2,-5,1,0,-3,1,-3
1511885047371822,1,0,4,0,1,1,1,-2
1511885047371822,-2,-4,-3,1,-1,-4,-2,1
1511885047386862,1,0,2,-6,-3,0,1,2
1511885047386862,-1,-2,2,4,-1,2,2,1
1511885047395070,4,5,0,-3,-5,2,-1,-1
1511885047395070,-4,-3,3,1,4,1,1,-1
1511885047410036,-3,4,-3,0,-2,-2,2,-1
1511885047410036,-1,-5,4,-4,-4,0,0,0
1511885047410036,1,0,-2,9,5,1,-2,-2
1511885047410036,1,2,-2,-3,-4,0,1,0
1511885047424088,0,-4,-6,3,-6,-3,-4,1
1511885047424088,-4,2,8,-2,3,-1,-1,-4
1511885047431981,-2,1,-5,0,1,-2,-2,1
1511885047431981,0,1,-8,-3,-2,-1,-1,1
1511885047446200,0,-4,0,-3,-2,0,2,-4
1511885047446200,2,4,-1,3,-4,-12,2,2
1511885047455068,-1,-6,9,0,2,9,-1,0
1511885047455068,-1,4,0,-1,-5,-6,1,0
1511885047469170,0,0,6,3,5,5,-3,-4
1511885047469170,2,-2,-6,0,0,-3,1,0
1511885047470172,1,0,4,-4,-3,-4,0,0
1511885047470172,1,-3,4,-2,1,1,-1,-2
1511885047484208,2,-4,-7,-5,-1,-1,-2,1
1511885047484208,0,-6,1,0,2,1,-2,-3
1511885047492257,-1,0,-2,-1,-1,2,7,0
1511885047492257,-1,1,8,4,-1,3,-5,-3
1511885047506271,-5,0,-6,0,-1,-3,-1,-1
1511885047506271,0,2,-3,-2,-2,2,0,-1
1511885047514476,-1,-2,-8,0,-4,-2,-3,-1
1511885047514476,-2,-11,3,-3,-1,-2,0,3
1511885047529384,0,3,5,-1,0,-1,-1,1
1511885047529384,2,0,3,-2,1,2,2,-2
1511885047538406,-4,-3,-13,-3,-1,-2,-1,-1
1511885047538406,3,1,7,0,-1,-3,-1,1
1511885047544398,0,1,-6,0,-3,3,0,-2
1511885047544398,-1,2,2,4,-2,3,-2,2
1511885047560412,-1,-2,-8,-2,-3,-3,0,1
1511885047560412,1,-1,0,-3,0,1,0,-2
1511885047566430,-1,1,-1,0,4,-2,-1,0
1511885047566430,1,1,-2,-1,0,-1,1,-1
1511885047575451,3,5,3,-5,-2,-1,-3,-1
1511885047575451,-3,4,10,8,8,2,2,-1
1511885047589538,0,-6,-16,-2,-5,-2,-3,2
1511885047589538,-3,1,3,-2,-7,-2,-3,0
1511885047597518,-1,-2,1,5,2,-3,-3,-1
1511885047597518,1,2,-6,-6,-3,0,-3,-2
1511885047603642,3,-1,6,1,-2,-1,4,1
1511885047603642,-1,-2,-3,-2,3,2,-1,2
1511885047620759,1,-1,1,0,-2,-2,-1,-1
1511885047620759,3,1,-3,-5,-6,-2,0,-1
1511885047626775,0,0,1,3,-2,0,-2,0
1511885047626775,1,-3,-4,4,1,1,0,-3
1511885047635799,-4,1,3,0,5,-1,1,-2
1511885047635799,-2,-1,-6,-4,-5,-2,-1,1
1511885047648834,1,-1,1,-9,-1,-1,-1,-1
1511885047648834,-3,0,0,-1,-3,2,0,0
1511885047657856,1,-3,-2,4,11,1,-2,-4
1511885047657856,-2,-1,-2,-5,-5,-4,-1,0
1511885047671991,-3,0,-3,0,2,-3,1,0
1511885047671991,-1,-1,1,-2,0,1,2,0
1511885047679916,-1,0,-2,-3,-8,-3,0,-2
1511885047679916,1,-1,-1,3,2,-7,-5,-1
1511885047686932,-1,-1,0,-2,-5,6,2,-1
1511885047686932,0,-1,-2,-4,3,-2,6,-1
1511885047695146,1,-2,0,-2,-5,-5,-4,3
1511885047695146,-1,-2,7,4,1,3,-2,0
1511885047709103,1,-6,-14,0,1,2,3,1
1511885047709103,-2,4,10,1,0,2,-7,-3
1511885047718014,0,-1,4,-1,-2,0,0,-3
1511885047718014,-1,-3,-8,-1,3,0,2,0
1511885047731196,-3,-1,8,0,2,-1,-2,-3
1511885047731196,3,-1,-9,0,-3,-2,-1,1
1511885047740106,-1,4,6,-3,-1,-4,2,0
1511885047740106,-3,-2,1,4,7,2,0,-2
1511885047746122,1,-1,5,-3,-4,-3,-3,-3
1511885047746122,-2,-2,-19,0,2,-1,-1,2
1511885047755190,2,1,1,-3,-2,3,-6,0
1511885047755190,-2,3,1,-1,-2,-1,0,-1
1511885047769432,-4,2,0,2,0,1,-3,0
1511885047769432,0,-3,7,0,-1,-4,0,-3
1511885047777539,-2,1,-5,0,0,3,-4,0
1511885047777539,-3,-3,-9,0,-3,-1,9,-3
1511885047791470,-1,-1,0,0,0,-1,0,1
1511885047791470,0,-4,-1,1,-1,1,-3,0
1511885047800491,-2,-4,-4,0,-1,-2,2,-3
1511885047800491,1,-3,0,-1,-3,-1,-1,1
1511885047806825,-5,2,8,0,0,-2,1,-1
1511885047806825,-1,-8,-13,-1,-1,-2,0,-5
1511885047815008,-1,-1,6,2,2,-1,-1,-1
1511885047815008,-2,-2,1,1,-3,1,-3,0
1511885047829231,1,-1,-4,2,3,-3,1,-1
1511885047829231,-4,3,8,-1,-2,4,-2,-2
1511885047838070,-1,0,-11,-3,1,-1,-1,0
1511885047838070,-1,1,0,1,-3,3,-3,1
1511885047851249,3,2,-5,-4,-4,-2,2,-2
1511885047851249,1,3,4,2,4,-2,2,-2
1511885047860410,-2,-3,4,-2,0,-1,-1,0
1511885047860410,0,-5,-4,-3,1,0,-2,-3
1511885047866429,-1,-4,-3,0,-3,1,-2,-2
1511885047866429,-2,-1,3,-1,2,0,-2,-1
1511885047875451,-3,3,1,2,1,0,0,-1
1511885047875451,0,-2,-4,-3,2,-2,-1,-3
1511885047888487,1,0,1,-2,1,-1,0,-4
1511885047888487,0,2,4,1,-2,-1,0,1
1511885047897512,0,-3,-1,-1,-2,-1,1,2
1511885047897512,-1,3,0,-4,-1,2,1,-2
1511885047911729,-1,-4,-3,-1,-3,0,-3,1
1511885047911729,0,1,3,1,1,0,1,0
1511885047920595,1,-4,-4,-1,-1,0,-2,1
1511885047920595,1,3,1,1,-4,-2,-2,3
1511885047926587,0,-1,5,1,1,-2,-1,-1
1511885047926587,-1,-5,-7,-1,0,-1,-2,-1
1511885047935617,-2,0,1,-2,-3,-1,-2,-1
1511885047935617,1,1,-1,2,3,-3,-2,-1
1511885047948735,-2,-2,-3,0,-2,4,-4,0
1511885047948735,0,1,2,-2,-1,0,1,0
1511885047957882,0,-1,-1,1,-4,1,2,0
1511885047957882,-1,-2,3,-4,-1,-4,2,1
1511885047971910,0,2,-4,0,0,-5,0,1
1511885047971910,1,-1,1,4,3,0,-1,-2
1511885047980907,0,-2,-1,0,-2,-3,-1,-3
1511885047980907,-2,-1,0,2,-5,-2,0,-1
1511885047986922,-1,2,1,0,-1,-2,2,1
1511885047986922,-1,-2,-3,-2,-2,-1,-1,2
1511885047994985,-2,-1,-3,-3,0,-1,-1,-1
1511885047994985,-1,-4,1,-2,0,3,-1,-2
1511885048008986,-2,2,-2,4,3,-1,0,-1
1511885048008986,-2,-1,3,0,-4,-1,-1,1
1511885048018113,1,1,1,-2,-1,-1,-1,-1
1511885048018113,1,-2,-8,-4,0,-1,0,2
1511885048033226,-1,1,5,-1,-4,0,-1,0
1511885048033226,-4,2,-2,-1,-2,0,0,-3
1511885048034228,0,-2,2,1,1,0,0,0
1511885048034228,1,-2,2,-1,-2,1,0,-1
1511885048046257,0,0,-2,-2,-4,-2,-1,0
1511885048046257,1,-3,-4,3,2,-3,1,-3
1511885048055279,3,-1,-2,1,-4,0,1,-1
1511885048055279,-3,1,0,-3,-5,2,-3,0
1511885048068489,0,-2,0,-4,5,5,-2,-2
1511885048068489,2,0,3,0,-6,-1,-3,2
1511885048077702,-3,0,-5,-5,-8,-1,-1,1
1511885048077702,1,-2,1,1,-1,-1,0,-2
1511885048091780,-3,-4,0,-1,-5,1,0,-1
1511885048091780,-2,-1,-2,-6,-8,-2,-2,0
1511885048100903,-1,-3,1,4,5,0,-1,-3
1511885048100903,0,-1,-1,-2,-1,1,0,0
1511885048106844,0,-3,3,2,-5,2,-2,1
1511885048106844,0,2,-5,0,6,-1,0,0
1511885048115845,-4,-5,-1,0,4,-3,-1,0
1511885048115845,0,3,1,-3,-2,-3,-2,-1
1511885048128921,-2,-1,0,-2,5,2,-1,-3
1511885048128921,-2,0,-3,7,2,5,-1,-1
1511885048137903,1,3,2,3,-1,-1,2,0
1511885048137903,-2,-3,1,-5,-10,-3,2,1
1511885048150955,-3,1,-1,11,9,-4,0,-5
1511885048150955,-1,0,0,-14,-7,-2,-4,0
1511885048160006,4,-1,-1,-1,-4,-1,-1,-1
1511885048160006,-1,1,-4,-1,-1,1,-1,-3
1511885048165982,-2,-2,-4,2,0,1,1,1
1511885048165982,-1,-2,1,-4,0,-1,2,1
1511885048175005,-2,-2,-2,-4,-3,-1,1,-3
1511885048175005,2,-1,0,9,6,-2,-5,0
1511885048189046,-1,-1,-1,-5,-4,-2,1,-2
1511885048189046,1,-1,0,-3,-2,2,0,-2
1511885048198064,-1,1,-5,4,5,3,-1,-2
1511885048198064,4,1,2,4,1,-4,-2,1
1511885048211218,2,3,-2,3,3,-3,0,-2
1511885048211218,0,-2,0,-2,-4,-3,0,1
1511885048220161,-3,2,1,4,6,2,0,1
1511885048220161,-2,-3,-3,-7,-3,1,-1,-1
1511885048226138,1,2,-5,6,0,-1,1,2
1511885048226138,-2,-1,4,-1,3,-3,-1,-1
1511885048235203,-4,1,-3,-9,-5,0,-2,-1
1511885048235203,-3,1,4,8,3,2,2,-1
1511885048249199,1,-2,-4,-11,-5,-2,0,-1
1511885048249199,-4,-1,2,2,-1,-1,-3,-1
1511885048258223,1,-4,0,-4,-6,-3,-2,-2
1511885048258223,-3,-1,-1,7,10,2,-2,-1
1511885048271309,0,-1,-2,6,-6,-3,0,-2
1511885048271309,1,1,0,7,-1,-1,1,-4
1511885048280281,1,0,1,-6,-2,1,0,1
1511885048280281,-4,0,-2,-10,-4,-1,0,-1
1511885048286316,-1,-1,3,-3,6,-1,-1,-1
1511885048286316,0,-1,-3,9,-4,3,1,-1
1511885048295320,0,2,-1,9,-2,-1,-1,2
1511885048295320,1,-1,-7,-7,-1,0,0,-2
1511885048308356,-3,-1,4,-6,1,2,-2,0
1511885048308356,-2,-5,-2,0,2,-2,-4,-2
1511885048318455,-1,-3,1,-7,-3,1,-1,0
1511885048318455,1,-1,1,6,3,-1,2,0
1511885048331610,-4,0,-2,-8,-4,1,-1,-1
1511885048331610,-1,0,-2,5,-2,0,0,2
1511885048340533,-2,-1,2,-10,6,1,-3,-3
1511885048340533,1,0,-4,13,-3,-1,-1,-1
1511885048346572,1,-1,0,-5,-1,-2,-2,1
1511885048346572,-1,-3,-4,-7,-1,2,0,-2
1511885048362599,1,1,0,9,5,0,1,-1
1511885048362599,-2,-2,-4,-16,-4,0,-3,-2
1511885048368593,-2,3,-1,4,-5,-3,0,-2
1511885048368593,-1,2,9,3,10,-1,0,-1
1511885048377741,-2,2,-4,-1,-4,3,0,1
1511885048377741,-3,0,7,6,3,2,-2,-3
1511885048391801,3,-1,-4,-4,-3,-3,0,1
1511885048391801,-1,2,0,-16,-5,-2,1,1
1511885048400803,0,-3,1,23,4,-1,-1,0
1511885048400803,1,-2,-2,-3,-3,0,-1,2
1511885048406823,0,-1,0,7,-3,-1,-3,0
1511885048406823,0,-2,-5,-6,-2,2,-1,-1
1511885048415840,1,-1,-3,-6,0,-2,1,-2
1511885048415840,1,-2,-5,-3,-2,-2,-1,-3
1511885048428876,-5,-1,-3,-5,4,-1,-1,-3
1511885048428876,-1,-2,0,3,1,1,0,-1
1511885048437898,0,-1,2,-4,-3,-1,0,-3
1511885048437898,0,-2,-3,3,2,-1,-2,0
1511885048450935,0,0,1,-2,-1,1,2,-1
1511885048450935,-1,1,-4,-2,-3,-2,0,0
1511885048459979,-3,-1,-2,-3,8,2,-1,-4
1511885048459979,-2,0,2,0,-2,-3,0,0
1511885048465975,0,0,4,14,16,4,-1,-1
1511885048465975,0,-3,-5,-3,-4,-3,0,1
1511885048474996,0,-1,-3,-2,-2,-1,-2,-2
1511885048474996,-2,0,-2,-4,-1,-2,0,0
1511885048489218,2,-2,1,-8,-8,3,-2,1
1511885048489218,-2,-1,2,5,1,1,-3,-3
1511885048498057,2,-4,-5,0,4,-3,1,1
1511885048498057,1,2,7,-2,-4,1,-1,-1
1511885048511266,-1,-2,-4,2,-3,-3,2,0
1511885048511266,0,0,3,-8,2,4,-2,-2
1511885048528177,1,0,2,-7,-11,-5,-2,0
1511885048528177,5,3,-1,4,0,4,2,0
1511885048529142,0,-1,0,-6,-1,-2,3,2
1511885048529142,0,3,-2,1,-2,-2,2,2
1511885048535160,-3,-1,1,-1,-4,-1,-1,1
1511885048535160,-1,0,-5,-3,1,1,-1,-1
1511885048549285,0,0,0,0,-2,1,0,-1
1511885048549285,-1,-4,-4,2,5,-1,2,-1
1511885048565323,-2,-1,-2,-1,0,-3,-1,0
1511885048565323,0,0,-2,-1,-1,-1,-1,-1
1511885048571457,-1,-1,-2,-1,-3,-4,-4,-2
1511885048571457,0,1,-1,2,-1,-1,-1,-2
1511885048580596,-3,-2,2,2,0,-2,-3,-1
1511885048580596,-2,-2,0,-3,-3,-2,0,0
1511885048595729,1,1,0,2,1,0,-4,-2
1511885048595729,0,0,0,-4,-4,-1,0,-2
1511885048596662,-3,3,0,4,-2,1,-1,-2
1511885048596662,0,-4,-3,-1,-5,-2,3,-3
1511885048608831,-1,1,-2,-1,2,2,-1,-2
1511885048608831,-1,1,0,1,-1,-3,-3,0
1511885048617694,1,-3,-4,1,-2,3,2,-1
1511885048617694,-2,-3,-1,-4,2,-2,0,-1
1511885048631871,-1,-1,-3,-3,-4,1,-2,-1
1511885048631871,-3,0,-1,3,-3,-4,1,0
1511885048640072,0,1,-2,-1,0,-1,-5,0
1511885048640072,-3,-5,1,-1,-1,1,-1,0
1511885048655120,-1,-4,2,1,1,-1,1,0
1511885048655120,0,0,-1,-4,-4,1,-1,0
1511885048657109,0,-1,0,-3,-2,-4,1,-1
1511885048657109,-1,3,2,-11,0,0,-3,-1
1511885048669151,-3,1,-1,13,10,2,-2,-2
1511885048669151,3,-3,2,2,-1,2,-1,-2
1511885048678231,-2,0,2,-4,-1,0,3,1
1511885048678231,-1,5,-3,8,3,-1,-1,-4
1511885048691338,-1,-4,0,-7,-4,-2,0,-1
1511885048691338,-1,-2,-2,-3,-1,0,-1,-2
1511885048700292,1,1,3,3,-2,1,-1,0
1511885048700292,-3,0,-1,-6,-1,1,2,1
1511885048715355,-1,-2,3,-5,-2,-1,0,0
1511885048715355,0,0,3,6,0,-2,-1,-1
1511885048717336,1,0,-3,-5,-4,0,1,-1
1511885048717336,1,-1,2,0,-1,-3,0,1
1511885048728365,0,-1,-4,-3,-4,-1,-2,-1
1511885048728365,-4,-1,3,-10,-4,-3,-1,0
1511885048737389,-1,-5,0,2,2,-3,-1,-3
1511885048737389,-1,0,2,8,5,-4,-2,0
1511885048751427,1,-1,-3,-23,-8,-3,0,0
1511885048751427,-1,-1,-4,14,1,-1,0,-1
1511885048760450,-1,-1,-2,-15,-1,2,1,0
1511885048760450,-5,-4,-4,14,-6,-1,0,-1
1511885048775494,2,0,0,5,-1,-3,-1,3
1511885048775494,1,1,-1,-21,1,0,0,-3
1511885048776577,0,2,3,14,-3,-1,0,-2
1511885048776577,-2,1,5,-2,-2,2,-1,-2
1511885048788528,-4,-3,-13,-11,1,0,1,0
1511885048788528,0,-4,-1,26,2,5,-1,-2
1511885048797553,-2,2,1,-11,1,-4,-1,-2
1511885048797553,-2,3,2,-13,-5,-2,-4,-2
1511885048811731,-3,0,0,12,1,1,-2,1
1511885048811731,0,-2,3,7,-1,-5,-2,0
1511885048820780,2,-4,-3,-4,-1,1,-1,-2
1511885048820780,0,-5,-6,-21,2,0,-2,0
1511885048834791,0,3,8,12,-1,-3,-2,-5
1511885048834791,0,-2,-17,3,6,0,-3,1
1511885048836799,-2,2,4,-5,-5,-1,-2,1
1511885048836799,-1,0,-4,1,1,4,-1,-1
1511885048848831,0,1,-1,2,-2,1,1,-2
1511885048848831,-1,0,1,-2,-2,0,1,0
1511885048857850,-2,0,0,12,0,-4,-3,-1
1511885048857850,-2,2,-1,-9,1,2,-1,-4
1511885048871030,-4,-1,-8,23,0,1,-3,0
1511885048871030,0,-1,7,-9,-2,-4,-1,-1
1511885048880127,0,-1,-9,6,2,3,2,0
1511885048880127,-2,-1,8,-6,-1,-2,-1,0
1511885048895368,0,-1,-2,6,-2,0,-1,1
1511885048895368,-4,-4,-4,-7,2,2,0,0
1511885048897172,0,1,15,-13,2,0,-5,-4
1511885048897172,3,2,-12,5,0,-3,0,3
1511885048909387,0,-2,8,-6,0,1,0,-1
1511885048909387,-5,1,-3,-10,-2,1,-1,-2
1511885048917449,1,-5,-1,24,3,1,1,-2
1511885048917449,-3,3,2,4,1,1,1,1
1511885048931488,-1,1,-4,5,-1,-2,1,2
1511885048931488,0,2,2,-7,1,-2,-3,2
1511885048940509,2,3,0,2,-1,-1,-3,-3
1511885048940509,-1,-8,-14,-2,-2,-1,-1,0
1511885048955570,-2,-1,7,-7,-2,0,2,-3
1511885048955570,1,0,-7,-2,-2,0,-2,-1
1511885048956579,-3,2,-6,-3,-4,-1,-4,0
1511885048956579,0,-2,4,9,3,-1,0,-2
1511885048968623,0,-1,7,-2,0,-4,-1,0
1511885048968623,0,1,-11,1,-1,1,2,-1
1511885048977634,-3,-2,4,-3,-3,-1,2,0
1511885048977634,1,-12,-11,4,-3,0,-1,1
1511885048991650,-2,2,4,0,1,-2,-1,-3
1511885048991650,0,-5,-12,-11,-1,-3,1,0
1511885049000671,0,-1,-3,6,0,1,-2,-1
1511885049000671,-2,3,3,-5,-1,-2,-1,-3
1511885049015711,-2,-2,-6,-7,-1,0,0,-3
1511885049015711,-3,2,11,-3,-1,3,-4,-1
1511885049016714,-2,2,2,15,0,2,-2,3
1511885049016714,2,1,-7,-2,0,-1,-1,1
1511885049028785,0,0,-2,-4,-1,0,-5,-1
1511885049028785,1,5,1,0,1,-2,1,-2
1511885049037791,-3,-4,2,-4,1,1,0,-1
1511885049037791,1,2,8,2,-2,-3,1,-1
1511885049051806,3,-8,-4,-6,2,0,-2,5
1511885049051806,-10,2,5,3,0,-1,-2,-5
1511885049060827,10,3,-2,-12,-2,-1,-2,2
1511885049060827,0,3,-5,1,-3,1,-2,1
1511885049074869,1,-1,-3,1,1,1,1,0
1511885049074869,-1,-1,6,8,-2,3,-1,1
1511885049076873,3,2,3,-2,-1,-4,1,1
1511885049076873,-1,0,1,0,2,-3,-2,-3
1511885049088905,6,-4,-4,-1,0,-2,1,0
1511885049088905,1,-1,1,1,-2,-1,-3,-1
1511885049098004,-9,-2,-14,-4,-1,0,3,-6
1511885049098004,2,2,13,4,3,0,-1,2
1511885049111114,-3,-5,0,-12,-2,1,-1,0
1511885049111114,6,7,-11,16,2,0,0,-2
1511885049120018,-4,-6,0,-15,2,-1,0,-2
1511885049120018,-5,-3,1,5,0,0,-1,-3
1511885049135057,2,3,-6,-2,-5,-1,0,-5
1511885049135057,2,-5,-1,-8,-2,1,-2,2
1511885049137059,-2,0,-2,-2,0,-2,-2,0
1511885049137059,0,-3,4,-2,-2,2,1,3
1511885049149091,-4,2,1,2,0,-3,-1,-1
1511885049149091,-1,1,-2,-4,-3,-5,-4,1
1511885049158121,2,-1,-8,-1,-2,0,-4,-3
1511885049158121,2,1,5,0,-3,-2,2,0
1511885049171198,-3,4,-3,-3,1,-1,0,2
1511885049171198,-2,0,21,2,-3,-1,1,-3
1511885049180174,2,-4,-27,-1,0,0,1,2
1511885049180174,-2,4,3,0,-3,1,1,-2
1511885049195214,-1,0,7,2,0,2,-4,-3
1511885049195214,0,-1,0,0,0,2,1,0
1511885049197221,-7,2,7,0,1,0,-1,-3
1511885049197221,-1,-8,-11,0,1,-2,-2,-1
1511885049209262,-2,-1,4,1,-1,4,0,-2
1511885049209262,1,-2,-4,0,-3,1,2,0
1511885049218275,-3,-1,5,-2,-3,-2,-3,-2
1511885049218275,-1,0,-3,2,-4,-2,0,-2
1511885049231311,-2,-2,-6,0,1,-2,-1,0
1511885049231311,0,1,-2,-2,1,-1,1,4
1511885049240335,4,-1,2,1,-1,0,-2,-2
1511885049240335,-3,-1,5,1,-1,0,-5,0
1511885049255373,3,-4,-23,-2,-2,0,0,-2
1511885049255373,-2,0,0,0,-3,-2,3,0
1511885049256398,-2,-1,0,2,-1,0,-1,0
1511885049256398,-1,-1,-2,-4,-1,-1,-1,-2
1511885049269495,-3,2,11,0,-1,0,-1,0
1511885049269495,1,-2,-6,-4,-1,-5,-2,0
1511885049277558,-1,-3,0,-3,-1,-7,1,-1
1511885049277558,1,2,-3,-1,-3,9,2,1
1511885049291471,1,0,4,4,-1,-7,0,-2
1511885049291471,-1,-2,-3,-1,-2,-3,-3,0
1511885049300494,-3,-1,3,3,0,2,4,0
1511885049300494,-2,-4,-3,-7,2,2,-1,1
1511885049315537,-5,-1,5,8,5,6,-3,-2
1511885049315537,-1,-3,-7,-3,5,-2,-1,1
1511885049316540,1,2,2,-1,-7,-5,1,0
1511885049316540,1,-3,-4,-3,-4,0,-3,0
1511885049328757,2,-2,-4,1,-5,-3,-1,-2
1511885049328757,-1,3,4,-7,-1,-3,1,1
1511885049337597,2,-1,2,3,3,6,0,-1
1511885049337597,1,0,-5,-3,-5,-13,2,0
1511885049351686,0,0,2,2,0,-2,-3,1
1511885049351686,0,-2,-1,2,-4,2,-4,-2
1511885049360654,0,-1,-1,-10,-8,1,1,-2
1511885049360654,0,2,4,25,6,4,0,1
1511885049375705,-2,-1,-3,-5,-2,0,1,0
1511885049375705,-3,-4,-1,-2,0,2,0,-2
1511885049376699,1,4,-3,-14,-3,-1,-4,2
1511885049376699,-1,-2,3,12,6,-1,3,-3
1511885049388729,2,3,-1,-6,-6,-4,2,3
1511885049388729,-3,-4,-4,-3,-3,1,-1,-4
1511885049397759,0,2,7,7,4,-4,-2,-1
1511885049397759,1,-5,-2,-9,-5,1,-10,1
1511885049411836,-1,1,1,-1,1,-8,-1,0
1511885049411836,0,-2,4,-7,1,3,1,-1
1511885049420820,-2,-1,-4,5,-5,-3,-1,1
1511885049420820,-2,-2,-8,-6,-2,3,2,-1
1511885049434854,0,-1,15,-6,-2,0,-2,-1
1511885049434854,-2,-2,-20,24,0,-1,-13,-2
1511885049441873,-1,0,6,-7,-2,-2,-4,3
1511885049441873,2,1,-6,0,1,-6,-1,-1
1511885049448978,0,-2,-1,-11,-1,0,1,-1
1511885049448978,0,-2,3,2,11,-5,0,0
1511885049457913,1,0,-1,3,-3,5,0,-2
1511885049457913,-2,3,-2,-5,-3,-5,3,-3
1511885049471211,-3,0,-3,-2,-4,0,1,-1
1511885049471211,2,1,6,-3,-4,4,4,-2
1511885049480107,-2,-4,-1,6,5,-1,2,1
1511885049480107,1,-1,-1,-4,0,-2,0,1
1511885049494148,-1,-2,-7,7,2,1,-1,-2
1511885049494148,0,4,18,3,0,2,0,-2
1511885049501163,0,2,-10,-4,0,2,0,-2
1511885049501163,-2,-3,-3,4,1,-1,-6,-3
1511885049518356,-2,-1,-7,0,1,2,-7,2
1511885049518356,2,0,13,-5,-1,0,14,-2
1511885049519215,0,-4,-7,2,0,-2,0,-4
1511885049519215,0,-7,3,1,5,-2,-1,-1
1511885049531565,-1,-1,-9,0,-1,0,-4,0
1511885049531565,-4,-2,4,0,-3,0,-7,-1
1511885049540409,-2,-1,0,2,0,1,-1,2
1511885049540409,-1,3,1,-2,-2,4,5,-2
1511885049554450,-4,-9,-8,2,-2,1,1,-2
1511885049554450,-2,0,-11,-9,-1,-2,2,-1
1511885049561593,-2,-3,-1,-3,1,2,0,-3
1511885049561593,0,1,-2,13,-3,1,-4,-1
1511885049577616,-2,2,1,-16,0,-1,0,-3
1511885049577616,-2,-4,-3,20,4,2,-3,1
1511885049579514,-2,-4,0,-6,-3,0,-5,1
1511885049579514,-2,1,-1,-8,-3,2,0,-3
1511885049591684,-2,-1,-1,-2,-1,1,-1,-2
1511885049591684,0,-3,-4,-5,-4,-2,-8,0
1511885049600879,0,-1,6,6,9,-3,2,3
1511885049600879,-1,-1,-4,2,2,-1,0,0
1511885049615062,0,0,11,-1,-5,3,3,0
1511885049615062,-3,-2,-5,-7,-2,-3,-2,-4
1511885049621097,1,-3,-7,2,0,-1,-1,-1
1511885049621097,-2,-1,2,1,4,2,-2,1
1511885049638269,4,-3,-6,-3,1,-2,-3,1
1511885049638269,0,-1,1,14,-4,0,0,0
1511885049639187,-3,3,0,-1,-1,2,13,-2
1511885049639187,-2,-3,0,-4,-2,-1,-3,4
1511885049651222,-2,4,5,2,4,3,0,2
1511885049651222,-1,-2,0,-7,-5,0,5,-1
1511885049660243,0,0,0,0,-3,-4,-4,-2
1511885049660243,-3,-4,7,-1,-7,-1,2,-1
1511885049674465,-1,2,-5,0,-2,-2,2,1
1511885049674465,-3,-1,-6,-2,-2,1,2,2
1511885049681516,-1,3,0,4,3,1,-6,-2
1511885049681516,2,-2,-3,-3,-2,-4,0,0
1511885049697559,0,-3,5,2,1,2,-1,1
1511885049697559,-2,-1,-11,-6,4,-4,0,-2
1511885049699567,-1,-2,2,-2,0,-2,-1,-1
1511885049699567,1,0,-6,5,2,-4,2,-1
1511885049711602,-2,-1,3,3,-5,0,3,-1
1511885049711602,1,-2,-2,-7,-1,-2,-3,-1
1511885049720624,1,-5,-1,-1,0,1,-1,1
1511885049720624,-2,2,6,-3,0,0,-5,-2
1511885049734692,-1,-1,-4,6,-2,2,1,-4
1511885049734692,3,4,0,0,-4,2,-1,1
1511885049741821,0,3,-3,-3,-2,0,0,1
1511885049741821,1,-1,1,0,2,2,0,-2
1511885049757952,1,-4,-1,-3,-2,-2,-1,-4
1511885049757952,0,-1,-2,3,2,2,-3,1
1511885049759863,-3,1,1,2,-7,-1,-2,0
1511885049759863,-4,-2,4,-3,-2,-3,2,1
1511885049771894,4,0,-4,-1,2,0,0,0
1511885049771894,-3,-1,0,3,0,2,26,-6
1511885049780017,0,-1,-3,-3,-4,-1,-5,-2
1511885049780017,0,3,4,-4,2,1,-1,-3
1511885049795075,-3,-1,0,3,-2,-3,1,-1
1511885049795075,-1,-1,0,1,5,-4,-4,1
1511885049801067,-1,0,10,1,-2,-2,0,0
1511885049801067,2,1,-18,-5,-6,-3,2,2
1511885049818219,-2,5,9,4,-1,-2,-1,0
1511885049818219,-3,1,1,-2,1,-2,-7,-2
1511885049819224,-1,-3,-1,-1,1,-1,-1,-2
1511885049819224,-2,-3,6,1,1,-1,-4,-2
1511885049831259,0,0,-4,0,-2,-1,-2,0
1511885049831259,0,-1,-2,-3,-1,-2,-6,-2
1511885049840395,2,0,0,1,-3,1,8,0
1511885049840395,0,-1,1,-5,4,1,-1,-3
1511885049854617,1,-3,0,1,0,-1,1,2
1511885049854617,-2,2,3,-2,-3,-2,-1,1
1511885049861620,0,0,-2,0,-4,0,-5,-1
1511885049861620,-1,-2,-1,1,-2,0,2,1
1511885049877673,0,-2,-4,2,2,-4,-4,-2
1511885049877673,-2,-4,2,-2,-1,-1,-6,1
1511885049879501,-1,1,0,0,0,0,-2,-1
1511885049879501,0,2,-2,-3,2,-3,1,0
1511885049891532,-1,1,0,3,2,-3,1,2
1511885049891532,4,-1,-4,-5,-5,-2,1,0
1511885049900555,-1,0,-5,0,6,-2,-1,0
1511885049900555,3,5,2,1,-7,1,2,4
1511885049914595,0,0,0,-4,-6,-1,-1,1
1511885049914595,1,4,-1,1,0,-4,-1,1
1511885049921614,1,-2,-3,-4,0,-1,0,-2
1511885049921614,-1,-3,-2,0,0,2,-2,-2
1511885049937658,-4,-2,-1,-2,-1,4,-11,-5
1511885049937658,0,0,-4,0,-2,-2,-2,0
1511885049939788,-1,0,2,-7,4,1,0,-1
1511885049939788,1,-2,-4,4,-2,-1,-2,1
1511885049951731,-1,0,-3,8,1,-3,1,-3
1511885049951731,0,-4,3,-3,-5,-1,-2,1
1511885049960843,-2,-3,-4,-6,-2,2,-1,-1
1511885049960843,0,2,-2,0,-4,0,2,-2
1511885049974884,1,-1,2,1,8,0,2,2
1511885049974884,-2,0,-2,-5,0,2,-8,-4
1511885049980929,0,1,-2,1,-4,-1,1,2
1511885049980929,-2,-2,6,3,-3,-2,-2,-2
1511885049997975,-1,-2,0,-4,-5,2,-1,-1
1511885049997975,-3,-2,-4,4,2,2,-3,-3
1511885049998939,-1,-3,-1,2,7,1,-1,0
1511885049998939,1,-2,2,-2,-4,1,-2,-2
1511885050012011,-1,-3,-2,3,3,-1,2,-1
1511885050012011,-1,1,-1,3,0,0,-1,1
1511885050020100,0,1,0,2,-3,1,-1,-2
1511885050020100,0,4,0,-4,0,3,-1,-2
1511885050035037,0,2,-1,-2,0,-1,-7,1
1511885050035037,-2,-1,9,-5,-5,0,1,0
1511885050041052,0,-3,-15,7,1,-5,1,0
1511885050041052,-3,4,9,0,3,-1,-1,0
1511885050058097,0,-1,0,-4,-5,1,-2,-4
1511885050058097,0,-1,-2,-1,1,2,2,0
1511885050059137,-3,2,9,1,5,-1,0,0
1511885050059137,-4,-3,-5,-1,3,0,-1,-2
1511885050071132,2,-1,-2,-4,-3,-2,5,1
1511885050071132,0,0,-4,0,-3,-4,-1,0
1511885050080154,1,-4,4,5,-2,-1,1,0
1511885050080154,-1,-3,-5,-6,-2,0,-3,0
1511885050094295,-3,2,3,-1,-2,-2,1,-1
1511885050094295,-1,-2,1,0,-1,1,-3,-2
1511885050101212,-1,-2,-1,-3,-2,-1,-3,0
1511885050101212,-5,-4,-5,2,-1,1,0,-2
1511885050117357,0,-2,-4,-2,0,1,-1,-3
1511885050117357,2,0,4,1,-1,-2,-1,-1
1511885050119256,0,-2,-2,-2,0,0,-3,-1
1511885050119256,1,0,0,4,5,-3,0,1
1511885050131420,-2,-1,-5,-2,-1,-2,0,-1
1511885050131420,-3,0,-2,-3,1,1,-6,-1
1511885050140445,-1,0,2,1,0,-2,-4,2
1511885050140445,-1,2,1,0,-1,0,3,-3
1511885050154523,0,0,-1,-4,-5,-1,2,2
1511885050154523,-1,-4,-6,3,4,-1,0,0
1511885050161628,-1,-1,-2,-6,-5,1,0,-2
1511885050161628,0,0,1,-12,-3,-5,0,1
1511885050177658,-1,-2,1,10,4,0,-1,0
1511885050177658,1,2,0,-3,-7,1,-1,0
1511885050179632,-3,1,-3,1,1,3,1,-3
1511885050179632,2,-1,-3,1,-5,-3,-2,2
1511885050191707,-3,-1,0,-2,0,1,-1,-1
1511885050191707,-2,-4,0,-3,-4,-4,3,0
1511885050200707,-2,0,-5,-1,-4,-4,0,-1
1511885050200707,0,-1,0,-1,-1,3,-2,-1
1511885050214811,-2,1,-2,0,1,1,-1,-3
1511885050214811,2,0,1,-1,-2,1,-3,-2
1511885050221843,1,2,-1,-2,-3,0,-2,-2
1511885050221843,-3,-3,1,5,2,0,1,-3
1511885050237871,0,-2,3,12,-2,-3,-1,1
1511885050237871,0,-1,-1,-2,-2,0,2,0
1511885050239927,-1,1,0,-7,-6,-1,-1,0
1511885050239927,1,0,5,2,-2,0,0,1
1511885050251928,-3,-1,-5,-2,0,-1,-2,-2
1511885050251928,-1,1,1,2,-5,1,-2,1
1511885050260024,-2,-1,2,1,4,-4,-3,-3
1511885050260024,0,-1,-7,2,2,0,4,0
1511885050274965,1,0,-2,-15,-5,1,-4,1
1511885050274965,-2,-1,-3,9,0,0,1,-1
1511885050280985,1,-1,3,-2,-2,2,0,2
1511885050280985,-2,1,0,4,3,-4,-2,0
1511885050298149,-3,-2,0,-5,-2,-3,-2,-3
1511885050298149,-2,-2,0,-10,6,0,0,-2
1511885050299036,2,2,-6,19,-1,4,-1,2
1511885050299036,-3,-2,2,-7,-2,1,0,-2
1511885050311065,-1,0,1,24,-2,0,0,2
1511885050311065,-2,-5,-1,-7,6,-2,-2,-2
1511885050320085,-1,0,-1,-1,0,0,0,0
1511885050320085,0,1,-1,-6,-5,-2,-4,-1
1511885050334126,1,3,-1,-5,0,0,3,0
1511885050334126,0,-2,-1,4,-4,0,-2,0
1511885050341144,-1,-3,0,-8,0,-4,0,-1
1511885050341144,-3,-2,-1,1,1,-2,-3,-1
1511885050357188,0,-5,-2,-6,0,1,1,0
1511885050357188,2,3,-1,-1,-1,0,0,2
1511885050364205,0,0,0,0,2,2,-1,-3
1511885050364205,-2,-1,0,-3,-2,-2,-1,-2
1511885050371426,0,0,-3,-2,-2,-2,-2,-1
1511885050371426,1,2,-1,-1,-1,-2,2,2
1511885050380247,-2,-1,-5,-18,0,-1,-2,-2
1511885050380247,-3,3,-3,19,1,-4,-1,-4
1511885050394462,2,0,-6,0,7,1,0,1
1511885050394462,0,0,-2,-1,-2,0,-2,-1
1511885050401306,-2,1,2,-2,-2,0,-1,0
1511885050401306,4,-1,-3,-5,-9,3,-1,1
1511885050417347,-3,0,0,-1,-1,2,1,-1
1511885050417347,-1,3,-6,2,3,2,2,-2
1511885050423569,0,-5,-3,2,-2,-1,0,-1
1511885050423569,3,-3,-2,-2,1,-2,-6,1
1511885050431582,0,3,5,4,-1,-1,0,0
1511885050431582,1,-2,-1,1,-2,-2,-2,0
1511885050440486,-1,-3,0,-3,-5,0,-2,-3
1511885050440486,-1,0,-1,10,3,3,8,1
1511885050454711,1,2,-2,-5,3,0,-3,-1
1511885050454711,-3,0,5,0,-1,0,-2,-1
1511885050461924,3,0,-6,5,-2,-3,0,1
1511885050461924,-3,-1,0,-5,4,-1,1,1
1511885050476931,-1,2,2,0,-4,0,1,2
1511885050476931,0,-2,0,2,0,1,3,-1
1511885050483916,1,1,1,5,-2,-2,-1,1
1511885050483916,0,1,-1,-4,3,-1,-1,1
1511885050499873,-3,-4,-2,-2,-2,1,-3,-3
1511885050499873,-2,1,2,-5,-5,-5,-1,-1
1511885050501875,-1,0,3,7,-1,-1,-3,1
1511885050501875,0,-2,0,-2,-1,0,-2,0
1511885050515052,1,-1,-1,-5,-3,-1,0,-1
1511885050515052,1,0,-3,-1,0,-1,1,1
1511885050521072,-1,1,5,0,1,-1,2,-4
1511885050521072,-4,-3,-3,1,-2,0,0,-2
1511885050537246,1,-1,0,2,2,-3,1,0
1511885050537246,0,0,4,2,-1,3,2,0
1511885050544265,-1,-2,-3,-6,2,2,1,0
1511885050544265,-1,1,4,-3,-3,2,-5,-1
1511885050560309,1,-2,-4,-7,-3,-5,-4,0
1511885050560309,-3,-4,-2,4,7,2,1,-3
1511885050562275,-1,0,-3,-4,-2,1,-2,0
1511885050562275,0,-1,-1,-2,-3,-3,-2,-1
1511885050574344,-2,-3,-1,-4,0,0,0,-1
1511885050574344,-2,-2,-2,0,1,-3,-6,-2
1511885050581325,0,-4,0,5,0,0,0,0
1511885050581325,-1,-1,-2,-1,-3,2,1,-1
1511885050597365,-2,2,2,2,-2,-2,4,-1
1511885050597365,2,0,-2,-5,-1,-1,-4,-2
1511885050604406,-3,1,0,-3,-5,-2,0,0
1511885050604406,-1,2,-1,4,6,-1,-1,0
1511885050620428,1,1,3,1,-2,-1,1,0
1511885050620428,1,-2,1,0,-2,1,-1,0
1511885050621432,-2,2,0,-1,3,-3,0,2
1511885050621432,-1,-2,-2,-3,-3,-3,-2,-2
1511885050634466,-3,-1,2,-1,0,-1,-2,-1
1511885050634466,-1,3,2,2,3,-2,2,-1
1511885050641481,0,-5,-4,-1,-2,-1,-5,0
1511885050641481,1,-2,-2,-4,0,0,6,-1
1511885050657647,-1,1,0,2,0,1,0,-1
1511885050657647,-1,-4,-4,3,4,-1,1,0
1511885050663563,-4,1,2,-4,1,-1,-1,-2
1511885050663563,5,1,-3,10,3,0,-1,2
1511885050680630,0,-3,-1,-6,-4,2,0,-2
1511885050680630,-2,2,-3,-3,-1,-1,-1,-3
1511885050681604,0,0,0,2,0,2,-1,-2
1511885050681604,-4,-2,-3,-8,-1,-1,-6,-1
1511885050694627,2,-2,2,8,9,1,1,1
1511885050694627,-1,1,-5,-2,-7,-4,-2,-1
1511885050701644,0,0,4,-1,-1,0,0,0
1511885050701644,-2,2,0,-2,1,4,0,-1
1511885050716778,-1,1,0,2,-4,-1,1,-2
1511885050716778,-1,0,-1,3,7,1,5,1
1511885050723797,2,-2,0,0,-1,-1,-1,-2
1511885050723797,-3,-3,-3,4,-5,3,-2,0
1511885050739940,1,2,-3,4,4,2,2,0
1511885050739940,0,-2,1,-2,-2,-1,-2,-3
1511885050741841,0,-1,-5,-2,0,-2,0,-1
1511885050741841,1,-1,2,-3,0,4,2,-2
1511885050754881,-3,-1,0,1,0,1,-3,0
1511885050754881,1,-2,-3,0,-5,-1,-4,-1
1511885050761895,0,-5,1,3,-2,1,2,2
1511885050761895,0,-1,-1,-3,1,-4,-3,-1
1511885050777118,-2,-2,-3,-2,-4,-2,0,0
1511885050777118,2,-1,1,3,-3,1,0,-1
1511885050784097,-2,1,3,-5,-2,-5,-2,-1
1511885050784097,2,-1,-1,-1,-2,-1,-2,-2
1511885050800141,-3,-3,-5,-3,1,0,-1,-2
1511885050800141,-1,1,1,-3,1,1,-6,2
1511885050802146,1,-2,-4,1,-4,-2,5,-2
1511885050802146,-2,1,-1,-2,-2,-3,0,-2
1511885050814403,-1,1,-2,1,2,-1,-3,-3
1511885050814403,-1,-5,-1,-2,-4,-1,-2,0
1511885050821313,-1,0,-3,-2,-2,-1,-1,2
1511885050821313,-2,1,3,-1,5,-2,-2,-2
1511885050837394,0,-1,-1,-4,-6,-1,-4,-2
1511885050837394,-1,-2,-3,-4,1,-1,4,1
1511885050844396,0,6,3,9,2,1,-1,-2
1511885050844396,0,-5,-6,-6,-6,-5,0,-1
1511885050860612,-1,0,2,2,4,3,-2,0
1511885050860612,0,-2,-2,-4,-3,-1,-3,0
1511885050861597,-1,-2,0,-4,1,1,-4,0
1511885050861597,1,0,-2,0,-1,-4,-2,-2
1511885050874574,-3,-1,-2,1,1,-1,0,-1
1511885050874574,1,1,0,0,-2,-1,1,-1
1511885050881472,0,0,-2,1,1,-2,1,-1
1511885050881472,-2,0,3,-1,-4,0,2,2
1511885050897511,0,-4,-6,-1,-7,0,-2,1
1511885050897511,-3,1,1,1,-1,2,-1,-2
1511885050904533,-1,2,-1,-4,-3,-1,0,2
1511885050904533,2,0,0,3,4,2,0,-1
1511885050920757,2,0,-1,-4,-5,-5,1,0
1511885050920757,-1,-1,0,2,-1,3,-1,-1
1511885050921698,2,-2,0,-2,-3,0,4,-3
1511885050921698,0,1,-8,-3,-3,0,-1,1
1511885050934613,-3,4,6,3,3,-1,1,0
1511885050934613,1,1,-4,1,0,-1,0,-2
1511885050941755,-2,-2,-1,4,1,1,0,-3
1511885050941755,-2,1,2,-1,-4,2,-1,0
1511885050956791,1,-4,-1,-3,-1,1,0,0
1511885050956791,-2,-3,-4,3,-2,1,0,0
1511885050963811,0,-1,0,-1,2,0,-4,-2
1511885050963811,0,-1,-1,2,1,-2,-1,-1
1511885050980035,0,-2,-1,0,-1,2,-2,-2
1511885050980035,0,2,-4,-4,0,0,1,0
1511885050981859,2,2,-2,2,-1,2,-2,0
1511885050981859,0,-2,0,-3,-1,0,-3,-2
1511885050994037,-2,3,1,-1,1,1,-1,0
1511885050994037,-1,2,0,2,-3,-2,-3,-2
1511885051002943,-3,-1,-3,-6,0,-2,2,-3
1511885051002943,-1,-2,3,4,-2,1,0,0
1511885051016980,-1,1,-1,2,5,0,-1,-2
1511885051016980,2,-1,0,-1,-3,0,0,1
1511885051024027,-2,-2,0,-4,-1,0,1,0
1511885051024027,-4,-3,-3,-2,-2,-1,-2,1
1511885051040042,-1,0,0,-2,-5,-1,-2,-2
1511885051040042,1,-2,3,4,5,0,1,2
1511885051042047,-2,2,-4,3,1,1,-4,-1
1511885051042047,-3,-2,0,-2,4,-2,0,-3
1511885051054079,-3,0,-1,-1,0,1,8,-2
1511885051054079,2,-2,-4,-2,1,-1,-2,0
1511885051063103,1,2,-3,3,-5,-1,0,0
1511885051063103,0,-2,3,0,0,0,-2,0
1511885051077146,0,2,-2,-1,-3,0,0,-1
1511885051077146,-3,3,-1,3,0,-3,0,-1
1511885051084159,1,-4,-2,0,-3,0,-3,0
1511885051084159,1,1,2,2,-3,1,2,0
1511885051100203,-1,-4,-2,0,2,-2,-2,0
1511885051100203,-2,-5,2,-4,-3,-3,-3,0
1511885051102206,-3,0,1,0,0,1,0,-3
1511885051102206,-4,3,-5,0,-1,-3,0,1
1511885051114239,-1,-2,2,0,2,0,-3,1
1511885051114239,2,-1,4,-1,-4,0,3,-3
1511885051123445,-3,3,0,-5,0,2,-8,2
1511885051123445,1,-1,-5,5,7,2,2,-3
1511885051137303,0,0,-1,2,1,-1,-3,-1
1511885051137303,-2,1,1,2,1,0,-1,-1
1511885051143621,1,-2,0,2,-1,-1,-2,-3
1511885051143621,2,-4,-4,-1,-6,0,-1,1
1511885051160465,0,0,3,-5,-9,-3,-2,0
1511885051160465,1,-2,-3,2,2,1,1,0
1511885051161480,-2,-2,-1,1,-2,1,0,0
1511885051161480,-2,0,7,-2,-5,4,-2,-3
1511885051173661,0,-1,-4,-3,1,-1,-4,-1
1511885051173661,-1,-3,2,-2,1,-3,-1,0
1511885051182526,-2,0,-2,4,0,-3,1,0
1511885051182526,2,2,-1,-2,-2,-1,2,-1
1511885051197609,0,0,-2,3,-1,1,-3,-1
1511885051197609,1,1,-1,-1,-2,2,3,0
1511885051203615,0,0,-1,-2,-1,0,2,2
1511885051203615,1,-2,0,-2,2,-1,0,-3
1511885051220679,-2,0,-1,1,3,-2,0,-2
1511885051220679,0,-1,-8,-15,-3,3,-3,-2
1511885051221627,0,-1,4,7,-3,-5,-1,-1
1511885051221627,1,-3,-7,3,-3,-3,-2,-2
1511885051233710,-2,0,-1,-2,-1,-3,-1,2
1511885051233710,-1,-1,0,0,-1,3,-3,-2
1511885051242683,3,-2,-4,-9,1,1,2,-1
1511885051242683,-1,2,-3,-2,-2,-4,-3,1
1511885051256823,1,-1,-1,1,1,1,1,1
1511885051256823,-1,2,0,-1,-1,-3,-3,2
1511885051263748,-4,-2,1,-1,6,-13,-1,-3
1511885051263748,0,-1,0,1,0,12,6,3
1511885051279781,1,1,-2,-5,-5,5,3,1
1511885051279781,-1,1,1,8,-3,-6,-5,0
1511885051286803,3,-1,2,-1,-2,-1,4,3
1511885051286803,0,2,-2,-5,4,5,-3,2
1511885051294002,-3,-2,1,-3,-4,-13,-1,-2
1511885051294002,0,-1,-1,-6,-2,14,4,2
1511885051302875,2,1,-3,3,-6,-12,-10,-1
1511885051302875,-4,1,0,7,0,19,2,-2
1511885051317014,6,2,-1,-3,0,-44,7,5
1511885051317014,-4,2,-2,-4,7,45,8,-2
1511885051324022,0,1,-3,4,-4,5,-1,3
1511885051324022,-5,2,1,-2,2,-10,-3,-6
1511885051339974,0,1,5,16,-2,-5,-7,-2
1511885051339974,-1,-2,-2,-23,0,-14,-4,-3
1511885051346016,3,-2,0,10,3,8,3,0
1511885051346016,1,-3,0,-2,2,-7,-3,0
1511885051354014,-5,1,-3,4,1,12,-2,-4
1511885051354014,1,0,0,12,-5,-13,-2,1
1511885051363036,-2,-2,-1,-5,4,13,-1,-2
1511885051363036,-3,-2,5,-4,-1,-9,1,-1
1511885051377280,1,-4,-1,3,0,13,1,-1
1511885051377280,-2,-1,0,0,-2,-14,-1,-1
1511885051384216,1,0,-2,-1,0,0,-1,0
1511885051384216,2,-3,0,8,0,0,-2,0
1511885051399134,-1,-1,-1,-3,-1,4,1,-1
1511885051399134,0,3,-1,-14,-1,1,-3,0
1511885051406154,-2,-2,1,12,0,-1,2,-1
1511885051406154,3,1,1,-6,-7,-1,0,0
1511885051423254,-1,-1,-1,-2,1,8,-5,-3
1511885051423254,0,-3,-1,7,0,-12,-3,0
1511885051424197,-3,0,-3,-8,-3,7,3,-4
1511885051424197,0,0,1,2,-3,-4,-3,0
1511885051436320,1,-4,-1,-3,2,6,1,0
1511885051436320,0,-3,-1,5,-3,-8,-1,-2
1511885051445254,-2,1,-1,-4,2,2,-2,-1
1511885051445254,2,1,-1,3,0,-1,-1,1
1511885051459474,-1,1,0,-6,-6,0,-1,0
1511885051459474,2,0,-4,-1,-2,-3,-1,2
1511885051466481,2,-3,1,-1,2,-6,-1,1
1511885051466481,1,0,1,2,-6,-2,3,2
1511885051482353,-1,-3,-4,2,-1,5,0,1
1511885051482353,-4,-1,-2,0,1,-1,-2,-3
1511885051484358,0,-2,-1,-8,-3,-4,-5,-1
1511885051484358,-2,0,-3,-5,-1,2,-3,-3
1511885051496577,-3,0,6,0,1,-2,-2,-2
1511885051496577,-2,-1,1,8,-3,2,-1,0
1511885051505414,-1,-3,-1,-9,-2,-1,0,-3
1511885051505414,-3,-2,-1,17,12,-2,0,-2
1511885051519585,2,0,0,-6,-6,7,-3,-3
1511885051519585,-1,-1,3,5,-3,-9,0,2
1511885051526604,-3,-3,1,-6,-5,-2,1,0
1511885051526604,1,1,-3,-8,0,1,1,-1
1511885051542648,0,0,-2,-8,-2,-4,-3,-1
1511885051542648,2,-2,4,17,5,4,0,-2
1511885051544650,-2,-1,-1,-2,-4,-1,-4,-2
1511885051544650,-3,-2,-1,-4,-2,-8,-1,-1
1511885051557718,3,-1,-4,0,4,1,0,1
1511885051557718,1,0,-3,-8,-2,-1,0,1
1511885051563818,-2,-1,-1,5,3,-3,-1,1
1511885051563818,2,-1,0,0,-1,-3,-2,0
1511885051579868,1,1,1,-5,-5,0,3,3
1511885051579868,0,-1,0,5,2,1,1,-2
1511885051586761,-1,1,-3,5,1,-1,-2,-2
1511885051586761,2,-2,-1,-16,-4,1,0,1
1511885051602806,-1,-2,4,12,2,-3,-2,-1
1511885051602806,2,0,0,1,-3,-5,-1,-2
1511885051603960,0,1,2,-8,-1,1,-3,0
1511885051603960,-3,-3,-2,10,0,2,-3,-2
1511885051615998,-3,-2,-2,-8,-2,0,-1,-2
1511885051615998,-2,-2,0,-4,1,-1,-1,-2
1511885051625020,-4,1,-2,-2,3,2,-2,-2
1511885051625020,-1,0,4,-4,-1,-3,0,-1
1511885051639059,-1,2,-1,8,-5,0,1,1
1511885051639059,-3,-2,-2,-5,-4,2,-2,1
1511885051646077,3,2,2,0,0,0,-1,0
1511885051646077,0,-2,0,-4,-3,0,-4,-1
1511885051663289,-1,-4,-5,1,-1,-2,-1,0
1511885051663289,0,0,-1,-4,0,1,-1,0
1511885051664123,0,-1,2,5,-2,-4,1,-2
1511885051664123,-3,1,0,-3,-5,3,3,-1
1511885051676240,-1,-2,-2,1,3,0,-1,0
1511885051676240,-1,1,4,-12,-1,-6,-2,0
1511885051685297,-2,-5,2,6,-3,-1,0,0
1511885051685297,-1,-2,1,-11,-1,0,-1,0
1511885051699337,-1,-2,-3,10,-4,-1,-2,-3
1511885051699337,-1,2,1,-4,2,-2,1,0
1511885051706357,1,4,-4,-1,1,-3,-1,-2
1511885051706357,-3,2,7,2,-4,1,2,-1
1511885051722594,-3,-3,-13,-6,-1,-3,-2,-2
1511885051722594,-2,0,2,1,1,-1,0,1
1511885051724402,0,-1,-1,-1,-2,-1,0,1
1511885051724402,3,0,-2,-1,0,-4,0,2
1511885051736772,0,3,3,3,-1,-1,1,3
1511885051736772,-1,1,-3,11,-3,1,-2,-2
1511885051745683,1,0,-1,6,2,1,-1,1
1511885051745683,-2,-3,1,-28,2,1,-2,-1
1511885051759901,-2,2,7,1,-3,-6,-2,0
1511885051759901,1,-2,-3,-17,0,-2,0,-1
1511885051766743,-4,-1,-2,10,-3,-3,0,-1
1511885051766743,2,0,-2,5,0,2,-5,2
1511885051782786,0,2,0,-8,2,2,0,-3
1511885051782786,-2,-4,2,12,-4,0,0,-1
1511885051784788,6,-2,0,-7,-4,-5,0,3
1511885051784788,-1,-3,-1,11,0,0,3,0
1511885051796821,0,0,2,-16,1,-3,-3,-2
1511885051796821,0,0,-2,15,-1,-1,-1,0
1511885051805848,-3,-2,-7,-42,3,1,0,2
1511885051805848,-3,3,3,13,-1,-1,-2,-4
1511885051819924,-2,-3,-4,14,3,-1,2,-3
1511885051819924,0,-1,-1,-23,-5,0,-2,0
1511885051825901,0,0,2,19,3,1,0,-1
1511885051825901,-1,4,10,-9,-2,-2,-4,0
1511885051843149,1,-1,-16,-6,1,4,-2,-3
1511885051843149,-1,1,2,-9,0,-2,0,-2
1511885051844034,-5,1,-6,3,-2,2,-2,-2
1511885051844034,-3,-1,7,20,2,0,-1,-1
1511885051856245,0,-3,5,-12,-4,0,1,4
1511885051856245,-3,0,-5,1,4,-2,0,-2
1511885051865087,3,-1,4,14,-1,-2,-1,-2
1511885051865087,0,0,-7,1,1,-1,0,0
1511885051879316,1,1,9,4,1,1,2,-3
1511885051879316,-3,-3,-10,4,2,2,-1,1
1511885051886147,-2,1,8,-13,-4,-1,-1,-2
1511885051886147,1,-5,-7,17,2,-3,1,2
1511885051902221,-2,0,-2,10,-2,1,-4,-2
1511885051902221,0,1,0,-4,0,0,0,-2
1511885051904222,0,-1,-7,2,3,-2,1,0
1511885051904222,-2,2,-7,-2,-3,5,0,-4
1511885051916255,1,-2,6,4,1,0,-2,2
1511885051916255,1,-2,0,0,-3,0,0,0
1511885051925403,-3,-1,3,0,-3,-1,0,6
1511885051925403,3,-3,-3,3,-2,-3,-1,1
1511885051939642,-6,-3,-10,-6,0,-2,1,7
1511885051939642,4,3,6,9,0,-2,-2,-5
1511885051946728,-5,-6,-4,-16,-1,0,-2,-3
1511885051946728,1,3,7,4,-3,-4,0,-1
1511885051962775,1,-2,-5,-6,-3,-2,-1,0
1511885051962775,1,-5,-5,4,-2,-4,0,-1
1511885051964663,1,8,12,0,0,-1,-2,-1
1511885051964663,-1,-3,-18,-4,-2,-6,1,-1
1511885051976718,1,4,9,-1,-1,1,-2,-2
1511885051976718,-1,-2,-6,5,1,0,0,2
1511885051985716,0,0,5,2,-1,-3,1,-2
1511885051985716,-2,-7,-2,-13,-1,1,-2,0
1511885051999858,4,-1,-6,1,0,-2,-1,2
1511885051999858,-9,-1,14,-1,3,-1,-1,-3
1511885052006020,3,-2,-3,1,-4,0,0,4
1511885052006020,-3,0,-1,-4,-1,-2,-1,-1
1511885052023054,0,-4,7,-3,0,1,-1,-5
1511885052023054,4,1,-3,6,2,3,6,1
1511885052024016,-9,-2,-4,2,-1,-1,-2,0
1511885052024016,-4,0,1,-2,2,0,-2,-1
1511885052036089,-2,4,4,3,1,0,-2,-4
1511885052036089,0,1,0,-3,-2,3,-2,3
1511885052045096,-2,0,-4,-6,1,0,-3,-4
1511885052045096,0,-1,4,13,2,-1,-1,1
1511885052060168,-2,0,2,-5,0,2,-3,-4
1511885052060168,0,0,-17,-6,1,-5,0,-3
1511885052066130,2,1,2,4,-1,1,0,0
1511885052066130,-2,-1,-1,-4,-2,0,0,1
1511885052083300,-2,1,-1,-1,-1,-2,-1,-2
1511885052083300,8,1,7,2,0,0,-1,3
1511885052084301,-3,-5,-3,-6,-2,-1,-1,-4
1511885052084301,2,2,-4,-5,0,0,-1,-3
1511885052096506,-4,-2,0,4,0,-1,1,0
1511885052096506,-4,-3,0,-6,-2,-4,0,-1
1511885052105390,1,-1,-2,5,2,-2,-1,-1
1511885052105390,-3,2,2,-1,1,2,0,0
1511885052119427,-4,-11,-1,-1,-4,-4,1,0
1511885052119427,0,1,4,2,-2,0,-9,0
1511885052126449,-1,-1,-5,1,-2,-1,-1,-4
1511885052126449,2,0,1,-2,2,-2,1,-2
1511885052142489,-1,6,-2,-7,0,0,0,4
1511885052142489,0,-8,2,1,-4,-1,-4,0
1511885052144494,-1,-4,-11,-1,2,0,0,-1
1511885052144494,0,-1,1,-1,-4,5,0,-1
1511885052156715,2,2,-4,-1,0,-1,1,-2
1511885052156715,-2,3,4,-2,1,-2,-13,0
1511885052165550,-1,1,1,2,-1,3,15,0
1511885052165550,2,-1,-5,-1,-1,-3,0,0
1511885052179590,3,3,3,2,-1,-1,2,-5
1511885052179590,-2,-3,-1,-6,0,1,1,0
1511885052186609,3,2,1,-1,-2,-3,-6,0
1511885052186609,1,-3,-6,-4,3,-2,-3,1
1511885052202690,-4,2,4,1,-2,0,2,1
1511885052202690,-2,-5,-8,0,1,3,-8,1
1511885052204658,2,7,10,0,-1,-3,-11,1
1511885052204658,-5,-11,-5,-3,-4,-7,-1,-3
1511885052216730,0,3,-3,0,5,7,-4,-2
1511885052216730,6,4,8,1,-2,-2,3,0
1511885052225711,-3,-7,-22,-2,-3,0,-2,0
1511885052225711,-7,4,4,2,0,0,-4,-1
1511885052239876,4,-5,-2,-6,-2,-3,-5,2
1511885052239876,-3,1,-2,-4,-4,-3,6,-3
1511885052246855,3,1,3,11,-2,4,2,-2
1511885052246855,5,-1,2,-2,-4,-4,-3,2
1511885052261935,1,0,-4,-5,5,4,8,3
1511885052261935,-5,2,1,8,-1,-3,3,0
1511885052268954,1,-3,0,-11,-6,-2,-4,2
1511885052268954,-2,-1,-3,9,4,-4,-3,-4
1511885052276022,-2,5,3,-5,2,7,16,-1
1511885052276022,-2,-1,-5,-6,0,0,-2,2
1511885052285047,-2,-3,0,4,8,-1,0,-4
1511885052285047,2,-1,7,2,1,1,7,0
1511885052300084,-2,-5,-3,-8,1,-3,-3,-3
1511885052300084,1,1,0,5,2,3,3,-3
1511885052306100,-1,0,4,1,-1,3,1,0
1511885052306100,-4,-1,-5,-11,-2,0,-3,-1
1511885052322144,1,0,-3,-4,3,-8,-4,-3
1511885052322144,-2,-3,-2,4,-1,-1,2,-3
1511885052329370,2,0,-5,-1,0,-5,-2,-1
1511885052329370,2,1,2,-3,-2,0,-3,1
1511885052345388,-2,-1,0,0,-4,-3,-3,2
1511885052345388,-2,-5,-4,-26,-5,5,-1,-2
1511885052347208,-2,3,5,1,0,1,-1,-1
1511885052347208,2,6,0,30,-10,-2,2,2
1511885052359243,1,0,-4,10,-9,-2,-4,3
1511885052359243,1,-2,2,-15,-2,-5,-1,1
1511885052366260,1,-3,-3,-9,0,-1,23,-3
1511885052366260,-2,1,-1,-15,5,6,-4,-4
1511885052382325,0,0,7,-10,-2,-2,-4,-1
1511885052382325,0,-1,-11,6,1,-3,2,-1
1511885052389352,-2,-2,1,2,1,-1,-10,4
1511885052389352,2,-2,-1,-3,3,-1,0,-2
1511885052405550,-2,-4,6,0,-3,-4,1,-5
1511885052405550,-3,1,5,24,6,-2,4,-4
1511885052407411,-1,-4,-9,-9,4,3,-4,1
1511885052407411,0,-3,-1,0,-1,0,5,1
1511885052419402,1,1,-5,-14,-1,-2,-2,4
1511885052419402,5,2,13,-1,3,2,1,3
1511885052426421,6,3,5,6,-2,-5,-2,7
1511885052426421,1,1,-2,-9,-1,-1,3,2
1511885052442609,0,1,2,4,2,3,-5,-1
1511885052442609,-5,-2,-8,10,-1,2,0,-3
1511885052448477,-4,2,3,-9,-2,0,-3,-6
1511885052448477,-1,-1,2,11,2,4,2,-3
1511885052465525,-4,-3,2,12,6,-1,-5,-4
1511885052465525,0,4,3,21,4,5,-3,-1
1511885052466524,-2,3,2,-3,-2,-7,-5,-2
1511885052466524,-6,-2,-8,-14,-3,3,-2,-1
1511885052478559,-3,-2,-4,-1,0,2,2,-2
1511885052478559,-1,-1,1,-4,4,-4,-2,-2
1511885052487745,-1,0,-4,4,-2,8,-5,-3
1511885052487745,-1,1,3,4,0,-4,6,-1
1511885052501621,1,-3,-4,5,-4,-3,-2,-1
1511885052501621,-4,0,-5,-23,-3,-2,0,-2
1511885052508636,1,-4,5,12,-6,4,-4,-4
1511885052508636,0,-1,-1,0,0,-2,-6,-2
1511885052525758,-1,-5,-3,-7,-2,0,-1,2
1511885052525758,1,2,-2,0,-2,1,1,-2
1511885052526684,0,1,-2,2,3,-1,0,-1
1511885052526684,-1,-2,-1,-6,0,-2,-1,-1
1511885052538830,1,1,4,7,-2,2,-1,-1
1511885052538830,-2,-2,-1,1,-6,-2,-4,1
1511885052547740,-3,-6,2,-2,0,-2,0,-2
1511885052547740,0,4,-1,-4,-3,0,-2,2
1511885052561970,1,0,0,-1,-1,-5,2,0
1511885052561970,-2,-5,1,2,-1,-4,0,1
1511885052568918,-1,0,-1,-1,-3,1,-1,-1
1511885052568918,0,-3,-3,-5,0,2,-2,-1
1511885052585083,-3,1,-5,5,1,0,-4,-2
1511885052585083,3,2,-2,-1,-3,3,-1,-1
1511885052587091,-1,-1,1,0,-2,-2,0,-1
1511885052587091,-3,-2,-2,-2,-3,0,-4,-3
1511885052599123,2,1,2,1,2,1,0,0
1511885052599123,-1,-1,-3,-1,-4,-2,-2,1
1511885052608145,0,-4,0,-4,-1,-2,1,-2
1511885052608145,-4,0,-5,4,0,0,3,-1
1511885052622514,1,-7,-2,-2,-5,0,-1,0
1511885052622514,-2,0,-5,-1,-2,2,-1,-1
1511885052628444,3,-1,1,-3,-3,-3,0,-1
1511885052628444,0,-2,1,3,4,-5,-3,0
1511885052645546,-2,0,-5,3,1,6,0,0
1511885052645546,0,0,2,-4,-1,-2,-2,0
1511885052646527,-4,0,-3,-1,0,-1,-1,1
1511885052646527,4,2,2,-3,-2,-1,-3,-2
1511885052658564,0,-1,-2,2,-1,-1,-1,-1
1511885052658564,0,-1,-1,-1,-1,0,0,-3
1511885052667585,-2,2,-3,0,0,2,0,2
1511885052667585,2,-1,3,-1,1,-4,1,3
1511885052681623,0,2,2,2,-2,-1,1,-1
1511885052681623,3,-3,-1,-2,-5,-2,2,0
1511885052688640,-4,0,-2,-7,2,0,-1,1
1511885052688640,-1,-1,-2,-3,-1,1,-3,0
1511885052705723,1,0,1,3,4,0,2,-2
1511885052705723,-2,-2,2,1,2,0,0,1
1511885052706726,0,0,-1,-1,-2,-3,1,-1
1511885052706726,0,-2,-3,4,-5,-1,0,-3
1511885052718764,-2,0,5,4,-2,-4,-2,-1
1511885052718764,0,-1,-6,-3,-3,1,1,1
1511885052727958,-1,-2,2,0,5,4,0,-2
1511885052727958,-4,-4,-3,-4,-4,-2,-2,0
1511885052741987,2,4,-7,-4,-4,0,-3,-1
1511885052741987,-1,5,9,1,-1,-2,-2,-2
1511885052749010,1,-2,-5,-3,-2,0,0,-3
1511885052749010,0,1,4,4,1,-3,0,-2
1511885052765048,-1,-1,-4,-6,-2,-4,-2,1
1511885052765048,-2,-1,-1,1,2,1,1,1
1511885052767053,-1,-3,-1,4,4,1,-2,2
1511885052767053,2,2,1,-10,1,-1,2,0
1511885052779085,-2,-1,1,9,1,1,2,0
1511885052779085,2,0,-1,-1,2,-2,-6,0
1511885052788109,2,-4,0,-2,-5,-6,2,-3
1511885052788109,-4,-2,-5,5,0,2,-3,2
1511885052802146,-1,-2,-3,-5,-4,1,0,1
1511885052802146,-1,-2,-2,-4,-4,-3,-2,0
1511885052809165,2,0,-4,5,4,0,-3,-2
1511885052809165,2,-2,0,-4,-7,1,0,1
1511885052825245,-4,-3,0,-3,-4,-3,-1,-3
1511885052825245,0,0,0,8,-1,-1,0,-2
1511885052827244,-3,-1,-1,-2,-3,-4,-1,-1
1511885052827244,-2,-1,-4,-3,2,2,-2,-3
1511885052839284,1,1,3,1,5,-2,1,-2
1511885052839284,1,1,0,-6,-4,-3,1,1
1511885052848276,1,-1,1,0,-3,1,-2,1
1511885052848276,0,-3,6,-1,-3,-1,-2,-1
1511885052862333,0,-1,0,-1,-3,-2,0,1
1511885052862333,-1,-2,-2,-2,4,0,-2,-3
1511885052868346,0,1,3,-5,1,3,-1,3
1511885052868346,0,-3,-2,2,2,0,-2,0
1511885052885394,0,-3,-2,-1,1,1,-1,-3
1511885052885394,-1,-2,-1,3,-1,-1,-1,-1
1511885052886398,1,0,-2,0,3,0,2,1
1511885052886398,1,0,3,-2,0,-4,0,1
1511885052898403,-1,1,-2,-2,2,-2,-2,1
1511885052898403,-3,-3,1,-3,4,2,2,1
1511885052907456,5,2,0,0,-4,-1,-1,-2
1511885052907456,-1,-2,-2,1,1,4,-1,0
1511885052922501,2,1,2,1,2,-1,1,0
1511885052922501,1,-1,-3,-4,-2,0,4,-1
1511885052928509,3,1,-4,5,0,-4,0,3
1511885052928509,0,3,-2,-3,-6,-2,0,-1
1511885052945555,-3,3,2,-2,-4,0,-1,0
1511885052945555,1,4,-4,-1,1,1,-1,0
1511885052946530,-5,-2,-6,0,-6,1,0,-2
1511885052946530,-2,4,2,1,2,3,-2,-3
1511885052958563,-2,-3,4,1,2,-1,-2,-2
1511885052958563,2,2,-10,-4,-3,1,2,-1
1511885052967587,-10,-6,7,0,4,0,-4,-5
1511885052967587,1,0,2,4,3,1,0,0
1511885052981650,-4,-5,-5,-3,-3,3,-3,-4
1511885052981650,-2,-1,2,4,-3,-1,-2,-3
1511885052988643,-1,-7,-3,-2,-1,1,0,1
1511885052988643,0,-2,-1,1,-1,-3,0,0
1511885053004711,0,-2,-6,0,0,3,0,1
1511885053004711,-2,2,5,3,8,-2,-2,-1
1511885053006718,-2,2,-1,-4,-4,3,0,0
1511885053006718,-3,0,-1,2,-6,-1,-1,-1
1511885053018747,2,-1,-2,-3,1,-1,2,0
1511885053018747,-2,-3,-1,-2,1,1,-2,2
1511885053027746,-2,5,5,7,0,-5,-1,-2
1511885053027746,-2,0,-1,-8,-2,-1,-1,1
1511885053041784,1,0,-2,8,4,1,0,-3
1511885053041784,-2,-1,-5,0,-2,0,1,-2
1511885053048803,2,-5,4,-3,3,-1,-1,-1
1511885053048803,1,1,2,-2,1,-1,-3,-2
1511885053063843,-1,1,-5,6,0,0,0,2
1511885053063843,-1,-6,5,1,-3,0,0,0
1511885053072870,2,4,-2,-5,-4,-1,-2,-1
1511885053072870,-2,-3,-9,3,1,1,4,-2
1511885053078882,1,-1,8,-4,-4,-4,-4,-1
1511885053078882,1,0,-5,1,-1,-3,-1,0
1511885053087908,-1,-3,-8,-1,1,-2,-2,1
1511885053087908,0,0,4,-1,-2,-2,2,1
1511885053101975,-4,2,-3,0,0,0,0,-1
1511885053101975,2,2,4,2,4,-2,0,0
1511885053108963,-1,-3,-2,-2,-4,0,0,-2
1511885053108963,-6,2,2,-3,2,-5,0,-2
1511885053125008,0,-3,-6,-8,-1,1,0,0
1511885053125008,1,-2,-2,0,-4,0,0,0
1511885053127011,-1,-2,2,-1,3,-1,0,1
1511885053127011,2,2,-3,0,-1,3,-4,-1
1511885053139042,1,0,2,-5,-2,1,0,0
1511885053139042,0,0,-2,-5,-6,-4,-1,0
1511885053148067,0,1,1,6,6,-2,2,1
1511885053148067,-1,-4,-3,-1,-2,0,0,0
1511885053162136,-3,-1,1,-1,-1,-2,-2,-1
1511885053162136,0,2,2,-3,-1,1,-3,-1
1511885053169136,0,-2,-7,-4,-3,-1,-1,-1
1511885053169136,-1,-4,-1,0,-2,-3,0,2
1511885053184166,0,3,-4,6,0,2,4,0
1511885053184166,0,-4,3,0,-2,0,1,0
1511885053191363,-2,-1,-4,-4,-4,-1,0,-2
1511885053191363,-1,-1,-1,2,2,-1,0,-1
1511885053198336,0,-2,1,-2,-1,0,-1,-1
1511885053198336,0,0,-2,1,0,-1,0,-1
1511885053207359,0,-1,0,0,0,1,-3,-1
1511885053207359,-1,1,1,2,0,6,-2,-1
1511885053222404,-1,-1,0,-1,1,-5,-2,1
1511885053222404,0,-5,-6,0,1,0,-1,0
1511885053228416,-4,7,2,-1,-1,0,-3,-2
1511885053228416,0,-2,1,0,4,-1,-3,-1
1511885053244458,5,3,2,3,0,-2,0,-1
1511885053244458,-2,-3,6,-3,1,2,1,1
1511885053251495,-6,-8,-12,-4,-1,-5,2,-1
1511885053251495,2,3,3,0,0,2,-1,0
1511885053258495,-2,-5,-5,-1,-1,2,1,0
1511885053258495,-1,7,1,4,-6,-2,-1,-2
1511885053267519,0,2,-1,7,5,1,-1,0
1511885053267519,0,-2,-1,-3,-4,-2,-1,-1
1511885053282559,0,2,-3,-3,-2,-1,0,-1
1511885053282559,-1,-6,1,-2,-4,-4,0,0
1511885053288578,1,1,-2,0,2,-3,-2,1
1511885053288578,-1,-1,1,-1,-1,0,-2,-1
1511885053304621,0,-1,1,0,-2,-3,-3,1
1511885053304621,-2,-3,3,1,-2,-3,0,-2
1511885053311642,0,-2,1,0,-2,0,0,-1
1511885053311642,0,4,1,-1,2,0,0,-1
1511885053327825,-2,2,-1,-2,-1,-2,1,-1
1511885053327825,-1,-1,-1,-3,-1,-1,-2,0
1511885053329797,-1,0,-4,5,5,1,1,0
1511885053329797,2,-6,-1,-1,0,1,0,0
1511885053341830,0,-5,-1,4,3,5,1,-1
1511885053341830,-2,2,-2,-1,3,-2,-3,-3
1511885053348852,0,-1,2,-1,-1,1,0,1
1511885053348852,-2,-3,-4,0,-2,-3,1,0
1511885053364895,-2,1,-4,0,-1,0,0,2
1511885053364895,0,-2,0,0,2,1,2,1
1511885053371938,-2,-4,-4,-6,-4,3,1,1
1511885053371938,-1,1,-1,-1,1,0,-4,-4
1511885053387956,0,-2,-1,3,1,-2,0,-1
1511885053387956,-1,-4,0,-2,-3,-1,1,-1
1511885053388956,-3,1,1,-2,-4,-1,1,-3
1511885053388956,0,-3,-2,0,0,1,1,-1
1511885053401993,0,-1,-1,-1,-2,1,-1,-1
1511885053401993,-2,2,-1,4,11,2,-1,-1
1511885053409012,1,-5,0,2,-1,-2,-3,0
1511885053409012,-1,2,1,1,-3,-3,1,0
1511885053424078,-1,1,-2,-5,-2,0,-3,-2
1511885053424078,1,3,-3,-4,-3,-1,-2,-2
1511885053431075,-3,-1,6,1,-2,2,0,-2
1511885053431075,-1,-1,-6,3,0,1,-1,2
1511885053447235,-3,-1,-1,4,5,3,-2,-2
1511885053447235,1,1,-4,0,-3,0,0,-1
1511885053448152,1,0,0,-4,-2,-2,-3,0
1511885053448152,-1,0,2,1,-2,-3,-4,-2
1511885053463171,0,0,1,0,0,2,1,2
1511885053463171,1,-5,-6,1,0,2,-1,-3
1511885053469177,-1,2,1,-2,-7,-2,-2,-1
1511885053469177,-2,-5,-5,-1,8,1,2,-1
1511885053484213,-2,-2,0,1,-6,1,0,-1
1511885053484213,-3,0,1,-1,-1,-1,-2,0
1511885053491272,1,-1,2,-2,-1,-2,-2,0
1511885053491272,0,-2,1,-4,-2,-4,-1,0
1511885053507273,-3,-1,1,1,3,-4,1,-3
1511885053507273,0,1,-1,0,1,0,-1,1
1511885053507273,-1,2,2,0,2,0,-1,-2
1511885053507273,-3,-5,-1,2,1,1,1,-1
1511885053523332,1,1,-1,-3,-4,-2,-4,0
1511885053523332,-2,0,-1,0,0,-1,1,0
1511885053529333,0,0,-1,-3,1,2,-2,-1
1511885053529333,-2,-1,0,-1,-2,-1,-2,0
1511885053545373,0,-1,-1,2,3,-1,-1,-2
1511885053545373,3,-3,-1,1,-3,-2,-1,2
1511885053551391,-1,-1,0,-1,-1,2,-1,-1
1511885053551391,0,4,-5,1,-3,1,1,0
1511885053566586,0,-3,-2,-1,3,-5,0,-1
1511885053566586,-5,0,-3,1,1,0,2,-1
1511885053567577,0,-1,1,-1,-1,-2,-1,0
1511885053567577,0,0,-1,-3,-4,-2,-1,-1
1511885053582618,0,-3,0,4,-1,0,1,2
1511885053582618,1,-1,3,-2,-2,1,-2,0
1511885053588644,-2,-1,0,3,-3,-1,2,-1
1511885053588644,-1,-1,2,-3,-2,-2,-2,-4
1511885053603704,0,-1,-2,-5,-3,0,-2,-2
1511885053603704,1,-5,6,-2,0,-2,-2,0
1511885053611723,-2,3,-6,-3,-2,1,0,1
1511885053611723,-2,0,-3,0,0,-1,-1,-2
1511885053626731,3,-2,3,-2,-3,0,1,-1
1511885053626731,-3,1,-1,-3,-1,-5,0,-1
1511885053627773,0,3,1,0,0,1,-1,-3
1511885053627773,-3,-4,-4,1,0,1,-1,-1
1511885053642765,-2,0,-4,-1,-1,-2,2,0
1511885053642765,-1,0,-1,-1,-4,1,0,-2
1511885053648781,-1,1,1,3,3,-1,0,-1
1511885053648781,-1,2,3,-2,-7,-1,1,0
1511885053663822,-3,2,-4,2,1,1,-1,-1
1511885053663822,-2,-1,-1,-4,0,-2,0,-2
1511885053671846,2,-2,-1,-1,1,0,-1,-1
1511885053671846,2,-3,0,2,2,4,-2,-1
1511885053686986,-1,-1,-1,-4,-3,0,-2,0
1511885053686986,1,1,0,0,-4,0,0,0
1511885053687989,-4,-3,-1,-4,-2,2,-1,1
1511885053687989,-3,1,-3,2,3,0,0,0
1511885053703026,-1,-1,0,-2,-2,2,2,-2
1511885053703026,-2,0,-3,0,4,-1,-4,-2
1511885053709221,-1,-4,3,-1,-4,-1,-1,0
1511885053709221,-1,2,4,-5,-3,1,0,0
1511885053724224,-2,3,3,-1,-4,-2,-4,1
1511885053724224,0,-1,-1,-2,-1,-1,-1,-2
1511885053731242,0,0,-2,3,3,1,-1,-2
1511885053731242,-2,0,-4,2,4,-3,2,-1
1511885053747281,0,0,0,-2,-5,1,-2,-2
1511885053747281,-3,0,-1,-1,-1,-1,1,-2
1511885053748286,-2,1,-3,-2,-4,0,-1,-4
1511885053748286,1,-5,-1,-2,-2,-4,-2,0
1511885053762537,-1,1,-2,-1,3,-1,-2,-2
1511885053762537,-1,0,-7,6,1,-2,0,2
1511885053768371,-4,0,-1,-1,1,-2,-1,-2
1511885053768371,-1,0,2,-1,0,4,0,-3
1511885053783528,-2,-3,0,-3,-4,-2,1,-1
1511885053783528,1,-2,0,-1,-2,2,-3,0
1511885053791554,-2,2,-2,0,-1,3,-3,3
1511885053791554,-1,-1,-1,-1,-8,-4,11,-2
1511885053807592,-1,-3,3,-1,1,1,-2,0
1511885053807592,0,3,-3,3,2,-2,1,0
1511885053807592,2,-4,1,-1,1,-4,-1,-1
1511885053807592,0,1,2,-2,2,1,-3,-1
1511885053822659,2,0,-1,0,-3,-1,1,1
1511885053822659,-2,0,0,0,0,1,0,-2
1511885053828772,0,0,-2,-2,-2,-2,1,-3
1511885053828772,-3,1,1,0,-2,2,-2,0
1511885053845692,0,-1,-2,0,2,-2,2,1
1511885053845692,-1,-3,0,-3,-1,3,-2,-2
1511885053851749,0,-1,-1,2,-2,-2,2,1
1511885053851749,-1,0,-1,-4,-2,-1,-2,0
1511885053866789,0,1,-1,-2,-3,1,0,-2
1511885053866789,-2,-3,1,4,3,0,-1,-1
1511885053867775,1,2,1,-2,-3,1,-1,-1
1511885053867775,1,-2,-1,-1,1,-2,-2,0
1511885053882791,-1,-3,0,-4,0,-1,-7,0
1511885053882791,-1,2,-2,3,-3,0,1,-1
1511885053888807,1,-2,0,0,2,-3,0,-1
1511885053888807,2,-3,-3,1,-2,-3,-1,-1
1511885053904025,-2,0,1,0,2,-4,-1,-3
1511885053904025,0,-2,-2,-6,-3,1,0,-1
1511885053911087,-3,-2,0,4,7,1,0,0
1511885053911087,0,-3,-2,-1,-1,0,-3,0
1511885053927180,-1,2,-4,2,2,4,1,-1
1511885053927180,0,-1,-1,-2,-4,1,1,0
1511885053928145,-2,1,-3,-2,-2,3,1,-2
1511885053928145,1,-1,0,-2,-3,-2,-2,1
1511885053943179,0,-2,-3,2,2,1,1,1
1511885053943179,-1,-2,-2,-2,-5,-1,-2,-1
1511885053949199,0,-4,1,-1,3,2,-5,-1
1511885053949199,-1,0,0,-4,-5,0,9,-2
1511885053964235,-3,-1,2,1,-5,0,-1,2
1511885053964235,-1,0,2,0,2,-2,1,0
1511885053971257,-1,0,-4,-5,-4,-1,1,-1
1511885053971257,-1,-1,-1,5,4,-1,-5,1
1511885053987300,-2,-3,0,-3,-6,-4,0,-2
1511885053987300,3,3,-1,-1,0,-1,-1,-1
1511885053988299,0,1,1,-2,-3,0,-2,-1
1511885053988299,0,-1,-2,-2,4,2,-4,-1
1511885054003339,-1,0,0,5,-5,-5,0,0
1511885054003339,0,-1,1,0,0,2,-9,0
1511885054009356,0,0,-2,-6,-3,-2,5,-1
1511885054009356,-2,-1,-2,6,6,1,-3,-3
1511885054023582,1,-4,-3,-1,0,2,0,-1
1511885054023582,2,1,1,-4,-2,-5,-3,-1
1511885054031414,-2,-1,-1,0,-6,-1,-2,-2
1511885054031414,-1,-1,0,-5,-3,-2,0,-3
1511885054046637,-1,1,2,1,2,2,1,-2
1511885054046637,-4,1,-4,0,-2,0,3,-2
1511885054047458,2,0,-4,-2,-6,-4,-2,1
1511885054047458,0,0,1,-2,-4,0,-2,-1
1511885054062501,1,0,-4,0,-3,-5,-3,-1
1511885054062501,-1,-6,-1,-1,-1,1,7,-1
1511885054068516,0,1,1,0,0,-1,-3,-1
1511885054068516,-3,-1,-1,0,0,-2,-3,1
1511885054083587,-2,2,1,-1,4,0,-2,-3
1511885054083587,0,0,-4,0,-1,1,0,0
1511885054091603,-2,-3,-5,3,2,1,-1,1
1511885054091603,0,-2,-4,-1,-4,0,1,-1
1511885054106902,0,-2,0,-6,-2,1,0,-1
1511885054106902,0,1,0,4,0,-5,-1,-1
1511885054107823,1,-1,2,0,-1,4,-3,1
1511885054107823,0,1,-1,-3,-3,-1,-2,1
1511885054122812,-1,-2,-4,0,1,2,1,0
1511885054122812,0,1,0,1,-2,-1,-2,-1
1511885054128833,-2,-2,-5,4,1,-3,1,0
1511885054128833,-3,0,0,-2,-1,-1,-2,-2
1511885054144877,2,-3,2,-5,-4,-4,5,0
1511885054144877,0,-1,3,1,1,3,-4,-1
1511885054150887,0,-4,0,3,3,-1,1,-2
1511885054150887,-3,-2,-1,-1,-3,-2,2,-1
1511885054166072,-2,-1,-3,-2,1,2,-2,-2
1511885054166072,-3,1,-1,-2,4,2,1,-2
1511885054174276,-2,-2,4,0,0,0,-2,-2
1511885054174276,0,2,1,-1,-1,2,1,-3
1511885054183118,-3,0,2,3,-4,-1,-2,1
1511885054183118,2,-1,1,-3,2,-2,-1,-2
1511885054189133,1,0,0,6,6,-2,0,0
1511885054189133,0,-3,-1,2,0,-2,-1,-2
1511885054204374,-2,1,-1,-1,1,4,-4,-1
1511885054204374,-1,-4,1,-2,-1,0,1,1
1511885054211208,1,0,0,-4,-2,-4,-3,-1
1511885054211208,-1,2,-2,1,-1,-2,-2,-1
1511885054226334,-1,-2,-1,1,1,1,3,0
1511885054226334,0,1,-1,-2,0,-1,-2,0
1511885054234251,0,-1,-1,-4,-4,-1,-4,-3
1511885054234251,-1,3,1,3,6,0,-2,0
1511885054249538,0,1,2,5,1,1,0,1
1511885054249538,-2,-1,-4,-6,-1,-2,2,1
1511885054250429,2,-2,2,-5,-6,-1,1,-1
1511885054250429,0,-3,-3,3,-3,0,1,1
1511885054265470,-1,4,-1,-4,-3,1,-1,-3
1511885054265470,-1,-2,1,-2,2,0,-2,-2
1511885054271495,1,0,2,4,0,3,1,-1
1511885054271495,0,-5,2,-4,-3,1,0,1
1511885054286646,-1,-4,-1,-1,0,-1,-1,0
1511885054286646,-1,0,-3,-1,-3,-3,-2,-2
1511885054293638,-3,-1,-3,-2,-2,1,1,-3
1511885054293638,0,2,-3,1,-4,1,-2,-1
1511885054309670,2,-1,-2,3,3,-1,0,0
1511885054309670,-2,-1,1,3,0,0,-1,0
1511885054310670,-1,0,-1,-3,-1,-3,0,0
1511885054310670,1,1,1,-1,1,2,-2,-2
1511885054325629,-1,-2,-3,-4,-1,-2,5,-2
1511885054325629,-1,-1,0,4,-5,1,-2,0
1511885054331648,-1,-1,-3,-1,0,-2,1,-2
1511885054331648,2,-2,0,-5,1,-1,3,2
1511885054346732,-1,0,0,0,1,-4,-4,-2
1511885054346732,-1,-3,1,3,4,3,0,-1
1511885054353752,-1,0,-3,-3,0,-1,-1,-1
1511885054353752,-1,-4,-3,-1,1,0,-1,-2
1511885054369749,-1,-2,1,-3,-4,-1,-2,-1
1511885054369749,0,1,-2,3,4,-1,-2,0
1511885054370753,-1,0,-3,1,-4,1,1,3
1511885054370753,0,1,1,-3,-4,-3,1,2
1511885054385792,-3,-1,0,-5,-4,-1,-4,-1
1511885054385792,-1,0,2,5,5,0,1,-3
1511885054391113,0,2,0,2,-7,0,-1,3
1511885054391113,0,2,-2,-1,-1,-3,-2,2
1511885054406163,-3,-4,1,0,4,2,1,1
1511885054406163,0,2,0,-4,-5,-2,0,2
1511885054414170,-1,-2,-2,-5,-2,2,1,-1
1511885054414170,0,-1,-1,13,10,-2,7,-5
1511885054430128,2,1,-1,-1,3,3,-4,-1
1511885054430128,-4,-4,1,-7,-3,-2,0,-3
1511885054430128,-1,0,1,-1,0,-2,-3,-1
1511885054430128,-1,0,1,-1,-5,-4,-4,0
1511885054445169,3,-1,-2,0,0,0,-3,-1
1511885054445169,0,-2,-2,3,-4,0,8,1
1511885054451145,-2,-1,3,0,4,-6,-8,-2
1511885054451145,-1,0,-3,-4,-7,1,2,0
1511885054466302,1,-1,-3,1,-5,-1,-4,-1
1511885054466302,1,-1,-3,-9,-10,-1,-2,-1
1511885054474356,2,1,0,2,-2,0,-2,4
1511885054474356,-6,-2,-1,-2,1,0,-2,0
1511885054489365,-1,1,-3,-1,-3,-3,5,-1
1511885054489365,-2,-2,-2,-5,-3,4,-3,0
1511885054490364,-1,-1,0,5,7,6,4,-3
1511885054490364,1,-1,-1,1,-1,-1,-4,1
1511885054505405,-1,2,0,0,-2,-2,1,2
1511885054505405,1,1,0,3,3,1,-3,-1
1511885054511597,-1,0,-2,-2,-2,0,3,-2
1511885054511597,-1,0,4,3,0,0,-1,0
1511885054526670,2,-1,2,-3,0,-3,-2,0
1511885054526670,0,-3,2,1,-1,-1,-1,0
1511885054533482,-1,-1,0,9,0,-3,3,0
1511885054533482,-4,3,-3,-4,4,3,0,0
1511885054549525,-2,0,-4,-2,2,0,3,-1
1511885054549525,-2,-1,-2,-3,0,-2,-1,-2
1511885054550530,0,-2,-4,-1,0,-1,-1,-2
1511885054550530,3,-3,0,-5,0,-1,-1,1
1511885054565564,0,2,0,1,4,0,0,1
1511885054565564,-2,-1,-2,-8,-1,0,4,1
1511885054571583,-2,-1,-5,-3,-3,-6,-2,-3
1511885054571583,1,0,-3,20,-3,0,-2,1
1511885054586825,-6,-5,-4,-31,4,-3,-2,-3
1511885054586825,3,0,1,26,0,-1,-3,-2
1511885054593762,2,-2,4,-5,0,2,-1,0
1511885054593762,-6,-4,-4,-6,0,-7,-6,-4
1511885054608930,0,1,1,12,0,2,7,-1
1511885054608930,-2,-2,-3,-9,0,-3,-2,-3
1511885054609932,0,-2,-1,-16,-3,-2,0,0
1511885054609932,1,2,-2,12,4,-1,-2,-3
1511885054624973,-1,-1,-3,-4,0,-5,-2,0
1511885054624973,0,1,-4,20,0,-1,-4,-1
1511885054630990,4,-2,0,-2,0,-1,4,4
1511885054630990,2,0,0,-15,-2,4,-2,-2
1511885054646033,-1,1,1,7,-5,-4,-4,-1
1511885054646033,-2,0,2,-9,2,2,0,-4
1511885054654053,-1,-1,-1,10,-2,0,-4,-3
1511885054654053,-2,0,3,8,0,0,2,-1
1511885054669093,0,-4,1,9,0,6,-1,0
1511885054669093,0,-1,1,-8,1,1,-2,0
1511885054670097,0,0,-2,-7,-2,-6,-2,-1
1511885054670097,-2,0,0,-9,4,3,-1,-1
1511885054685147,0,-3,-1,4,-6,-2,-1,1
1511885054685147,-2,-2,-3,-2,-1,0,1,1
1511885054691152,-1,0,1,7,1,-5,-4,-1
1511885054691152,-2,-2,-2,-7,-6,-1,-5,-2
1511885054706313,2,2,-3,4,3,-3,0,0
1511885054706313,0,-2,0,-4,-8,-2,-3,-2
1511885054714213,-4,-1,-2,-5,0,3,-1,-2
1511885054714213,0,-1,1,-4,-2,5,0,-2
1511885054729250,-1,-2,1,2,-1,-6,1,1
1511885054729250,0,1,5,-2,6,-2,-3,-2
1511885054730253,-2,1,-4,0,-3,4,0,-1
1511885054730253,1,2,2,1,-4,-10,1,1
1511885054745292,-2,1,-1,9,7,7,0,-1
1511885054745292,3,-2,-7,-9,-3,3,0,1
1511885054751455,-2,2,4,2,-1,1,-3,-1
1511885054751455,1,4,-2,3,6,-2,4,2
1511885054766491,-2,2,2,-4,-5,3,-2,-4
1511885054766491,-2,-3,-2,0,-2,-5,0,-1
1511885054773513,0,0,-3,-4,-1,7,-1,1
1511885054773513,3,-3,-3,-12,-2,-1,2,-3
1511885054789734,-1,-2,3,7,3,-1,-4,-1
1511885054789734,-3,0,-1,0,1,-5,2,4
1511885054790722,-2,0,-1,0,-2,6,4,-1
1511885054790722,2,-1,2,2,-1,-7,-2,1
1511885054805635,2,0,0,-5,-2,-1,0,0
1511885054805635,2,1,-2,-22,-10,-1,0,-2
1511885054811737,-4,-1,0,17,3,3,0,-3
1511885054811737,1,1,0,18,4,3,-2,2
1511885054826655,-2,2,0,-33,1,5,0,-1
1511885054826655,-2,-3,1,18,-3,1,-3,0
1511885054833673,-1,1,0,-24,-2,-2,0,-4
1511885054833673,2,-1,-7,-13,-5,2,-1,-4
1511885054849863,-5,-1,2,24,-2,4,-4,-2
1511885054849863,-1,-3,-3,16,5,3,2,-2
1511885054849863,0,-2,0,-24,-2,-4,-5,0
1511885054849863,-2,-2,-6,-7,-2,-1,4,0
1511885054864887,-1,2,2,19,-2,-1,-4,0
1511885054864887,-4,2,-3,-22,3,5,3,-1
1511885054870903,0,0,6,27,-1,0,-2,-2
1511885054870903,-3,-1,-9,-13,6,-2,-2,-1
1511885054885943,-2,-1,0,-2,-5,-1,-1,-1
1511885054885943,-2,2,0,14,5,-1,-1,-4
1511885054893980,0,-2,-2,-12,3,-1,3,-1
1511885054893980,-5,-1,9,-10,-5,2,-1,-2
1511885054909006,0,-2,-9,-11,-2,-4,-2,1
1511885054909006,-3,0,-2,0,-2,-5,-10,-1
1511885054910003,2,-2,1,12,1,-1,-36,-3
1511885054910003,-1,0,0,-1,-3,8,42,6
1511885054925043,2,0,0,-14,1,3,-4,2
1511885054925043,-2,-1,3,3,0,3,21,-1
1511885054931060,-4,-3,-2,1,-3,0,9,-1
1511885054931060,2,-2,2,21,-2,2,11,0
1511885054946415,-4,-2,1,-1,3,-5,2,-7
1511885054946415,-3,-1,2,3,-5,3,12,5
1511885054954341,-2,0,-4,-21,2,-5,0,-1
1511885054954341,2,1,4,30,-6,-6,-16,-1
1511885054969291,-3,-4,-6,-29,0,-4,15,-1
1511885054969291,1,1,-1,13,0,-6,-24,-1
1511885054970291,0,1,3,12,-2,-3,5,-3
1511885054970291,-1,-4,1,-15,0,-1,-4,3
1511885054985331,3,-1,-2,11,5,-1,0,-6
1511885054985331,-1,1,3,-18,0,-8,-11,-1
1511885054991347,5,-1,-5,5,-3,-2,2,2
1511885054991347,6,6,0,3,-1,-2,16,3
1511885055006634,-3,-2,-2,-4,3,4,-4,2
1511885055006634,15,-1,-1,6,-3,-3,-9,1
1511885055013467,-19,-2,-3,-6,3,8,86,-2
1511885055013467,-2,-3,1,0,-5,4,-26,-1
1511885055029628,2,3,3,25,-3,-3,-2,0
1511885055029628,6,2,-3,-23,-4,-3,-4,-4
1511885055030513,3,1,-2,17,2,-4,-16,-2
1511885055030513,-7,-6,-12,-3,-5,-3,-12,-9
1511885055045591,0,1,-9,0,0,3,11,0
1511885055045591,-10,-5,2,-1,0,3,-6,-3
1511885055051571,3,0,1,22,1,1,-12,-1
1511885055051571,-9,-1,7,-7,1,0,-8,-6
1511885055066728,3,-3,-33,-6,-8,-4,-16,2
1511885055066728,1,5,16,-2,-4,1,7,-2
1511885055073664,2,1,-10,4,1,2,-36,4
1511885055073664,3,-2,5,-3,3,-4,4,1
1511885055088669,1,6,15,0,-1,-2,-2,0
1511885055088669,-2,-2,-2,2,0,3,4,1
1511885055096832,1,-2,4,-10,-2,-2,-2,1
1511885055096832,0,-3,-5,-9,6,-1,-6,-1
1511885055105747,1,-1,7,7,-2,-2,3,-1
1511885055105747,-4,-2,-8,1,7,1,1,0
1511885055111907,4,-5,3,2,-6,-2,-5,-1
1511885055111907,4,-2,-10,-14,-2,-3,1,0
1511885055126197,-5,-2,22,1,2,1,-1,-3
1511885055126197,0,-2,-2,-16,0,-2,3,0
1511885055134336,-2,4,0,29,-1,-2,-1,-3
1511885055134336,-2,0,4,-18,-3,1,-2,0
1511885055148511,1,1,-11,1,-6,2,1,-1
1511885055148511,0,0,8,13,1,1,0,-2
1511885055156644,-2,0,-3,-22,2,0,-1,1
1511885055156644,-4,1,0,16,0,3,-3,-1
1511885055165559,0,4,12,-20,-2,-3,-3,0
1511885055165559,-1,-1,-12,3,2,-4,3,2
1511885055171833,-2,-2,2,9,0,1,2,0
1511885055171833,1,2,12,-1,-4,-2,-2,-2
1511885055186742,2,-1,2,-12,-1,0,0,1
1511885055186742,-4,0,-1,3,-2,-1,1,-1
1511885055193761,0,-5,-5,-12,-1,-5,-3,2
1511885055193761,0,4,-2,-3,0,3,-3,0
1511885055208826,-2,-4,4,23,1,1,-2,-1
1511885055208826,5,-1,-10,-14,-3,-2,-1,0
1511885055215970,0,4,-2,2,-2,3,-3,0
1511885055215970,-1,-1,-2,5,0,0,-1,-1
1511885055232009,-4,-1,-1,1,2,4,0,-3
1511885055232009,1,7,1,5,2,3,4,2
1511885055233012,-2,-1,-9,-8,-1,2,-3,-4
1511885055233012,3,0,-4,0,1,-4,-2,-2
1511885055246233,-6,-4,4,3,-1,4,0,-4
1511885055246233,-1,3,7,4,0,0,-5,-2
1511885055254368,2,0,3,-7,-1,1,-3,-1
1511885055254368,-9,-2,4,0,-1,-2,5,-5
1511885055268457,2,-3,-18,0,-1,-6,-23,3
1511885055268457,-3,-3,3,4,-3,4,18,0
1511885055276473,-1,0,-10,-6,-1,-10,7,-5
1511885055276473,2,-3,10,-5,0,5,-22,0
1511885055292614,0,0,0,-2,-3,-7,-13,3
1511885055292614,-11,0,2,3,-2,-1,10,1
1511885055292614,-1,0,3,-4,-2,-4,7,4
1511885055292614,26,0,-10,3,-5,-3,-31,-2
1511885055306883,27,4,6,0,-1,2,22,5
1511885055306883,-33,-4,-6,-2,-4,1,-12,-15
1511885055313884,8,-4,3,0,0,5,17,-1
1511885055313884,-5,3,-3,1,0,-5,-12,0
1511885055328865,2,-2,-6,0,-3,-1,7,1
1511885055328865,18,0,0,-4,-4,3,-7,4
1511885055336859,-3,9,13,-6,1,2,-31,-3
1511885055336859,-5,-1,-4,10,-1,10,48,3
1511885055351880,-13,-6,-8,-26,-2,-1,4,0
1511885055351880,6,-6,2,43,3,4,-5,0
1511885055352883,-1,0,-1,-24,1,-4,-7,-1
1511885055352883,-5,-3,-1,3,-3,-7,6,0
1511885055366079,-2,-2,-2,0,-1,1,-7,-4
1511885055366079,-1,2,-4,-13,0,-8,-4,2
1511885055374251,-1,-4,-1,3,0,5,8,1
1511885055374251,-2,-5,-3,1,3,0,-8,0
1511885055389248,-4,4,5,4,0,0,3,-3
1511885055389248,4,-1,-6,-8,-2,-1,-10,-2
1511885055396157,2,2,1,8,-1,4,7,1
1511885055396157,-5,0,-9,-6,0,2,5,-1
1511885055412378,-3,1,14,6,4,2,2,1
1511885055412378,-4,-10,-12,-6,2,-1,-3,0
1511885055413364,2,-2,0,1,0,2,-10,1
1511885055413364,-2,1,-3,2,-1,-2,8,2
1511885055426653,-4,0,-2,-3,1,-2,-20,-3
1511885055426653,1,0,12,2,0,7,32,-4
1511885055433485,3,-3,-13,-2,-2,-3,3,5
1511885055433485,0,-3,-2,0,-7,4,-3,-2
1511885055448627,-4,2,-7,4,3,3,3,-2
1511885055448627,5,0,2,-15,-6,-5,-16,-1
1511885055456848,-9,-1,2,3,5,2,13,-3
1511885055456848,-2,2,4,10,13,0,-2,2
1511885055471788,2,-1,-14,-14,-6,-4,2,2
1511885055471788,-1,0,-5,1,-2,-4,-8,0
1511885055472717,0,-2,5,-5,-3,0,-2,2
1511885055472717,3,-1,5,1,4,-2,3,-3
1511885055486756,-3,-4,-2,2,-3,0,0,-4
1511885055486756,0,2,1,-4,2,9,3,1
1511885055493898,-4,0,-2,-1,-3,-6,-6,0
1511885055493898,-3,0,-4,-2,-2,4,3,-4
1511885055508812,1,-3,2,6,0,-6,10,0
1511885055508812,2,0,2,-3,-4,2,-10,4
1511885055515835,6,0,-2,5,-1,-1,0,-3
1511885055515835,-5,1,-5,-7,-5,1,-6,0
1511885055532062,-4,-2,3,3,1,3,4,-1
1511885055532062,-1,-1,-5,-1,2,-4,-2,-2
1511885055532878,-1,1,5,-4,-7,-4,-3,-2
1511885055532878,-1,-1,-4,-5,2,-3,1,2
1511885055546014,-1,-3,-1,3,-3,0,-2,0
1511885055546014,1,0,2,3,2,-1,4,-2
1511885055553932,0,-4,-2,1,-11,-6,-3,0
1511885055553932,2,3,4,-5,-6,-2,-2,-2
1511885055568976,0,0,3,-4,-3,-4,-3,-1
1511885055568976,4,-3,-2,-11,-2,-8,-4,0
1511885055575991,-5,2,3,-2,7,-2,0,-3
1511885055575991,-4,-4,0,13,6,0,2,0
1511885055592066,-3,3,-5,4,3,3,-3,-2
1511885055592066,-3,-2,-3,-11,1,3,-1,-3
1511885055593037,1,5,-4,5,-1,3,-4,1
1511885055593037,-1,1,-2,-5,-2,-5,-3,1
1511885055606301,-1,6,5,5,-3,-2,-1,1
1511885055606301,-5,-4,-7,0,11,1,0,0
1511885055614213,-1,-8,0,-7,3,3,1,1
1511885055614213,3,-9,0,2,-3,2,-2,-1
1511885055628517,2,-3,3,4,-2,-4,0,1
1511885055628517,-2,-3,-4,8,1,-2,0,0
1511885055636521,-3,-7,-5,-4,-3,1,0,0
1511885055636521,2,5,2,-15,-1,-3,-2,0
1511885055651474,-1,-2,6,12,-1,2,0,-4
1511885055651474,-1,3,-6,19,-3,-1,3,0
1511885055652474,2,1,2,-5,4,1,0,-3
1511885055652474,-2,0,-3,-3,-2,2,2,-4
1511885055666636,-1,-1,3,-12,-2,0,1,1
1511885055666636,0,-2,3,-18,-4,-2,1,0
1511885055673757,-2,0,-1,23,1,3,-3,0
1511885055673757,0,1,1,-9,-4,1,-3,-1
1511885055688696,-1,-2,-4,-2,-1,1,-4,-2
1511885055688696,3,1,-2,-10,-9,-5,5,0
1511885055696869,-3,0,1,1,7,-1,1,-1
1511885055696869,-5,-2,4,-3,2,1,-1,-2
1511885055711931,-2,0,-4,-2,1,5,0,-4
1511885055711931,0,3,1,11,-6,2,-5,-2
1511885055712757,-5,-1,0,-8,-3,-1,-2,0
1511885055712757,-3,3,-3,8,0,-2,0,-1
1511885055726922,-1,-8,-3,-2,-1,0,3,2
1511885055726922,-4,0,5,7,2,3,-4,-2
1511885055733961,-2,2,1,-10,-3,3,-5,-5
1511885055733961,-1,-5,-3,8,2,-3,-2,-5
1511885055749016,1,0,-3,-8,-4,0,-2,-2
1511885055749016,0,3,-1,1,-1,1,-2,-1
1511885055756044,0,-1,2,6,-1,1,0,-1
1511885055756044,0,-5,2,5,0,0,2,2
1511885055772087,2,4,0,-8,2,-4,-4,0
1511885055772087,3,2,1,5,2,-4,4,0
1511885055773046,1,-3,-5,4,-1,-1,1,1
1511885055773046,1,0,0,-18,-2,-1,0,-1
1511885055786082,1,0,-4,20,0,-3,0,2
1511885055786082,2,1,-1,-18,-2,-4,-3,0
1511885055794323,-1,-1,-5,-3,1,4,1,-1
1511885055794323,-1,-1,-8,2,-4,-6,0,-1
1511885055809327,-3,1,2,-7,1,9,2,-2
1511885055809327,1,-4,-7,4,-2,-7,-3,0
1511885055816285,0,1,-4,-1,2,3,0,-1
1511885055816285,-4,-1,1,7,-6,-4,-1,-1
1511885055831559,-2,-4,-8,-10,-4,5,0,-3
1511885055831559,-2,-1,1,-1,1,-4,-1,-2
1511885055832558,3,-3,-2,0,1,4,-2,-1
1511885055832558,-2,2,1,1,-1,4,-1,2
1511885055847597,-1,-1,-7,-4,-3,-6,2,3
1511885055847597,0,-3,9,-2,-2,3,-1,-1
1511885055853906,1,0,3,-4,-3,-10,0,1
1511885055853906,-1,1,0,2,4,4,3,1
1511885055868787,0,-2,1,-2,4,-3,-1,1
1511885055868787,-4,-2,-2,4,1,4,-1,1
1511885055876905,-3,1,-3,-3,-2,-5,-3,-2
1511885055876905,0,-3,-3,-4,-7,2,0,2
1511885055891882,0,2,3,1,-1,-2,1,1
1511885055891882,0,-1,-5,-8,2,2,-1,-2
1511885055892855,-1,-2,2,17,1,-1,0,-2
1511885055892855,-1,-1,-5,14,-2,-10,-2,-2
1511885055906893,-3,1,1,-8,0,11,-2,-3
1511885055906893,-5,1,-2,9,10,-1,-2,0
1511885055913952,-1,-1,-3,-8,-4,0,-2,0
1511885055913952,-1,0,2,1,5,-4,1,-3
1511885055928993,-4,0,-4,5,1,3,-4,-2
1511885055928993,-3,-1,-1,-4,-3,-1,1,-2
1511885055936007,1,2,0,-3,-3,-1,0,-1
1511885055936007,-1,0,-5,-7,0,-1,-2,-1
1511885055952035,0,-4,1,7,-7,-10,-2,-1
1511885055952035,0,0,-2,10,-2,7,2,0
1511885055953011,-3,-2,3,-1,1,-1,-1,-1
1511885055953011,1,0,0,-11,-2,0,-2,-2
1511885055968078,-2,-4,-5,-10,-3,0,-1,-2
1511885055968078,4,2,3,-2,4,-10,0,1
1511885055974095,-3,0,-3,8,-3,-5,-1,-1
1511885055974095,-1,-1,2,-6,2,4,0,1
1511885055989137,0,6,-1,11,3,-2,-2,-2
1511885055989137,-5,1,2,-2,-4,-3,-3,0
1511885055996152,0,-1,1,-4,2,-2,1,-1
1511885055996152,0,0,0,-2,-3,7,-1,-1
1511885056011192,-2,-3,0,0,-2,-3,0,2
1511885056011192,0,-2,0,0,5,3,-3,-3
1511885056019291,2,-1,-3,-9,-6,-2,0,4
1511885056019291,-1,0,1,5,-3,2,-1,0
1511885056028211,2,-2,-2,-4,3,-3,-1,-1
1511885056028211,-2,3,-3,4,-2,1,2,1
1511885056034333,-2,-3,-6,2,-2,3,1,-1
1511885056034333,1,0,1,-1,1,-3,-3,-1
1511885056048566,0,1,4,-3,-3,-2,0,-2
1511885056048566,-2,-7,-13,-5,-5,4,0,-1
1511885056056584,1,4,4,2,4,0,0,-3
1511885056056584,-2,-2,-6,-1,-5,0,-4,0
1511885056071604,-1,2,-1,1,1,-4,-4,1
1511885056071604,1,1,0,0,-1,-1,1,1
1511885056079040,-2,0,0,1,6,0,-2,-3
1511885056079040,1,-2,0,0,1,1,4,1
1511885056088102,-3,1,1,2,2,-5,1,0
1511885056088102,0,-1,1,-3,-2,-2,0,1
1511885056094386,-1,-2,-3,-4,-4,-9,-1,-1
1511885056094386,-1,2,1,-1,-2,7,1,-1
1511885056108279,0,0,0,3,5,3,0,4
1511885056108279,0,-1,-1,-2,-4,-3,0,0
1511885056116329,-1,-1,-3,-3,-1,-2,-1,1
1511885056116329,-1,-1,-2,3,1,-4,1,0
1511885056131658,-1,-1,1,-1,-4,3,1,0
1511885056131658,1,0,0,-2,-3,1,-1,-1
1511885056139178,1,-5,-3,-2,-4,1,0,1
1511885056139178,3,-2,1,3,3,-2,1,-2
1511885056154830,0,-3,2,-1,-2,-1,1,-2
1511885056154830,-3,-2,-3,-2,0,-1,-1,-2
1511885056155329,-2,-2,0,-2,-2,3,-2,0
1511885056155329,-3,0,-1,-1,-3,-3,0,0
1511885056168911,-3,-4,-2,0,2,1,0,-1
1511885056168911,0,2,0,-1,1,-1,-1,-3
1511885056176432,-1,2,2,-2,-2,1,1,-1
1511885056176432,-1,-2,-6,-3,-1,-5,-2,0
1511885056191473,2,-1,-1,5,2,-3,-3,2
1511885056191473,-2,0,3,3,-1,9,-1,1
1511885056199215,-2,3,-1,-2,2,-2,-2,-1
1511885056199215,0,-3,2,-3,-4,-2,1,-2
1511885056214643,-3,1,0,-2,-2,-3,0,-1
1511885056214643,2,-1,-4,2,-6,0,-1,0
1511885056215648,0,0,-2,0,-2,-1,0,-2
1511885056215648,-2,1,0,-2,3,1,-1,-3
1511885056229312,0,1,-5,-1,-4,0,-1,-1
1511885056229312,1,-2,1,-3,-6,-5,1,-2
1511885056236736,-2,-1,3,-2,0,2,-2,0
1511885056236736,1,1,-1,0,0,-1,2,2
1511885056251776,-1,-1,0,-1,-5,-1,0,1
1511885056251776,-1,-1,6,-3,1,-4,-1,-2
1511885056258937,2,-1,-5,4,0,-2,3,1
1511885056258937,-2,-1,3,0,-3,1,-2,-2
1511885056274977,0,2,-2,-2,-4,-2,0,-3
1511885056274977,0,-2,-2,2,-1,-1,-1,2
1511885056275478,-2,-2,-3,-1,2,-2,-2,-1
1511885056275478,0,-1,-2,-3,-3,4,-1,-1
1511885056289144,-4,2,2,1,3,-3,1,1
1511885056289144,1,-1,0,-3,-1,0,1,-1
1511885056296793,2,-1,1,10,4,2,0,-1
1511885056296793,-2,-4,2,-5,-2,1,-5,0
1511885056311397,-3,-4,-1,3,2,2,0,-3
1511885056311397,-2,0,0,-3,-3,-1,-2,-2
1511885056318884,-3,-4,0,-2,3,4,-1,-3
1511885056318884,-1,2,-8,1,-5,-7,1,2
1511885056334984,2,-3,1,-1,-1,2,-2,-5
1511885056334984,-2,1,-5,1,3,0,-1,-3
1511885056335511,0,-1,-4,-7,-5,0,0,0
1511885056335511,-2,-2,1,5,1,0,-1,1
1511885056349036,0,1,-2,-4,-2,0,-1,-1
1511885056349036,-2,-2,-4,6,5,-6,-1,-1
1511885056356783,0,0,2,-4,-6,1,3,0
1511885056356783,-1,0,-4,-2,-3,0,-2,1
1511885056371830,1,-2,0,-3,0,2,-1,0
1511885056371830,1,-1,2,-6,0,2,-1,-1
1511885056378846,-2,-1,-1,0,-2,-7,-2,-1
1511885056378846,-1,-1,-1,2,3,1,0,-1
1511885056394889,-1,0,-2,-1,1,-3,-1,1
1511885056394889,-3,1,0,3,-1,1,-1,-3
1511885056395387,-2,-3,1,-4,-3,1,-2,0
1511885056395387,-3,0,2,-3,1,0,-1,0
1511885056408926,2,0,0,4,-3,-4,0,-3
1511885056408926,-1,2,-4,5,6,1,-3,2
1511885056416446,2,2,-4,1,-2,3,-1,0
1511885056416446,2,1,3,5,2,1,-1,-1
1511885056431486,-3,0,-1,-6,-3,4,-1,1
1511885056431486,-1,-4,2,-2,0,-2,0,0
1511885056439256,0,0,3,2,-3,-2,-1,2
1511885056439256,-1,3,-1,-5,0,-3,-1,0
1511885056454938,1,-1,1,-1,0,0,-2,-2
1511885056454938,1,-2,3,0,-5,-2,1,-1
1511885056455331,0,0,-2,-1,3,0,-2,-1
1511885056455331,-1,1,-2,-1,0,1,1,-2
1511885056468870,2,-2,-1,1,-2,1,1,2
1511885056468870,0,0,0,-4,-4,-1,3,-1
1511885056476390,0,-2,-1,-2,-1,-3,-2,-4
1511885056476390,0,-3,0,-1,0,-1,-2,-2
1511885056491395,-2,-2,-2,0,0,0,0,-2
1511885056491395,2,-3,1,0,0,-1,-1,0
1511885056498807,-3,1,-3,2,1,3,2,0
1511885056498807,1,-3,0,-2,0,-1,-1,0
1511885056514492,-1,-2,0,-4,-2,-3,-2,0
1511885056514492,-3,-2,-2,0,-1,0,0,-2
1511885056515498,0,-1,-2,3,0,0,-1,-1
1511885056515498,-3,-2,-2,-1,0,-2,-1,0
1511885056529034,-1,-1,1,2,3,2,2,0
1511885056529034,0,-1,-3,-2,-4,0,-2,-2
1511885056536580,-1,1,-1,0,3,-3,-1,-1
1511885056536580,0,0,-3,-1,2,0,0,-4
1511885056551623,-2,1,-6,-4,-3,-3,0,-1
1511885056551623,0,0,-3,0,1,1,-3,-1
1511885056559300,0,-4,-2,1,3,-5,1,1
1511885056559300,-2,-1,-1,2,0,1,0,0
1511885056574816,-1,-2,-1,-2,-1,3,-3,-1
1511885056574816,2,-1,1,-3,-1,4,0,1
1511885056575317,0,1,5,-6,-3,0,-3,-2
1511885056575317,0,-2,-4,1,0,0,-1,1
1511885056589113,1,3,4,11,6,-4,0,0
1511885056589113,-2,-1,-2,-4,0,0,1,0
1511885056596622,-1,-3,2,-2,-4,-3,-1,-2
1511885056596622,1,0,0,-5,-3,-2,0,-1
1511885056611640,-1,-2,-4,-2,0,-2,0,-1
1511885056611640,-1,0,2,1,1,-3,0,-1
1511885056619582,-2,3,1,1,0,1,0,2
1511885056619582,-3,-1,0,-6,-4,1,2,0
1511885056634888,-3,-1,-3,5,2,-3,1,-1
1511885056634888,0,-1,-1,1,1,3,-1,0
1511885056635810,1,0,-4,-4,-1,-5,0,-1
1511885056635810,-1,-2,2,1,1,0,1,0
1511885056648800,-1,-2,2,-4,-3,1,0,-3
1511885056648800,-1,0,-2,-4,-2,2,-3,-1
1511885056656320,1,0,-3,0,0,3,0,0
1511885056656320,-2,1,1,0,-4,-1,1,-1
1511885056671313,1,1,1,0,-1,-1,-1,-1
1511885056671313,-2,-1,2,5,5,0,-1,-1
1511885056679534,0,-2,-4,-3,1,2,-2,0
1511885056679534,-1,0,0,-1,1,-2,-3,0
1511885056694759,-1,0,-1,-2,-2,1,-4,1
1511885056694759,0,1,-2,-1,1,-3,-1,1
1511885056695727,-3,-4,-1,-3,-4,5,-1,-1
1511885056695727,1,-2,1,-1,2,-4,0,2
1511885056708800,-5,-4,-1,-4,2,0,0,2
1511885056708800,0,2,0,2,-4,2,-4,-3
1511885056716773,-4,-3,1,-1,-5,-5,0,0
1511885056716773,1,1,-2,0,-1,0,0,-3
1511885056731562,0,1,-2,-2,-1,2,-1,1
1511885056731562,-3,-1,0,-4,0,-3,0,-1
1511885056740080,-2,-3,-3,-3,1,2,2,-2
1511885056740080,1,-2,-1,2,0,-1,-3,-1
1511885056754155,1,3,3,5,-2,0,0,-2
1511885056754155,-1,1,-6,-3,0,-1,0,1
1511885056755119,-3,3,0,1,-1,3,-2,-2
1511885056755119,2,2,-2,-1,-1,1,-1,0
1511885056769196,-2,0,-1,-3,-2,-1,-2,-3
1511885056769196,1,-5,-4,-1,-1,-1,-2,0
1511885056776184,0,0,-3,0,-4,-1,-1,1
1511885056776184,-4,0,5,6,1,0,-2,-1
1511885056791410,0,-2,-4,3,1,3,1,-1
1511885056791410,-1,0,4,0,-4,0,0,0
1511885056799250,0,0,0,-6,0,-2,-1,-3
1511885056799250,1,-3,-4,0,-1,-3,-1,-1
1511885056814274,0,0,4,-3,-1,-1,-1,-1
1511885056814274,-3,-2,-2,-1,1,-1,1,-1
1511885056815276,1,2,-4,2,1,2,0,-1
1511885056815276,-4,1,1,0,1,-1,0,-1
1511885056828716,-1,-2,-1,-5,0,0,-1,-3
1511885056828716,1,1,2,-4,1,-2,0,-4
1511885056836778,1,1,-4,1,1,-1,-1,1
1511885056836778,0,1,0,0,-2,2,0,0
1511885056851818,-1,-2,-4,-2,-4,-3,-2,2
1511885056851818,1,0,-2,-3,-6,1,-2,-1
1511885056858875,-4,-1,5,4,8,-3,-1,-1
1511885056858875,0,1,-2,-3,-1,2,1,0
1511885056874881,-1,0,-4,-2,2,0,-1,-1
1511885056874881,-2,-4,3,0,-1,0,2,1
1511885056874881,2,1,0,0,-1,-1,-4,-1
1511885056874881,-3,-1,0,1,1,-3,-1,-1
1511885056888971,1,2,4,2,-1,-2,0,1
1511885056888971,-1,-1,-4,-4,-1,3,0,0
1511885056896131,0,-1,4,-1,-3,1,-1,0
1511885056896131,1,0,-2,-1,-3,-2,-1,0
1511885056911299,2,-3,1,0,3,1,-1,-3
1511885056911299,-3,0,-3,2,1,-4,-1,-1
1511885056918415,0,0,0,-2,-6,-1,1,-2
1511885056918415,-1,-1,-2,-4,-5,-1,-2,-2
1511885056934412,-1,-2,-2,3,1,2,1,-1
1511885056934412,1,2,3,-2,-3,-3,1,0
1511885056935406,-2,-3,-7,0,0,3,-1,0
1511885056935406,-1,3,5,-1,2,1,-1,0
1511885056948564,0,-1,-7,-2,-4,-1,0,0
1511885056948564,0,2,3,2,-2,3,0,-1
1511885056956636,1,-2,-5,-2,-4,-3,0,0
1511885056956636,-2,-2,1,0,2,0,-1,-2
1511885056971804,-2,1,3,-1,-4,-3,-1,-2
1511885056971804,-1,1,-1,-5,-3,-3,1,1
1511885056978878,-1,-1,-2,2,-1,1,2,-1
1511885056978878,0,-3,-3,-2,-1,0,-1,-2
1511885056993862,-1,0,-3,3,0,-1,-2,0
1511885056993862,-2,1,-2,0,-3,-7,0,-1
1511885057001758,1,-1,6,0,0,1,0,1
1511885057001758,2,-4,0,0,0,-1,2,-1
1511885057008774,1,0,2,-2,0,-1,-2,-1
1511885057008774,0,2,0,4,-1,-2,-3,-1
1511885057015963,-3,0,1,-4,1,1,-1,0
1511885057015963,-1,2,-1,4,-1,0,-1,0
1511885057031004,0,-1,0,-3,-3,-1,2,1
1511885057031004,1,-2,0,1,3,-2,0,0
1511885057039154,0,-1,-3,-1,-1,-1,-3,0
1511885057039154,-1,-2,-2,-2,-3,-4,-1,3
1511885057054104,-1,2,0,-2,-2,3,-1,-4
1511885057054104,0,-2,-1,1,-1,1,-2,1
1511885057062125,0,-2,2,0,1,-4,-1,-1
1511885057062125,1,0,2,0,-2,-2,-1,-2
1511885057077163,0,1,-2,-1,0,1,-1,0
1511885057077163,0,-4,-1,-3,-2,3,-1,-1
1511885057078130,-1,-1,-1,1,0,2,-2,-1
1511885057078130,2,1,-5,0,-1,-2,0,-3
1511885057091199,0,3,3,-4,-6,-6,0,-1
1511885057091199,-3,-1,1,1,6,2,-2,-4
1511885057099223,1,0,0,-1,2,1,-1,-2
1511885057099223,-3,0,-1,10,5,0,1,1
1511885057114260,-1,-1,1,-5,-1,4,-1,0
1511885057114260,-1,-3,-5,-3,-1,-1,0,-1
1511885057122284,1,0,-2,0,-2,-3,0,2
1511885057122284,-1,1,5,-4,-3,-2,-3,-3
1511885057137326,-2,-5,-7,-3,0,2,0,-2
1511885057137326,-3,0,3,4,5,4,-1,-1
1511885057137326,-3,-2,-4,-1,-2,-3,-1,-2
1511885057137326,1,2,0,-2,1,4,-1,0
1511885057151323,-2,-1,1,0,3,-2,-2,2
1511885057151323,-1,1,-4,-10,0,-1,0,-1
1511885057159408,1,-3,-2,8,1,-3,0,-2
1511885057159408,-1,-5,0,1,-3,2,1,3
1511885057174410,0,-3,0,-5,-4,-1,0,-2
1511885057174410,-1,-2,-2,4,0,-3,1,-2
1511885057182403,-3,5,2,-7,1,0,0,-1
1511885057182403,4,-2,-2,6,4,2,1,-1
1511885057196622,1,-2,0,1,1,1,0,1
1511885057196622,-1,2,-2,-4,-5,-5,-3,-2
1511885057197444,-1,-5,0,1,-5,-1,1,-1
1511885057197444,0,2,-4,-4,0,1,-3,0
1511885057211506,1,1,-1,3,3,-1,0,1
1511885057211506,-1,-1,1,-1,-2,1,-1,0
1511885057218631,-2,0,-2,-2,0,1,0,-2
1511885057218631,0,5,3,5,0,0,2,-3
1511885057233764,1,-2,-1,-4,-5,-5,1,-2
1511885057233764,-1,1,-2,-2,-3,-1,-1,-1
1511885057241765,-3,0,-2,-3,0,2,0,1
1511885057241765,0,-4,4,1,9,0,-3,-1
1511885057256907,2,0,-2,0,-5,-3,1,-2
1511885057256907,2,0,1,2,-1,1,3,0
1511885057257783,-1,-2,-3,-1,1,0,-2,-2
1511885057257783,-4,0,-1,-2,-7,-3,-3,-1
1511885057270818,-1,-1,1,0,-1,-3,-1,0
1511885057270818,0,1,-3,1,1,-1,-1,1
1511885057278842,1,1,0,0,-1,-2,-1,0
1511885057278842,-2,1,-5,-4,0,-2,-2,-1
1511885057293991,1,0,-3,-3,0,1,-1,-2
1511885057293991,-2,-2,1,5,1,-1,-1,1
1511885057301903,0,0,-3,-1,-3,0,-2,-1
1511885057301903,-2,-2,-4,-5,-5,0,0,-2
1511885057317137,-3,-1,1,0,-3,1,-1,-2
1511885057317137,2,-1,6,6,7,1,0,-1
1511885057317945,1,-1,-19,-5,-4,-2,0,1
1511885057317945,1,0,2,0,-1,-5,-3,1
1511885057331137,0,-2,-3,-6,-4,3,1,-3
1511885057331137,2,-1,3,3,-3,-4,2,0
1511885057339157,-1,0,4,-1,-1,-1,-1,-2
1511885057339157,0,0,-3,1,5,0,0,3
1511885057354320,-3,1,-3,-5,-4,0,-1,-1
1511885057354320,0,-1,-3,1,1,2,-1,2
1511885057362444,-1,1,0,-1,0,0,-1,-2
1511885057362444,0,0,-3,0,-4,-1,-1,-1
1511885057377513,-1,-2,1,-5,-5,0,-2,0
1511885057377513,0,-1,-2,11,6,-3,-2,-2
1511885057378386,0,1,2,1,0,0,-2,-1
1511885057378386,-4,1,-2,-7,-2,0,1,-1
1511885057391604,0,-2,-2,16,15,-1,1,3
1511885057391604,-1,-1,-2,-12,-9,1,-1,-2
1511885057398625,0,0,8,-3,-2,-4,-2,-1
1511885057398625,-1,1,-6,1,-3,-4,-1,-3
1511885057413693,-1,2,-4,-6,-1,1,-1,-1
1511885057413693,-3,-1,-1,3,4,6,-3,-3
1511885057421842,0,-2,1,5,-2,-4,0,3
1511885057421842,0,-3,1,-13,-6,0,-1,-2
1511885057436794,2,3,2,6,-9,-3,0,-1
1511885057436794,-1,0,-3,-8,9,1,-3,-1
1511885057437755,2,0,1,4,-6,2,-1,2
1511885057437755,2,-1,-3,-2,-4,0,2,1
1511885057451817,-3,-1,-2,11,0,0,-3,-2
1511885057451817,-4,-5,0,-20,-1,-2,1,-3
1511885057458815,-1,0,3,10,4,1,-2,-1
1511885057458815,-1,-3,-2,9,-7,-3,1,1
1511885057473853,-1,4,3,-9,6,1,-3,-5
1511885057473853,4,1,-4,9,-7,-1,0,4
1511885057481926,-5,-1,1,22,10,1,-1,-1
1511885057481926,-3,0,5,-2,8,4,-4,0
1511885057496916,0,-4,-10,-23,0,0,2,1
1511885057496916,-1,-1,-6,-25,-8,0,-4,-4
1511885057497915,0,0,3,6,3,0,2,-1
1511885057497915,0,0,-4,6,0,0,-1,-1
1511885057511194,-1,0,1,-1,-3,-2,0,-1
1511885057511194,-2,-1,-4,-14,-4,-3,0,0
1511885057519215,2,-2,-4,-1,-1,-1,3,1
1511885057519215,-4,-2,-3,12,0,-1,-4,-4
1511885057533464,1,1,-3,-7,-3,-3,8,-1
1511885057533464,-1,0,-2,7,-4,1,-3,0
1511885057542512,0,1,-1,-10,-6,-1,1,-1
1511885057542512,1,2,7,7,-3,-1,0,0
1511885057557555,-2,-4,-2,6,3,-2,-4,0
1511885057557555,-2,-3,-2,6,-3,-3,26,-2
1511885057557555,2,0,5,-7,1,1,-2,0
1511885057557555,2,-4,-5,-8,-2,-1,0,2
1511885057571660,-2,-5,4,6,0,0,1,-1
1511885057571660,1,-2,4,2,-2,-2,-5,3
1511885057578680,-2,1,-5,-9,-4,-1,-3,-4
1511885057578680,-2,1,-2,-1,2,2,1,-5
1511885057593774,2,-3,1,7,-1,0,-5,1
1511885057593774,-2,-2,1,7,-2,2,-7,-4
1511885057601674,-2,-2,-3,-3,-1,-2,3,-4
1511885057601674,0,-1,-1,-2,2,-3,-5,-1
1511885057616730,-3,0,1,3,-1,-2,2,4
1511885057616730,3,-1,-2,0,-2,-3,-1,0
1511885057617714,-2,-1,1,-4,0,1,-4,-2
1511885057617714,0,0,3,-6,-2,-1,1,2
1511885057631758,0,4,0,3,0,0,3,-1
1511885057631758,-1,-1,1,4,2,-2,-3,1
1511885057639112,0,1,0,-5,-3,-1,-11,-3
1511885057639112,0,-3,-3,-2,0,0,5,0
1511885057654075,0,0,2,1,-4,0,4,-2
1511885057654075,-2,-2,2,4,6,0,-6,2
1511885057662099,1,-2,-4,-1,-4,-3,1,-1
1511885057662099,1,2,4,2,2,0,3,-1
1511885057677172,2,-4,-4,0,0,-4,-10,-1
1511885057677172,0,1,-1,-3,-1,-2,1,0
1511885057678144,-2,-1,2,-8,-2,-1,3,2
1511885057678144,-1,-1,-1,9,5,-1,2,-2
1511885057691297,0,-1,1,-5,-4,-1,0,-1
1511885057691297,-2,0,-2,5,9,4,-2,-3
1511885057699196,2,0,1,2,-4,3,6,3
1511885057699196,0,-3,1,-4,-4,-1,-4,-1
1511885057714236,0,-1,-3,-4,-1,2,2,-2
1511885057714236,1,-1,-1,-1,-7,-3,-4,-1
1511885057722381,-3,1,-7,-16,-3,-3,-2,-2
1511885057722381,0,2,2,-6,0,1,-3,-1
1511885057737420,-4,-1,-2,20,-4,3,-2,0
1511885057737420,-2,1,3,4,-2,1,-3,-1
1511885057738301,0,-3,-3,0,2,0,3,-2
1511885057738301,-3,-3,-2,0,-2,-3,-2,-1
1511885057751376,0,-4,2,17,5,2,0,0
1511885057751376,1,2,-1,-8,-7,-1,1,1
1511885057758386,-3,-1,0,7,9,1,-2,0
1511885057758386,-2,2,-2,-4,-1,1,1,-1
1511885057774433,-2,-1,7,-8,-3,0,-2,-2
1511885057774433,0,1,-10,-10,-2,-4,2,1
1511885057782493,-1,0,0,15,0,2,-1,0
1511885057782493,2,-1,-2,-7,-8,-6,-1,4
1511885057796595,-2,-2,-5,-8,1,-1,0,2
1511885057796595,0,-1,6,13,-6,2,-2,-2
1511885057797494,1,1,1,-33,-4,-7,-1,-2
1511885057797494,0,1,-3,21,1,1,-1,-2
1511885057811535,-5,1,0,-5,0,0,-1,0
1511885057811535,-2,1,-2,-5,-2,1,-3,-2
1511885057818683,-1,-1,-3,5,-2,-1,-3,0
1511885057818683,2,-1,1,3,2,0,-2,-1
1511885057833834,1,-1,-5,-17,-1,0,-2,-1
1511885057833834,-4,0,8,-3,3,-1,-1,-6
1511885057841758,-3,-3,-3,3,4,1,-2,-2
1511885057841758,-2,-1,0,-19,1,0,-2,0
1511885057856845,-1,-3,3,8,2,1,2,-2
1511885057856845,-3,-2,-1,16,0,1,-3,-1
1511885057857800,1,-2,-1,-24,1,3,0,-1
1511885057857800,-2,-1,4,17,-1,3,-1,1
1511885057870976,2,-1,-9,-8,-3,-1,-3,3
1511885057870976,-2,-3,-4,-2,1,0,-3,-2
1511885057879066,-1,-1,2,10,-2,-3,-1,-1
1511885057879066,-4,3,-4,-20,2,2,0,-5
1511885057894258,3,-1,1,8,1,-2,1,2
1511885057894258,1,0,1,-19,-1,1,0,-4
1511885057902205,-2,-4,-7,23,-3,-1,2,2
1511885057902205,0,-2,-4,-4,-1,-2,1,1
1511885057916215,0,0,0,3,1,0,-2,-2
1511885057916215,2,-6,1,13,1,-2,0,1
1511885057924342,-1,3,-3,-23,-1,2,-2,0
1511885057924342,2,-1,6,6,-4,-2,1,-1
1511885057931366,-2,-1,-9,2,0,-2,1,0
1511885057931366,0,1,0,-2,-1,1,1,-2
1511885057939298,-2,-1,2,14,0,-2,0,0
1511885057939298,-2,-2,-10,-9,-4,-1,-2,0
1511885057953570,0,0,8,2,0,-1,1,1
1511885057953570,0,-1,-6,-5,-2,-1,2,0
1511885057961490,2,3,2,11,0,-2,-2,0
1511885057961490,2,1,-3,-10,-1,0,-1,-2
1511885057976535,0,-1,-2,5,-2,-1,-1,-1
1511885057976535,-2,-2,1,2,0,0,-1,1
1511885057984665,-1,-2,3,5,-4,-2,-2,1
1511885057984665,-4,-2,3,-1,3,-1,0,0
1511885057991624,-3,2,4,-9,0,0,1,-2
1511885057991624,2,1,-3,0,-1,-1,1,1
1511885057998710,0,0,2,-5,2,-1,1,0
1511885057998710,2,-3,2,9,1,-1,-2,1
1511885058013629,-1,0,16,-9,0,1,-1,-3
1511885058013629,3,1,-29,2,0,1,-2,2
1511885058021773,-1,1,9,-8,-3,-1,-3,-2
1511885058021773,-3,1,0,5,-3,3,0,0
1511885058036690,3,-3,0,1,2,-4,0,3
1511885058036690,-4,7,10,5,-2,0,-3,-4
1511885058044712,0,-1,-8,1,-1,0,2,2
1511885058044712,3,-1,-2,-7,-1,-2,-3,0
1511885058059950,1,1,-5,11,-1,-1,0,1
1511885058059950,0,-4,-1,-14,-2,-1,-1,-2
1511885058059950,0,0,-7,6,-1,-3,-1,-2
1511885058059950,-6,-4,6,-6,-1,-1,0,0
1511885058073790,-1,1,-16,1,-2,1,-1,-3
1511885058073790,1,-2,5,7,0,-2,2,4
1511885058081825,-1,2,-3,0,-1,0,-3,-5
1511885058081825,2,-5,5,1,-2,-1,-1,1
1511885058096879,-4,6,13,-5,-3,-4,-3,-2
1511885058096879,-2,-3,-12,2,4,1,-3,-1
1511885058104960,3,-1,-3,-4,-3,2,2,1
1511885058104960,-2,3,-2,5,0,1,0,2
1511885058119979,-5,-4,-2,1,-1,0,1,-1
1511885058119979,-1,-6,-3,5,1,1,-2,-2
1511885058119979,-3,-1,6,-9,-2,-2,6,0
1511885058119979,0,-1,-8,8,-4,0,-2,0
1511885058134058,-1,-2,-3,-1,-1,-2,0,-2
1511885058134058,1,2,-4,-2,-1,-3,0,1
1511885058142225,-2,-3,-2,-2,0,0,-1,-1
1511885058142225,-1,-3,2,0,-3,2,2,0
1511885058156285,3,-1,-6,0,1,0,-2,-2
1511885058156285,1,-1,8,-8,-5,-1,0,2
1511885058164180,3,-1,0,7,-4,-3,1,1
1511885058164180,0,-3,2,-7,0,-2,0,-1
1511885058179454,3,0,-2,-2,0,2,-4,0
1511885058179454,1,4,9,-4,0,-3,1,1
1511885058180358,1,-2,-7,5,3,1,1,-2
1511885058180358,-1,1,-2,-4,0,-3,-1,-5
1511885058193526,1,0,-6,-7,1,0,-1,-1
1511885058193526,-4,-2,6,-1,0,3,2,-1
1511885058202450,1,2,0,10,-2,-1,0,4
1511885058202450,-2,-2,0,1,1,-3,-1,-1
1511885058216487,-3,0,-2,-4,-1,-2,0,2
1511885058216487,2,3,3,9,-2,-5,-4,-2
1511885058224553,-5,0,-2,-8,2,3,4,-2
1511885058224553,0,-4,-7,3,0,2,-1,1
1511885058239670,-2,-1,2,-3,-3,-2,-1,-2
1511885058239670,-2,-3,0,-1,-1,0,2,2
1511885058240553,0,1,0,-4,-5,-1,-7,0
1511885058240553,2,1,-9,-2,0,1,0,-1
1511885058253626,-1,0,6,2,-1,2,-1,-1
1511885058253626,-2,-5,-11,-5,1,3,0,-2
1511885058261608,1,0,6,2,1,-3,-4,-2
1511885058261608,-3,3,4,-3,1,2,4,0
1511885058276690,3,-3,-2,-1,-3,2,0,-1
1511885058276690,-3,-2,-2,1,-1,-5,0,-1
1511885058284710,-2,-6,4,1,0,4,0,0
1511885058284710,5,-1,-9,1,-1,-4,-3,1
1511885058299815,-6,2,4,3,3,5,0,-3
1511885058299815,2,2,0,-6,-1,-4,-5,1
1511885058299815,-2,-7,-6,3,-3,-2,-1,-1
1511885058299815,-4,2,2,-10,-4,-4,-4,-3
1511885058313856,2,-3,-5,20,0,1,0,2
1511885058313856,-1,4,4,-10,0,0,-1,-2
1511885058320870,-1,-5,-11,-2,3,-1,-1,-1
1511885058320870,3,0,4,-2,-1,-1,1,-2
1511885058345130,-3,-4,9,-1,0,2,-5,-3
1511885058345130,-1,-4,-21,-7,-1,-4,2,-2
1511885058345937,-1,2,2,5,2,1,-2,0
1511885058345937,-2,-2,4,4,-2,1,5,0
1511885058359976,-2,0,-2,-1,0,2,-5,0
1511885058359976,-1,-4,4,4,2,1,5,-2
1511885058359976,0,0,1,-4,-4,1,0,1
1511885058359976,-1,1,-1,3,0,2,-1,-2
1511885058374328,0,-3,-1,-7,0,-1,-2,2
1511885058374328,0,0,11,7,-2,-4,-5,0
1511885058381156,-3,-1,-3,0,0,-1,-1,-2
1511885058381156,-1,-1,-4,-1,2,-2,-3,1
1511885058396415,1,2,-3,0,-2,4,3,1
1511885058396415,1,-2,1,-1,-2,0,-1,-1
1511885058404424,0,4,-2,-9,-5,-3,-1,-1
1511885058404424,-2,-3,3,14,3,-6,-6,-2
1511885058419585,-4,-1,-8,0,-2,5,2,0
1511885058419585,-2,-1,3,-1,-1,5,7,-2
1511885058420395,0,2,0,-2,-1,1,-4,-3
1511885058420395,-1,-3,-3,-4,4,-5,-2,0
1511885058433536,-2,0,6,-3,-9,4,0,-1
1511885058433536,-3,0,0,11,13,1,-5,1
1511885058441457,-3,3,7,-8,-6,-1,0,-3
1511885058441457,0,2,-6,12,6,4,0,-1
1511885058456719,1,0,-2,-14,-8,-12,1,-1
1511885058456719,0,-1,6,-6,-2,6,0,-2
1511885058464659,-2,-1,-4,2,6,0,-2,3
1511885058464659,2,1,1,0,-8,-2,-1,2
1511885058479818,-3,0,-4,4,6,-2,-3,-4
1511885058479818,-2,1,-1,-29,-1,2,1,2
1511885058480703,0,-4,-4,31,6,-2,1,-2
1511885058480703,1,0,1,-9,-11,3,1,1
1511885058493757,2,-4,3,-5,-5,-4,0,0
1511885058493757,-2,0,-7,-6,2,1,-2,-2
1511885058501755,0,-1,1,-4,-7,-5,-3,-2
1511885058501755,-1,3,0,-4,2,9,2,-3
1511885058516816,2,1,-6,6,-2,-8,-1,2
1511885058516816,-1,1,0,-1,-6,-5,-4,2
1511885058524837,-2,-3,4,-5,-1,-1,2,-2
1511885058524837,1,-2,0,7,4,-1,0,-1
1511885058540006,-2,2,-2,-13,-3,-2,0,0
1511885058540006,1,-4,0,16,-4,-2,-2,-5
1511885058540857,1,0,-1,-7,4,-3,-8,-2
1511885058540857,-2,-3,-4,13,-5,4,4,0
1511885058554017,2,3,1,-6,-1,-3,-2,-1
1511885058554017,-3,1,-2,15,6,-2,2,-1
1511885058562221,-2,1,4,-19,-5,1,-2,2
1511885058562221,-3,0,-2,-4,0,-5,-5,1
1511885058576073,1,-1,4,11,-2,0,-2,-1
1511885058576073,-1,-3,-3,4,1,-3,-2,-1
1511885058584191,-1,-1,2,2,-1,6,5,-3
1511885058584191,-2,0,-2,-12,-3,-2,-2,0
1511885058599137,-1,0,1,3,1,1,1,0
1511885058599137,1,4,0,-2,-3,-2,-4,1
1511885058600136,-3,-3,-8,-10,-3,0,0,0
1511885058600136,0,-3,1,-4,0,0,-2,2
1511885058614173,-2,2,-2,24,2,1,-1,-1
1511885058614173,0,-2,-3,-22,-9,-2,7,2
1511885058621195,2,-2,-3,8,0,1,1,1
1511885058621195,0,1,3,0,-5,-2,0,-5
1511885058636421,-4,-2,-8,-21,2,3,1,-3
1511885058636421,-3,0,4,22,-5,3,-3,-2
1511885058644350,-1,1,2,6,-3,1,-3,-1
1511885058644350,0,-1,-2,-17,1,-1,1,-4
1511885058659458,-2,0,-1,-2,7,1,-2,-2
1511885058659458,2,-3,-2,-5,-2,1,-6,-2
1511885058660297,-6,1,-3,4,4,2,-1,1
1511885058660297,-1,-2,-2,8,2,-1,-4,0
1511885058673676,-1,1,-3,-5,0,3,0,-1
1511885058673676,0,2,1,-2,-2,1,1,-2
1511885058681579,-1,-3,1,2,0,-2,-1,-1
1511885058681579,-1,-3,-3,-10,0,4,2,-1
1511885058696812,0,1,3,-4,-6,-3,-2,0
1511885058696812,-2,-1,2,-10,6,3,-1,-1
1511885058704822,1,2,5,15,-5,-1,1,-1
1511885058704822,-3,-1,-9,-9,-6,-7,-4,-1
1511885058719864,0,-5,3,0,6,0,-2,1
1511885058719864,0,2,1,1,-2,-5,-2,1
1511885058719864,1,0,-6,-11,-4,-3,0,1
1511885058719864,-2,2,7,5,0,0,8,0
1511885058733860,0,-2,2,1,-4,-1,0,-2
1511885058733860,-2,-1,0,9,-2,-2,-3,2
1511885058740917,2,-1,3,-5,6,0,0,0
1511885058740917,-3,-3,0,4,-1,3,-1,-1
1511885058756022,-1,-1,-7,-3,2,0,0,-1
1511885058756022,2,2,-3,2,-3,1,3,0
1511885058764995,-1,-2,2,0,3,0,-2,-3
1511885058764995,0,3,-4,1,1,0,-6,2
1511885058779034,1,0,0,3,-1,-1,-2,0
1511885058779034,-1,-3,-5,-4,0,1,-5,-1
1511885058780033,-3,2,-1,-2,-6,-3,0,1
1511885058780033,2,-1,0,-6,-2,-2,-3,-3
1511885058794266,-2,4,0,4,-5,0,1,0
1511885058794266,1,-3,0,-2,-3,-3,-1,0
1511885058801089,2,-1,4,-1,2,0,-3,-4
1511885058801089,-1,-3,-3,1,1,0,-1,1
1511885058816510,-1,1,1,-2,0,0,-1,-1
1511885058816510,1,-2,-3,0,0,-1,0,-3
1511885058824521,-1,-4,-5,0,-2,-4,1,-1
1511885058824521,1,3,4,-2,3,1,-1,-2
1511885058838445,0,-4,-4,3,3,1,2,0
1511885058838445,-1,0,-4,-3,-3,2,-2,1
1511885058846611,2,1,-1,1,2,1,-1,-2
1511885058846611,-2,-2,-2,0,-5,-2,0,-3
1511885058853631,-2,2,-4,2,0,2,1,-3
1511885058853631,-1,-1,2,-1,4,1,1,-1
1511885058861815,-3,0,4,-2,-3,0,1,0
1511885058861815,1,-2,-3,10,13,-4,3,0
1511885058876849,2,-3,2,-1,-2,-3,-3,1
1511885058876849,0,0,-4,-2,-3,-3,-1,-1
1511885058884828,0,1,-1,3,3,1,1,-3
1511885058884828,-2,0,4,-2,-6,-1,-7,1
1511885058898987,-2,-4,1,-2,0,-3,2,-1
1511885058898987,0,-5,-6,-2,-3,2,1,-2
1511885058907129,-1,0,3,-2,-1,1,-1,1
1511885058907129,-1,0,2,2,1,1,-2,-3
1511885058914027,1,-3,-1,-2,1,0,-2,-1
1511885058914027,0,-1,1,-1,-4,-3,0,-1
1511885058921166,-2,1,-4,-1,1,0,-2,0
1511885058921166,1,1,2,-3,-6,-2,1,1
1511885058936125,-1,2,-5,-2,1,-1,-4,1
1511885058936125,-1,1,6,2,5,-2,0,-1
1511885058944321,1,-5,-5,-6,-5,-2,-2,0
1511885058944321,0,-1,-4,-2,4,3,3,-3
1511885058959270,0,-2,-1,-2,-2,0,-3,-1
1511885058959270,0,-2,9,3,-1,-1,-2,-2
1511885058967266,-1,0,-12,-2,-1,-2,0,1
1511885058967266,-3,-1,3,0,-2,-1,-5,0
1511885058982306,-2,2,5,2,8,1,1,0
1511885058982306,3,-4,-2,-2,-2,0,1,-1
1511885058982306,1,3,-3,-2,-2,1,-2,-2
1511885058982306,1,0,-6,-2,-2,0,2,2
1511885058996523,0,4,5,0,-2,0,-3,0
1511885058996523,-3,-2,-8,-2,2,3,0,-2
1511885059004365,-1,-2,10,-2,0,-3,2,0
1511885059004365,0,0,-6,4,0,-1,0,2
1511885059018727,-2,1,-11,1,2,0,-2,-1
1511885059018727,-1,-1,0,-3,-1,0,-1,-1
1511885059026662,0,-2,6,7,1,3,1,-1
1511885059026662,0,-3,0,-7,-4,-4,-1,-1
1511885059042605,-1,-4,-2,4,2,0,4,0
1511885059042605,-3,1,-1,-2,-1,-1,-3,4
1511885059042605,1,0,-2,1,0,-2,0,-1
1511885059042605,-3,-3,-1,-1,-1,2,-1,-2
1511885059056801,-2,-1,-1,-7,-3,-1,3,-1
1511885059056801,0,0,0,1,1,0,-1,-2
1511885059064972,-3,-5,-3,0,2,-3,1,-2
1511885059064972,0,4,1,-1,-1,1,-5,-3
1511885059078955,1,-2,1,-2,-4,-1,9,-2
1511885059078955,2,2,-2,-1,-3,1,1,2
1511885059086857,-2,1,-3,-2,-1,2,-1,1
1511885059086857,-2,-2,1,-3,-1,-3,0,1
1511885059101900,0,-1,0,0,-1,-1,-4,-1
1511885059101900,-1,1,-3,2,-3,-3,-4,0
1511885059102900,0,-1,0,-1,2,-2,3,0
1511885059102900,-2,-1,-1,0,0,0,2,-2
1511885059116131,-2,-3,0,-5,-3,1,-3,-1
1511885059116131,-1,0,0,0,2,-3,2,-3
1511885059124956,1,0,0,9,0,0,-2,0
1511885059124956,2,0,1,1,1,-1,3,-2
1511885059139112,0,0,-2,0,-4,-1,-2,-1
1511885059139112,0,1,-1,-4,2,-3,1,-1
1511885059147284,0,-3,-4,-8,-3,-1,-2,0
1511885059147284,-2,-1,4,2,-1,-1,-2,-2
1511885059162496,-1,2,7,2,-3,-1,-4,-3
1511885059162496,0,-3,-8,3,8,0,1,-2
1511885059163320,-1,0,2,-3,-3,1,1,-2
1511885059163320,-1,3,4,0,0,0,-2,0
1511885059176454,0,0,1,-1,-1,0,0,0
1511885059176454,-2,0,2,0,-1,1,-3,0
1511885059184379,4,0,-4,4,1,-1,-4,-3
1511885059184379,-3,-1,-2,2,1,0,3,-1
1511885059198414,2,-5,-6,-4,-1,1,-1,3
1511885059198414,-1,1,3,2,-2,-1,0,-2
1511885059207519,0,-1,-3,-3,-2,4,-2,2
1511885059207519,-2,-1,3,0,-7,0,0,0
1511885059221513,-4,-1,4,4,0,1,-1,-2
1511885059221513,-1,0,-5,0,3,2,1,-1
1511885059222512,-1,-1,1,-2,1,-2,0,1
1511885059222512,1,3,-3,1,2,3,-1,-3
1511885059236566,0,-3,-3,0,-4,0,-2,1
1511885059236566,-1,-2,1,-1,-5,-3,6,-2
1511885059244697,1,-1,-1,-5,-1,-2,-1,-1
1511885059244697,-2,-2,-1,-4,2,2,2,-4
1511885059259616,2,0,2,2,1,-4,-1,0
1511885059259616,-3,-2,-3,2,-3,-1,-3,3
1511885059266672,-1,2,-1,-2,0,0,-1,-1
1511885059266672,-2,1,-5,-2,1,-3,0,-1
1511885059281673,0,-1,0,-3,3,0,-3,0
1511885059281673,2,0,1,0,8,0,-1,-3
1511885059282673,-4,-2,2,0,-3,1,-1,-3
1511885059282673,1,-3,-2,-2,3,0,-1,0
1511885059295821,-5,2,-4,2,-3,1,-1,-2
1511885059295821,-2,2,1,-1,-5,1,-4,0
1511885059304919,-2,-1,1,-1,1,2,1,-1
1511885059304919,0,1,-2,2,-4,-3,-1,0
1511885059318944,-1,0,-2,-3,-2,2,-1,-2
1511885059318944,1,-3,1,-2,-2,-1,0,2
1511885059328012,1,3,-1,-3,-4,-1,0,0
1511885059328012,-3,-2,-3,1,-7,-3,-2,-1
1511885059341285,-1,1,-5,-10,4,0,1,-1
1511885059341285,-2,1,3,3,0,0,-3,-1
1511885059350194,-1,1,-3,0,-1,0,1,-1
1511885059350194,-3,-2,0,0,1,1,-3,0
1511885059356338,-1,-2,0,2,1,-2,-1,0
1511885059356338,-3,-1,0,0,1,5,1,-3
1511885059365234,-4,-2,-2,-4,-2,-3,-1,1
1511885059365234,-2,0,3,1,1,3,1,0
1511885059379271,0,0,-3,-5,-1,-1,-1,0
1511885059379271,-1,0,-1,-3,-6,-1,-2,-2
1511885059388322,-2,-4,1,2,1,-1,-1,-2
1511885059388322,2,0,-1,-2,0,0,-1,-1
1511885059401456,-2,2,0,2,-6,-2,-1,0
1511885059401456,0,-1,1,-2,0,-2,-2,1
1511885059410355,0,4,1,1,1,-1,1,-2
1511885059410355,-3,-2,-1,-1,-1,-2,1,1
1511885059416373,1,1,3,1,1,-3,0,2
1511885059416373,1,-2,-4,0,0,-1,-2,-1
1511885059425502,-1,-7,-4,-6,-4,0,-1,-2
1511885059425502,1,3,-6,-2,0,-1,-3,-1
1511885059438754,-3,0,7,3,-1,1,-1,-2
1511885059438754,-2,-1,-4,-3,-6,-2,3,0
1511885059447793,0,1,-2,2,1,2,-3,0
1511885059447793,1,-3,0,-1,-3,-3,-1,0
1511885059460811,-2,0,1,-3,2,0,-2,-3
1511885059460811,2,-2,1,0,0,2,-4,-1
1511885059470836,-1,1,-1,-2,-3,-3,1,0
1511885059470836,-1,1,-2,2,2,0,0,-2
1511885059475935,-1,-2,-3,0,0,0,1,-2
1511885059475935,0,-5,0,-5,-4,0,0,-1
1511885059484963,-2,1,2,1,1,2,-3,-1
1511885059484963,2,-5,1,-3,-2,-5,3,2
1511885059499037,-2,-1,1,-2,-2,0,0,-2
1511885059499037,-1,2,1,0,1,-1,-2,-1
1511885059508023,-2,3,-2,-1,-1,0,1,0
1511885059508023,0,-1,2,-1,-2,-1,-1,-1
1511885059521180,-1,-4,-6,3,2,-1,-3,-3
1511885059521180,-3,-1,4,-2,1,-5,-1,-2
1511885059530116,-1,0,-3,4,1,-3,0,0
1511885059530116,0,1,2,-1,-1,0,-2,-2
1511885059536137,1,2,-1,-1,1,-1,1,3
1511885059536137,0,-1,-5,-1,-2,2,0,0
1511885059545162,0,-3,-1,7,3,-2,-1,-4
1511885059545162,-1,0,1,-4,0,2,-3,-1
1511885059559348,0,-6,-5,-1,-2,0,-1,-1
1511885059559348,1,2,1,-3,-2,-3,-2,0
1511885059567455,-2,-4,3,1,1,1,-1,0
1511885059567455,2,-2,-1,4,4,-3,2,0
1511885059581610,-2,0,-3,-1,-1,2,-2,-1
1511885059581610,1,0,2,0,2,1,-1,-1
1511885059590522,0,-2,-5,-4,-5,-1,-3,-2
1511885059590522,0,-1,4,0,-4,-1,1,-1
1511885059596721,-2,0,2,-1,1,-2,-2,1
1511885059596721,0,-1,0,2,4,2,1,-3
1511885059605557,-1,-3,1,-3,-1,0,-1,-1
1511885059605557,-2,1,-2,1,0,4,0,-2
1511885059618593,2,0,-2,0,-3,2,0,0
1511885059618593,-3,0,-3,-1,0,-4,3,0
1511885059627732,-1,-2,0,1,0,2,-5,-1
1511885059627732,-3,-2,-1,-1,-4,1,9,0
1511885059641104,0,-3,0,3,-1,-5,-1,1
1511885059641104,0,2,0,-3,0,-1,1,0
1511885059649943,1,-1,-2,-2,-1,0,1,0
1511885059649943,-3,0,1,-2,0,0,-4,-1
1511885059655961,-1,1,-8,2,5,0,0,-1
1511885059655961,-1,-1,-2,-1,-1,0,1,-1
1511885059664979,-1,-1,4,-3,-1,-3,-1,0
1511885059664979,-1,0,0,2,2,0,-3,-2
1511885059679238,0,-4,-3,1,1,2,3,-2
1511885059679238,1,-2,-5,1,-2,0,-3,1
1511885059688075,-1,-1,-4,1,0,0,-4,-2
1511885059688075,0,-3,2,-3,-4,-3,-3,-1
1511885059701480,-1,1,-5,-2,-2,-2,0,-1
1511885059701480,-3,-2,-2,-3,1,3,-2,-1
1511885059710551,1,2,1,-1,-3,2,1,3
1511885059710551,1,-2,-3,2,0,3,-3,-1
1511885059716755,-1,2,-2,0,1,-3,0,-2
1511885059716755,0,0,2,0,-4,-1,1,-3
1511885059725787,-1,1,2,-2,-2,0,3,-3
1511885059725787,-1,-2,-4,0,0,0,-3,-1
1511885059738811,0,-1,5,-5,-4,-3,-1,2
1511885059738811,-2,-4,-2,-1,-1,-2,0,1
1511885059747973,-1,0,1,2,1,1,-1,-2
1511885059747973,0,0,1,-3,-1,-2,-1,1
1511885059761194,0,-2,3,2,-1,0,-4,-2
1511885059761194,-1,1,1,0,1,0,-4,0
1511885059770071,1,0,-2,-3,-4,-3,3,-1
1511885059770071,-2,2,-6,6,4,3,1,-2
1511885059776048,0,1,1,-1,0,2,0,2
1511885059776048,-2,-2,-3,-1,-1,-2,0,-2
1511885059785071,0,-1,2,0,-1,-2,1,1
1511885059785071,-2,-1,-1,-1,0,1,-4,1
1511885059799112,-2,1,0,-2,-3,1,3,1
1511885059799112,0,-1,0,5,5,-2,0,-2
1511885059808205,1,-4,-7,-1,-3,1,0,1
1511885059808205,-2,-1,1,-3,4,-4,1,1
1511885059821296,-1,1,-5,-3,-3,-4,-1,0
1511885059821296,0,-1,5,-1,-4,-1,-1,2
1511885059830191,1,1,0,-1,2,-2,-3,-1
1511885059830191,0,-4,-6,-1,-6,1,-1,-1
1511885059836210,2,-3,2,-1,-2,2,-2,0
1511885059836210,-1,-2,-6,-2,-2,-2,-1,-1
1511885059845232,-2,2,2,2,4,-3,-1,-2
1511885059845232,1,0,0,-4,-3,-2,0,-2
1511885059859329,-1,-1,0,1,6,1,0,-1
1511885059859329,0,2,1,1,0,1,2,-1
1511885059867293,-3,1,-4,6,2,3,-1,0
1511885059867293,2,2,-2,-2,-1,0,0,0
1511885059881519,0,-3,-1,-2,-2,2,2,-2
1511885059881519,-1,-1,2,-1,-6,-1,-2,0
1511885059890352,0,0,0,1,3,-4,-2,0
1511885059890352,-2,-2,2,0,0,1,0,-1
1511885059905391,-2,3,1,-1,-1,0,0,-4
1511885059905391,0,2,1,-2,1,-3,-2,0
1511885059906400,-1,-1,-4,-2,-4,1,-1,1
1511885059906400,1,-1,-6,1,-3,-3,0,-2
1511885059918429,1,-4,2,-2,-2,1,-7,-2
1511885059918429,1,-1,0,-1,-2,0,1,2
1511885059927474,0,5,-1,0,-2,-2,-2,-4
1511885059927474,-2,-1,0,2,3,1,1,1
1511885059941642,-2,0,-4,0,0,-2,-2,0
1511885059941642,0,0,2,-2,-2,1,-3,0
1511885059950662,2,-3,-10,0,-2,-2,1,-1
1511885059950662,-1,0,3,-2,-4,-3,-1,1
1511885059964706,-1,1,-8,-3,-3,0,2,0
1511885059964706,-3,-3,0,0,-1,-1,-1,-2
1511885059966710,-2,1,0,-3,-1,1,0,-1
1511885059966710,-1,-1,1,-2,-1,-1,-2,1
1511885059978790,1,-1,-4,2,4,-3,3,-2
1511885059978790,1,-4,2,1,1,-2,-1,0
1511885059987796,0,1,2,1,-4,1,-1,0
1511885059987796,0,1,0,0,-3,0,2,-1
1511885060001798,0,-3,0,-4,-1,2,-3,-1
1511885060001798,1,2,-3,2,2,-5,0,-1
1511885060010824,-2,1,4,-2,-1,2,2,0
1511885060010824,-2,-2,1,2,1,0,-1,-2
1511885060024859,-2,-2,4,-4,-6,-1,-1,-2
1511885060024859,1,0,-5,-1,-1,3,4,0
1511885060026871,0,-3,4,0,-2,-1,-1,1
1511885060026871,0,1,-2,0,1,2,-1,-4
1511885060038942,-1,0,0,1,1,2,-2,1
1511885060038942,-2,1,-1,3,0,-2,-2,1
1511885060048027,-1,-1,-2,-5,0,-1,-2,-2
1511885060048027,-4,0,-1,-2,1,1,1,0
1511885060061360,-2,-2,-3,1,1,-2,0,1
1511885060061360,-1,0,3,1,4,5,-2,-1
1511885060070418,0,-2,-1,1,-1,-4,1,-2
1511885060070418,-2,-4,-1,-5,-2,-1,2,-2
1511885060085506,0,0,0,-3,-2,-3,-1,0
1511885060085506,-1,-1,-1,-2,-4,-3,-4,1
1511885060086464,-1,-2,-5,1,-1,1,-1,-1
1511885060086464,1,-3,-2,-1,5,-1,-2,-1
1511885060098496,-3,1,-5,2,-5,-2,1,-1
1511885060098496,-3,-2,-7,-7,0,1,-1,-3
1511885060107641,-2,-3,5,-4,0,0,2,0
1511885060107641,0,-2,0,-2,-7,-1,-2,0
1511885060121682,-4,-1,0,3,5,1,0,-3
1511885060121682,-1,-1,-3,2,-1,2,2,0
1511885060130704,-2,-1,0,0,1,2,-5,0
1511885060130704,-2,0,-3,0,-1,1,-1,1
1511885060144842,1,0,0,-2,-3,-1,1,-2
1511885060144842,1,-1,-1,-1,-1,-1,0,-4
1511885060146746,0,1,-2,-2,-1,-1,-1,1
1511885060146746,0,2,1,-2,-6,-5,-4,2
1511885060158777,0,-1,-2,6,4,0,-3,-2
1511885060158777,-2,0,-1,-3,-6,-3,-1,1
1511885060168068,-2,1,-4,-3,-4,-1,1,-2
1511885060168068,0,1,-2,4,9,3,1,-1
1511885060181242,2,-3,0,-2,-1,-2,-2,-1
1511885060181242,0,0,2,0,0,-2,-1,-2
1511885060190266,0,-3,1,-2,0,-2,-2,-2
1511885060190266,1,-2,-3,0,4,0,0,-2
1511885060205417,-4,2,-1,2,0,3,6,-1
1511885060205417,-1,2,1,4,2,-1,-1,0
1511885060206412,1,0,2,-5,-7,-1,-1,-2
1511885060206412,2,-4,-5,7,4,-1,1,0
1511885060218465,0,2,4,-3,-6,-1,-1,2
1511885060218465,1,-1,5,0,-1,1,-1,0
1511885060227441,-2,-2,5,-1,0,1,-1,0
1511885060227441,0,-3,-6,-1,-2,-3,-1,-1
1511885060241491,0,2,2,0,0,-3,-3,1
1511885060241491,-1,-2,-8,-5,0,0,1,-1
1511885060250425,0,-2,5,5,3,3,0,1
1511885060250425,-3,2,3,-2,-2,0,1,-2
1511885060265465,0,-4,-1,-2,1,2,-3,1
1511885060265465,3,0,0,3,0,-1,0,0
1511885060266467,-2,-3,-6,1,2,3,-1,-3
1511885060266467,-3,2,5,-1,-5,-4,0,-3
1511885060278499,0,1,-4,-3,-1,1,-4,-2
1511885060278499,-2,-3,1,1,-1,0,0,0
1511885060287524,3,-1,-1,1,0,-4,2,0
1511885060287524,0,0,-1,-3,-1,1,-1,-2
1511885060301561,-2,0,6,1,0,-2,-1,-4
1511885060301561,-4,1,-1,-5,-6,2,0,1
1511885060310585,-2,-1,1,1,0,0,-4,-2
1511885060310585,-1,-3,4,-3,-1,-4,-1,2
1511885060324623,1,-3,-1,-4,-2,0,1,-1
1511885060324623,1,-2,-5,0,2,-1,0,-2
1511885060326629,-2,3,-1,1,4,0,0,0
1511885060326629,2,-1,-1,-1,-2,-2,-2,-1
1511885060338661,-2,-2,-1,1,-4,-4,0,0
1511885060338661,-2,-1,1,-2,-2,-5,0,0
1511885060347684,-2,0,-1,-1,-1,2,-1,1
1511885060347684,1,-1,-3,-1,-2,3,-1,-1
1511885060361789,-2,-1,-1,4,7,2,1,-1
1511885060361789,0,-2,-4,-2,0,1,-1,1
1511885060369743,-2,-2,-2,-1,-2,-1,-1,0
1511885060369743,0,0,2,1,-4,1,0,-1
1511885060384814,0,-1,-5,-3,-5,-2,-1,1
1511885060384814,-3,-1,2,1,4,0,1,-3
1511885060386788,4,0,0,1,-1,-3,-1,0
1511885060386788,-1,1,0,-1,-2,-2,-5,1
1511885060398838,1,-4,-5,-6,3,-1,1,1
1511885060398838,-2,-3,1,4,0,-1,-1,-2
1511885060407844,-2,1,-6,-3,-1,2,1,-1
1511885060407844,-1,-1,-4,-2,-2,0,0,0
1511885060420880,-1,0,5,0,1,0,0,-1
1511885060420880,0,-1,3,-3,-1,-1,-2,0
1511885060429902,-1,1,-5,3,7,2,1,1
1511885060429902,-3,1,2,1,-3,0,0,0
1511885060452991,-1,1,-3,2,-5,3,-2,-1
1511885060452991,-1,1,-2,-5,-3,-2,0,0
1511885060453966,-1,-1,3,-3,0,1,-1,-3
1511885060453966,-1,-1,-3,1,1,-2,0,-1
1511885060459003,0,1,2,0,-6,-1,-2,-2
1511885060459003,-1,-1,-1,3,0,1,0,-2
1511885060468025,-1,-1,2,-5,-3,-3,-2,0
1511885060468025,2,1,1,0,1,3,-1,0
1511885060481038,1,-2,-1,-1,-2,4,0,1
1511885060481038,2,1,-5,-1,1,-2,-2,0
1511885060490074,-1,-4,1,1,-1,-1,0,1
1511885060490074,-3,-2,-1,-6,-1,0,1,-2
1511885060505129,-3,-2,0,5,4,0,0,-5
1511885060505129,1,1,-1,-1,-4,0,-1,2
1511885060507115,-1,-3,-1,-3,-5,-2,-1,-2
1511885060507115,0,2,6,0,-1,5,0,0
1511885060519139,-2,-2,-6,-3,-1,-2,-1,0
1511885060519139,1,-3,-1,-1,1,2,-2,-2
1511885060528164,-1,2,0,-4,-2,-2,-1,-2
1511885060528164,0,1,0,1,-3,-2,-1,0
1511885060541225,2,0,-1,1,-2,1,-1,-1
1511885060541225,-3,0,1,1,2,-2,2,-1
1511885060550223,-2,1,-1,0,-1,-4,-1,-2
1511885060550223,-3,-5,-5,2,4,0,0,-1
1511885060565289,-2,-1,-1,-4,0,0,-1,1
1511885060565289,0,3,4,-2,-2,0,-3,0
1511885060566294,0,-2,-4,-1,-6,-1,-2,0
1511885060566294,-2,-1,-2,-4,3,0,-1,-2
1511885060578324,1,0,-2,3,2,-3,1,-1
1511885060578324,-1,-2,0,1,1,-2,-2,-2
1511885060587342,0,2,-1,0,-2,0,1,0
1511885060587342,0,-1,-5,0,-2,-2,1,0
1511885060601382,-1,-3,0,-3,-1,0,-1,-1
1511885060601382,-3,1,0,0,-4,1,-1,0
1511885060610382,-1,2,0,-6,-3,-5,-2,-3
1511885060610382,0,1,2,2,1,-2,1,-1
1511885060625423,2,0,-10,-1,-1,-1,0,-1
1511885060625423,-2,-4,-1,-1,0,1,-3,1
1511885060626424,0,-1,0,2,-4,3,-2,0
1511885060626424,-3,-3,2,-2,-1,-4,0,0
1511885060638457,-4,0,5,-2,-4,1,0,1
1511885060638457,0,0,-2,-2,2,-1,-1,-2
1511885060647492,1,-2,-3,4,-2,0,0,1
1511885060647492,-2,-1,1,-1,0,2,-3,-2
1511885060661637,4,1,1,0,0,1,1,-2
1511885060661637,-1,0,-4,-2,-4,-1,0,-3
1511885060670546,0,-1,2,6,12,4,-1,-1
1511885060670546,-3,0,-3,0,-5,0,-1,-1
1511885060692601,-1,-2,2,-3,-3,-1,-2,-2
1511885060692601,-1,-2,0,2,1,2,-1,-1
1511885060694606,0,1,1,-2,1,-1,2,-3
1511885060694606,1,1,-3,0,0,-1,0,0
1511885060698620,-2,-3,0,-1,4,-1,-3,-3
1511885060698620,-1,-4,3,0,-3,4,1,1
1511885060707641,-1,-1,-4,0,0,0,-3,1
1511885060707641,0,1,0,-2,-1,2,-2,1
1511885060729700,-3,0,3,1,-2,-2,-3,-1
1511885060729700,2,-3,-10,3,8,-4,-2,0
1511885060731705,-2,-1,5,-3,-2,-4,-2,-1
1511885060731705,0,-1,0,-1,1,0,2,-1
1511885060744769,0,-3,0,0,0,-3,-2,1
1511885060744769,-2,2,1,1,-3,1,2,0
1511885060750757,-1,-2,1,-5,-2,1,-1,0
1511885060750757,0,-2,0,6,4,0,-3,-3
1511885060758777,0,0,0,-1,-2,0,0,1
1511885060758777,-1,-3,0,0,-1,-1,-1,-1
1511885060767802,2,-4,-2,-1,-1,1,-1,2
1511885060767802,0,2,-1,-4,-4,-4,-4,2
1511885060780836,1,1,-7,-1,-2,-1,1,0
1511885060780836,-1,0,3,-3,-1,0,-1,-1
1511885060789861,0,-3,-7,2,2,-1,3,-2
1511885060789861,2,-2,4,0,2,-1,0,0
1511885060804899,1,-2,0,-1,-1,-1,2,0
1511885060804899,-1,0,-3,0,-5,1,0,-1
1511885060810942,-1,1,0,-1,1,-1,-2,-1
1511885060810942,0,-1,-4,-4,-5,-1,0,-2
1511885060818964,-1,2,2,2,3,-2,-3,-2
1511885060818964,1,0,-3,-4,-4,-2,-3,0
1511885060827960,-4,3,1,2,-1,0,2,-1
1511885060827960,-2,-2,-6,2,3,2,1,-1
1511885060841021,1,-1,5,-7,-4,2,-2,1
1511885060841021,-3,-1,-1,-1,1,-1,0,-1
1511885060850019,-1,-3,5,-1,-3,-2,-4,1
1511885060850019,-1,0,2,0,0,-2,-1,1
1511885060864057,-1,-1,0,1,0,2,-1,-2
1511885060864057,0,2,6,-2,-1,-3,-2,1
1511885060871106,-1,3,-3,3,1,-1,-4,-2
1511885060871106,1,-4,1,-3,1,1,4,-1
1511885060887142,-1,-2,-5,-1,-2,0,0,1
1511885060887142,-2,-2,-3,1,0,-2,-1,-2
1511885060889124,-1,-1,-1,1,0,1,0,-3
1511885060889124,-1,0,0,0,-1,-1,-2,-1
1511885060901187,-1,0,-1,-3,-3,0,-2,-3
1511885060901187,2,-2,1,2,-1,1,1,-1
1511885060910179,0,-2,-3,-3,-6,-4,1,1
1511885060910179,1,-3,-5,1,-2,-2,0,0
1511885060924243,-3,-2,-2,-2,0,2,0,-1
1511885060924243,-1,-1,3,4,8,-3,1,-2
1511885060931260,-2,-2,-3,-1,-2,-1,1,1
1511885060931260,-2,0,-4,0,-4,3,-1,1
1511885060947278,0,4,-2,-4,-3,-2,0,-1
1511885060947278,-2,0,-2,-1,-3,-1,-1,-1
1511885060949284,0,-3,1,1,1,2,1,-1
1511885060949284,1,-2,5,-5,-5,-5,-2,-1
1511885060961318,-2,0,-6,7,5,0,1,2
1511885060961318,0,0,-1,-4,-2,0,-2,-1
1511885060970340,3,-2,2,-1,0,1,2,-2
1511885060970340,-1,0,4,-3,0,-2,-1,-2
1511885060984377,-2,0,4,2,-3,-2,-2,-3
