timestamp,emg1,emg2,emg3,emg4,emg5,emg6,emg7,emg8
1512354161362839,1,2,1,1,3,0,0,2
1512354161362839,-1,-1,-1,-1,-2,-2,0,-2
1512354161363839,1,-1,1,2,8,0,0,-1
1512354161363839,1,-1,-1,-3,-4,-1,1,4
1512354161367839,0,-3,-2,0,-3,-1,0,-2
1512354161367839,2,2,-1,0,0,-2,0,0
1512354161368839,-1,-1,-1,-1,1,1,-4,-2
1512354161368839,-3,0,1,1,7,-2,-2,-1
1512354161373839,-1,1,-1,-4,-5,-3,1,2
1512354161373839,2,-1,0,-1,2,-2,-1,0
1512354161382839,0,0,-1,0,-7,-1,1,1
1512354161382839,1,-1,-1,-1,-1,2,-3,-6
1512354161396839,-1,-1,-1,1,-5,1,2,4
1512354161396839,-3,-2,-2,1,3,-1,-4,-2
1512354161403839,0,2,0,-2,-8,0,0,0
1512354161403839,-2,-1,-1,-3,-2,-2,-2,0
1512354161418839,-1,-1,1,0,4,0,-4,-4
1512354161418839,2,-1,0,-1,-2,1,2,1
1512354161434839,-2,-1,-1,0,1,1,-1,2
1512354161434839,0,1,-1,1,0,-2,-1,2
1512354161436839,-1,0,-1,-2,-5,-1,-1,-1
1512354161436839,-1,-1,0,-2,1,1,-1,0
1512354161481839,0,0,0,-1,4,1,-1,0
1512354161481839,-1,0,-1,1,2,1,1,-1
1512354161482839,-1,-1,-1,-2,-3,1,0,-3
1512354161482839,1,-1,1,0,0,0,2,8
1512354161483839,1,-2,-1,-2,-1,-2,-3,-2
1512354161483839,0,-3,-3,-2,-4,-2,-1,-2
1512354161485839,0,1,0,5,5,1,-1,-2
1512354161485839,-2,0,0,0,-3,-1,-2,-3
1512354161494839,-2,-1,0,2,0,-2,1,-1
1512354161494839,-1,2,0,-4,-5,-1,1,0
1512354161500839,-2,-2,-2,0,9,1,-2,-1
1512354161500839,0,0,-3,-10,-15,-3,-3,-1
1512354161509839,0,0,0,2,0,-1,-1,-1
1512354161509839,0,-2,0,1,3,0,-4,-4
1512354161523839,3,-1,-1,1,-2,-3,-2,-1
1512354161523839,-2,-3,-2,1,9,1,0,-3
1512354161532839,-1,0,-1,-1,-2,-1,-2,1
1512354161532839,-1,-1,-1,-2,-2,-2,-1,1
1512354161554839,-2,0,-1,-4,-4,-3,0,1
1512354161554839,0,0,3,7,7,2,-2,1
1512354161556839,0,0,-3,-3,-5,0,-1,-2
1512354161556839,1,0,2,6,12,1,1,2
1512354161568839,-2,-1,-3,-7,-13,-2,1,-1
1512354161568839,-1,0,-3,0,0,-3,2,0
1512354161575839,0,1,2,3,5,3,3,3
1512354161575839,-2,-1,-2,-4,-4,-3,1,1
1512354161592839,-2,0,2,3,2,-2,-3,-2
1512354161592839,2,1,-1,-3,6,2,0,-2
1512354161593839,0,-1,-4,0,1,-1,-2,-1
1512354161593839,0,0,-1,-1,-8,-1,-1,-2
1512354161614839,-1,-3,0,-1,1,-1,-1,-1
1512354161614839,-1,0,-4,-11,-15,-3,-2,-1
1512354161616839,-2,0,-3,3,8,-2,-2,-2
1512354161616839,0,0,1,-5,-18,0,0,0
1512354161628839,-2,0,-2,-20,-17,-5,0,0
1512354161628839,-4,-8,-5,17,7,2,-1,-3
1512354161635839,0,0,2,11,6,0,0,0
1512354161635839,-2,-1,1,3,2,-5,-2,-2
1512354161652839,0,0,-10,-19,-8,1,1,1
1512354161652839,0,1,-2,4,-4,-2,-1,-2
1512354161653839,-3,-7,-7,-9,5,0,0,0
1512354161653839,1,1,8,-6,-19,-4,-1,0
1512354161674839,0,-5,-13,8,26,4,1,1
1512354161674839,-1,2,26,13,-5,1,-4,-2
1512354161676839,-3,-3,-8,-1,1,-7,-4,-3
1512354161676839,2,3,0,8,12,2,-1,0
1512354161688839,-2,2,14,12,-4,-1,2,2
1512354161688839,-3,-4,-24,-23,-24,-4,0,-2
1512354161697839,3,6,9,-3,58,8,3,3
1512354161697839,-2,-3,-7,-29,-52,-7,-5,-3
1512354161712839,1,4,8,23,23,2,-1,0
1512354161712839,6,17,30,15,7,3,1,3
1512354161713839,-3,2,-15,-14,-23,-7,-1,-2
1512354161713839,-2,-15,-24,-13,8,0,0,-3
1512354161734839,-1,-4,-3,1,1,-3,-1,-5
1512354161734839,-1,-3,7,24,23,4,1,3
1512354161736839,8,21,37,1,-38,-3,2,2
1512354161736839,-1,5,6,19,30,9,1,-3
1512354161748839,-5,-20,-71,-57,-49,-10,-1,3
1512354161748839,1,2,13,-20,27,-4,-3,-8
1512354161757839,-1,-2,12,28,-3,6,4,2
1512354161757839,-4,0,2,14,20,-3,-1,-4
1512354161772839,1,4,24,15,-3,1,-3,-2
1512354161772839,3,-4,-13,-15,-12,-3,1,3
1512354161773839,0,-6,-12,-8,-25,-1,-2,-1
1512354161773839,-3,0,10,9,25,3,-1,-1
1512354161794839,4,3,7,21,11,3,0,1
1512354161794839,-3,-6,-12,-11,-18,-4,-2,-2
1512354161796839,-4,-4,16,27,3,-5,-2,-1
1512354161796839,-1,-2,-27,-33,-11,0,4,-2
1512354161808839,0,1,1,-1,3,-2,1,7
1512354161808839,-2,-1,-1,-14,0,-1,0,-1
1512354161824839,1,-5,-2,9,7,1,-2,-4
1512354161824839,3,5,13,11,-7,0,0,-2
1512354161832839,1,8,35,29,13,5,0,0
1512354161832839,-3,-19,-78,-63,-14,-4,3,5
1512354161833839,-2,-4,-3,-2,-3,1,-2,0
1512354161833839,6,4,4,2,5,-1,0,4
1512354161854839,-2,1,18,14,-4,-1,-5,-9
1512354161854839,1,4,18,24,4,1,1,0
1512354161856839,-4,-2,-1,-7,-3,-4,-6,-8
1512354161856839,0,-7,-29,-22,-10,-5,-4,4
1512354161868839,1,2,21,13,4,7,6,8
1512354161868839,-3,-2,5,7,5,-3,-6,-7
1512354161877839,5,0,-24,-22,-6,-4,3,3
1512354161877839,-2,-4,9,14,0,0,2,3
1512354161892839,-2,-3,-9,-19,-12,-11,-5,-11
1512354161892839,4,1,4,5,4,19,5,9
1512354161893839,-2,1,13,1,-11,7,8,4
1512354161893839,-7,-1,7,3,-13,-41,-20,-12
1512354161914839,5,2,-14,-17,31,52,19,8
1512354161914839,-3,-2,3,4,-10,-20,-8,-7
1512354161916839,3,0,-1,-8,6,22,12,8
1512354161916839,-2,2,3,9,-4,-5,0,-1
1512354161928839,-2,0,-4,-11,-12,-8,-7,-5
1512354161928839,-2,-1,9,9,-5,-10,-6,-5
1512354161937839,-4,-3,-13,-13,-13,-20,-5,0
1512354161937839,2,0,8,6,17,66,8,-1
1512354161952839,0,-1,1,7,5,15,12,2
1512354161952839,0,3,-4,-3,0,34,-4,0
1512354161953839,-2,-5,-7,-16,-28,-33,-14,-10
1512354161953839,1,2,9,13,-3,15,0,6
1512354161974839,3,7,1,5,8,-45,-12,-2
1512354161974839,0,6,23,16,27,82,18,4
1512354161976839,-6,-32,-43,-2,7,2,4,3
1512354161976839,3,3,-2,-1,6,17,2,-6
1512354161988839,-4,-3,0,-6,7,-13,-7,-1
1512354161988839,1,23,40,-21,-34,-51,-12,-5
1512354161997839,-10,-25,-39,27,43,7,-2,-2
1512354161997839,0,-1,-4,-36,-82,-21,-4,-4
1512354162011839,4,4,1,6,45,0,7,8
1512354162011839,4,3,6,-6,-38,-11,0,1
1512354162018839,1,20,32,4,6,0,-6,-11
1512354162018839,-3,-5,-7,-8,6,-19,-2,5
1512354162034839,1,-12,-15,-1,-52,1,-1,12
1512354162034839,-2,-4,-12,7,10,-14,6,4
1512354162036839,-1,3,3,13,32,9,0,-2
1512354162036839,1,-3,2,4,-3,-13,1,-1
1512354162048839,-3,3,8,-12,-16,-1,-3,5
1512354162048839,-4,-12,-18,12,24,-9,1,-3
1512354162057839,5,6,4,-12,-29,6,1,1
1512354162057839,0,1,7,23,54,-1,-1,-3
1512354162072839,-3,-2,-4,4,-23,-7,-3,-10
1512354162072839,2,-5,-14,-13,-18,-1,1,2
1512354162073839,1,2,10,-9,-4,-4,-7,-5
1512354162073839,0,2,4,3,-13,-4,5,7
1512354162094839,-1,-4,-10,-14,-8,-3,-4,-5
1512354162094839,-3,-4,-6,13,7,-17,-5,-3
1512354162096839,2,11,28,-4,-3,6,2,9
1512354162096839,-1,6,-11,-1,10,1,-2,1
1512354162108839,-10,-37,-43,-7,1,-7,0,-5
1512354162108839,0,7,10,-7,5,-5,-4,-5
1512354162117839,2,-1,7,32,25,2,2,0
1512354162117839,4,18,33,-3,-15,-13,1,1
1512354162132839,-3,4,6,9,13,10,-3,-9
1512354162132839,-1,-18,-35,7,81,3,4,5
1512354162133839,2,9,16,-19,-48,-9,-1,2
1512354162133839,-3,-10,-7,4,18,3,-4,-2
1512354162154839,5,21,29,11,-12,2,-1,-1
1512354162154839,4,6,4,-3,-21,-1,-2,1
1512354162156839,-4,-3,-9,-6,-9,-6,0,-9
1512354162156839,3,-2,1,-2,46,11,6,15
1512354162168839,3,6,8,-3,-16,-11,-5,-5
1512354162168839,-2,6,15,-7,-17,-2,-3,0
1512354162177839,-2,-9,-25,6,-34,4,-4,-5
1512354162177839,-2,-5,-8,-9,5,8,-1,-4
1512354162192839,1,3,3,-8,-10,-7,-3,0
1512354162192839,1,8,5,11,3,0,1,-2
1512354162193839,-6,-25,-34,-11,3,-4,1,1
1512354162193839,-2,-3,-2,9,18,9,1,-2
1512354162214839,0,-1,-3,10,27,0,0,3
1512354162214839,1,8,16,-3,6,6,2,-2
1512354162216839,4,10,18,3,16,-4,1,4
1512354162216839,-4,-7,-12,4,14,-10,-5,-6
1512354162228839,4,4,2,8,29,9,3,5
1512354162228839,-6,-14,-21,-13,-45,-7,-2,-2
1512354162237839,1,5,6,-4,-1,-1,-3,-1
1512354162237839,-3,-1,2,5,8,-6,-4,-3
1512354162251839,-5,2,12,-1,-5,3,0,1
1512354162251839,-4,-6,-5,5,-6,-5,1,3
1512354162258839,1,-1,-5,-9,9,9,-1,-1
1512354162258839,10,11,15,6,-14,-2,1,5
1512354162274839,-2,5,-4,-24,-24,-9,-4,-9
1512354162274839,-9,-27,-20,13,55,21,4,1
1512354162276839,5,1,7,5,2,-5,-3,5
1512354162276839,4,-1,-15,-4,0,-4,4,3
1512354162297839,-3,-3,1,-1,4,8,-2,-4
1512354162297839,1,7,5,3,-5,-17,-5,-7
1512354162298839,2,7,14,3,10,6,1,-2
1512354162298839,-2,6,35,0,-49,-6,0,3
1512354162311839,-7,-41,-97,-18,39,-2,-3,-2
1512354162311839,2,7,16,4,-8,-6,-4,-1
1512354162318839,-7,-3,-5,4,19,-3,0,-1
1512354162318839,5,4,8,-14,-33,-1,-3,-1
1512354162334839,1,13,29,11,-8,-5,1,0
1512354162334839,0,-5,-7,9,-7,1,-1,0
1512354162336839,1,-1,-3,-7,5,-11,2,2
1512354162336839,-8,-6,-12,3,5,8,-1,-7
1512354162357839,2,1,11,4,-10,-1,0,1
1512354162357839,1,-1,-9,-2,0,-7,-4,-3
1512354162358839,2,6,10,-6,-15,9,4,-3
1512354162358839,-5,-7,-14,-11,-3,-10,0,-4
1512354162371839,0,0,4,3,-3,9,11,12
1512354162371839,-4,-1,6,-2,-16,-2,-20,-4
1512354162379839,1,2,-4,-7,-5,-11,7,-5
1512354162379839,-7,-8,-16,4,0,3,5,0
1512354162394839,-1,2,15,-13,-4,-4,-11,-11
1512354162394839,12,4,0,2,0,-4,6,8
1512354162396839,-4,0,2,-5,11,3,-2,0
1512354162396839,6,-1,-8,1,-2,-4,-11,-4
1512354162417839,2,5,8,5,-6,-2,6,1
1512354162417839,-6,-1,-5,-4,-20,2,1,-4
1512354162418839,1,-1,-8,2,37,1,-4,-3
1512354162418839,-16,-8,-4,-5,-10,7,2,-5
1512354162431839,6,5,5,-1,-18,-1,-2,1
1512354162431839,2,0,-3,-10,2,0,4,1
1512354162438839,0,0,0,6,-21,-6,-8,-2
1512354162438839,3,3,2,-10,0,-7,0,-5
1512354162453839,-1,-2,-1,4,-2,2,-3,-1
1512354162453839,0,0,-2,-5,-3,2,2,-2
1512354162462839,-3,0,2,-2,-11,-1,1,3
1512354162462839,-6,-6,-4,5,7,1,-5,-8
1512354162477839,9,1,-4,-2,-10,-17,-11,-2
1512354162477839,0,0,2,-6,2,-1,7,-3
1512354162478839,-4,-3,1,6,12,7,-2,5
1512354162478839,-5,-5,-6,-5,-39,-7,-2,-6
1512354162499839,1,2,4,0,11,-2,-2,4
1512354162499839,-4,-1,2,6,0,4,2,-5
1512354162501839,1,0,-3,-6,-6,3,3,3
1512354162501839,-4,-6,-8,4,3,-6,-6,-4
1512354162513839,4,5,7,-7,-8,-3,2,3
1512354162513839,-3,5,7,3,11,8,-7,-19
1512354162522839,1,-2,-6,0,-10,-6,0,7
1512354162522839,4,2,1,3,11,4,0,6
1512354162537839,-20,-14,-9,-4,-6,3,-4,-22
1512354162537839,3,2,-3,-6,-14,-10,1,9
1512354162538839,1,4,2,7,24,5,-1,-4
1512354162538839,3,2,3,-7,-8,-2,-1,-1
1512354162559839,-6,0,1,-1,-43,-9,-6,-4
1512354162559839,4,4,17,-2,60,15,5,13
1512354162561839,-7,-14,-30,-5,-14,-7,-3,-1
1512354162561839,2,-1,-1,1,5,3,8,4
1512354162573839,3,3,5,7,2,7,4,1
1512354162573839,-8,-4,2,-5,-30,-10,-1,-2
1512354162582839,-4,-4,-2,-7,-6,8,-2,-5
1512354162582839,2,-3,-7,-5,-4,-2,-1,-3
1512354162596839,10,7,4,4,1,4,2,6
1512354162596839,1,0,-1,0,4,0,1,1
1512354162603839,-4,4,10,-21,-59,-7,-2,-3
1512354162603839,4,6,5,23,17,-6,-1,4
1512354162619839,-10,-17,0,19,39,13,4,-5
1512354162619839,-5,-7,-28,-23,-19,-17,-3,-1
1512354162621839,-14,-7,-9,-29,-29,-16,-5,-14
1512354162621839,8,10,7,-1,10,-3,3,5
1512354162633839,1,4,7,15,-3,0,-1,0
1512354162633839,0,-3,3,14,-4,3,0,-1
1512354162642839,2,0,-4,-10,9,-7,4,0
1512354162642839,-6,-6,-3,-12,-14,-7,-5,-3
1512354162656839,0,-2,-2,11,33,14,5,9
1512354162656839,-5,-8,-5,4,-9,19,-17,-13
1512354162663839,12,9,19,42,14,-4,7,10
1512354162663839,3,2,-36,-95,-13,33,10,-3
1512354162679839,9,2,-2,9,2,-33,3,27
1512354162679839,-1,-1,5,11,-7,-18,-1,6
1512354162681839,-1,2,25,47,15,-19,-5,-10
1512354162681839,-4,-6,5,41,9,-4,-17,-4
1512354162693839,-1,-1,-10,-22,5,-16,15,-3
1512354162693839,-9,-3,-2,3,2,30,-4,-18
1512354162702839,5,-1,-3,-11,6,28,15,16
1512354162702839,-6,-2,2,2,13,-46,-19,-11
1512354162716839,-3,7,10,-8,-25,10,2,-2
1512354162716839,1,-11,-22,-16,10,6,1,-5
1512354162723839,-1,-2,-11,16,3,-6,-11,1
1512354162723839,-3,-9,-3,11,14,2,12,9
1512354162739839,-3,1,1,3,-27,9,-7,-9
1512354162739839,8,10,6,-31,1,-40,-6,-2
1512354162741839,-2,3,6,-13,-2,33,10,-3
1512354162741839,4,8,-2,-10,-7,-7,-1,-15
1512354162762839,0,-4,-13,16,21,3,11,17
1512354162762839,-5,-7,3,3,-21,-7,-2,-1
1512354162763839,-4,-12,-1,-6,19,-11,3,-7
1512354162763839,0,-5,6,50,18,-16,-14,-13
1512354162776839,7,6,-1,-42,-9,45,-4,5
1512354162776839,5,13,14,11,13,44,17,9
1512354162783839,-2,3,0,15,32,10,2,5
1512354162783839,-4,-2,-2,-4,-1,55,15,-18
1512354162799839,1,0,-3,-6,0,-23,-11,4
1512354162799839,3,-6,3,4,7,-10,6,24
1512354162801839,-1,3,5,1,-21,-2,-6,-4
1512354162801839,-2,4,7,-3,4,0,6,1
1512354162822839,-8,-4,3,0,-33,-36,-11,-24
1512354162822839,5,8,-12,14,13,22,8,21
1512354162823839,-1,-13,-12,-7,-16,-10,-10,-21
1512354162823839,4,5,1,2,0,16,14,16
1512354162836839,-7,-12,-8,-2,-9,-22,-14,-10
1512354162836839,-4,-1,14,8,-6,3,8,-5
1512354162843839,1,4,-9,-26,-14,-19,-14,-3
1512354162843839,-2,-1,-4,-18,-11,10,-4,6
1512354162859839,0,6,7,7,16,7,-1,-3
1512354162859839,-3,-2,0,4,-14,-19,-9,-15
1512354162861839,6,5,-1,1,21,2,4,21
1512354162861839,-4,-4,16,10,-10,-8,12,4
1512354162882839,-4,1,0,-1,-12,-9,-23,-35
1512354162882839,-3,-9,-17,15,10,-6,10,5
1512354162883839,-3,-2,4,10,6,-7,-7,-6
1512354162883839,5,0,-4,-24,-8,26,0,10
1512354162896839,5,1,-10,-22,9,12,19,33
1512354162896839,-6,0,13,25,-11,-16,-8,-25
1512354162903839,-2,-3,-17,-38,-15,-13,7,-5
1512354162903839,-8,-3,11,28,2,-4,-8,-35
1512354162919839,4,3,-4,4,-7,-16,-12,-5
1512354162919839,1,-3,1,15,12,15,6,13
1512354162921839,-6,-9,-12,-5,5,-6,-1,-4
1512354162921839,0,1,0,-5,-11,-30,-5,17
1512354162942839,-4,-3,-17,-35,1,34,18,-11
1512354162942839,-7,-1,22,26,-9,-21,-20,4
1512354162943839,4,5,-22,-50,12,32,5,4
1512354162943839,0,0,6,5,2,-16,-19,1
1512354162956839,2,-2,18,47,3,-8,-5,-9
1512354162956839,2,-1,-1,-4,-6,-10,-16,24
1512354162963839,0,-2,3,-5,-6,23,11,-13
1512354162963839,5,3,5,-12,-38,-32,-9,6
1512354162979839,-3,-7,-14,19,23,23,5,3
1512354162979839,1,2,-14,-30,14,14,0,-11
1512354162981839,1,-2,4,11,-21,-16,2,20
1512354162981839,-2,2,4,6,5,11,8,-9
1512354163002839,-5,-9,22,49,24,-9,0,-1
1512354163002839,8,8,-9,-16,-22,3,3,7
1512354163003839,-6,2,13,-20,-3,-13,-14,-30
1512354163003839,-9,-8,-32,-42,-9,-25,-18,4
1512354163015839,-3,0,5,10,7,23,12,-7
1512354163015839,-14,-16,36,76,14,8,0,-12
1512354163024839,5,5,-30,-53,-13,-7,-5,9
1512354163024839,-4,-4,1,32,4,4,-1,-6
1512354163039839,0,-2,-14,-32,4,-6,6,19
1512354163039839,2,4,-1,2,-26,-34,-8,1
1512354163041839,-1,-6,40,115,19,30,2,-21
1512354163041839,-6,-10,-42,-73,2,7,-3,3
1512354163062839,7,16,-16,-88,-22,29,6,8
1512354163062839,2,1,-19,-50,14,10,11,-10
1512354163063839,-2,-2,17,33,1,9,-3,15
1512354163063839,1,-4,3,30,0,-20,-4,5
1512354163075839,1,3,-13,-40,3,28,4,-23
1512354163075839,-2,-3,-13,-37,0,22,2,5
1512354163084839,0,-1,-3,9,-18,-47,-6,0
1512354163084839,-2,-1,40,86,26,30,-1,9
1512354163099839,-1,-6,8,16,-15,-16,-28,-11
1512354163099839,2,5,-44,-98,-3,15,22,-1
1512354163101839,0,1,15,27,-32,-19,-2,20
1512354163101839,-4,-8,7,28,23,2,-11,-25
1512354163122839,-2,2,-9,-32,14,-29,-11,1
1512354163122839,-2,-4,26,57,-6,8,-3,-5
1512354163123839,10,9,-12,-20,9,19,19,22
1512354163123839,0,3,-31,-93,-41,-50,-8,0
1512354163135839,-3,-6,1,15,17,10,12,4
1512354163135839,1,-2,13,32,-10,-38,-2,3
1512354163144839,-3,-1,8,4,-3,-1,-16,-9
1512354163144839,9,5,2,15,9,11,12,9
1512354163159839,-6,-10,-35,-55,-38,-44,7,11
1512354163159839,-5,-1,19,31,62,32,0,-1
1512354163161839,-4,0,5,-7,-16,-21,-11,-23
1512354163161839,8,1,8,51,36,21,21,22
1512354163182839,-5,-14,-9,-10,-20,3,-2,4
1512354163182839,1,2,-7,27,-14,11,-1,-1
1512354163183839,5,4,-26,-107,22,-12,10,8
1512354163183839,-6,-1,3,-8,-5,22,-6,-6
1512354163195839,2,9,27,43,0,-8,10,5
1512354163195839,0,-4,-10,13,12,-12,-1,-7
1512354163204839,-8,-15,-3,54,18,-28,-4,-9
1512354163204839,1,3,-5,-39,-33,-14,-5,5
1512354163219839,-5,-4,-6,11,12,-7,-2,-2
1512354163219839,4,7,9,-29,-21,-36,-22,-20
1512354163221839,-3,-2,1,16,5,38,-7,-5
1512354163221839,2,0,-7,3,-3,42,14,7
1512354163242839,-1,-1,22,41,7,-47,-15,-14
1512354163242839,-2,1,-7,-18,-6,16,-2,1
1512354163243839,-3,-1,13,47,5,12,0,-1
1512354163243839,9,11,-30,-95,19,16,-5,-7
1512354163255839,-6,-3,3,21,-18,11,13,14
1512354163255839,9,10,19,8,-22,4,15,12
1512354163264839,-1,-4,-18,30,0,-9,-2,5
1512354163264839,-8,-14,11,19,-12,7,-8,-11
1512354163279839,2,4,7,5,-4,-16,5,7
1512354163279839,0,-8,-17,7,2,-9,-8,-5
1512354163281839,3,14,3,-43,0,14,-4,2
1512354163281839,1,-9,-1,32,7,2,7,0
1512354163302839,-9,-7,-28,-69,-52,2,-11,-8
1512354163302839,0,2,10,10,7,-9,-2,1
1512354163303839,0,0,12,22,20,32,-2,1
1512354163303839,-1,3,10,24,1,-29,-8,-3
1512354163315839,-4,-5,18,80,30,8,-7,-3
1512354163315839,9,10,-34,-111,-5,-3,11,18
1512354163332839,-4,-1,2,4,-9,17,0,5
1512354163332839,-5,-4,0,2,-15,-39,-7,-12
1512354163339839,10,9,16,30,55,66,5,-3
1512354163339839,-2,-1,-5,-9,-21,-35,-12,-10
1512354163341839,1,-1,2,-1,15,22,10,0
1512354163341839,6,3,7,17,3,-17,25,27
1512354163362839,-2,-1,-3,-5,-4,-6,-15,-17
1512354163362839,-3,-3,20,8,4,-27,7,11
1512354163363839,-2,-5,-22,-22,-8,25,-3,-7
1512354163363839,2,4,-9,-17,0,21,1,-2
1512354163375839,2,1,-6,-28,-11,-5,0,3
1512354163375839,-6,-2,3,34,29,15,5,-13
1512354163384839,2,1,9,-17,-18,-28,-2,12
1512354163384839,-4,0,-1,11,8,-17,-6,-7
1512354163399839,0,-1,1,2,-2,-13,-3,1
1512354163399839,-1,-7,0,12,8,6,-11,-9
1512354163401839,0,3,-3,-3,-6,-40,5,5
1512354163401839,4,6,11,14,-1,-12,6,-3
1512354163422839,-2,-2,-2,-32,1,38,5,3
1512354163422839,-6,-9,-11,18,-13,8,-1,-6
1512354163423839,-6,-5,8,20,-10,7,4,-10
1512354163423839,3,4,-29,-65,-18,3,4,21
1512354163435839,-1,5,20,58,-2,-18,0,-11
1512354163435839,-4,-5,3,-29,-28,6,0,1
1512354163444839,-6,-9,-7,8,3,-7,-7,-12
1512354163444839,1,3,-1,-44,6,21,14,1
1512354163459839,6,6,3,11,6,-7,4,8
1512354163459839,-4,2,-11,1,-2,-11,-8,-10
1512354163461839,1,-1,11,11,-6,8,-1,0
1512354163461839,-4,-6,9,39,6,-15,-7,-4
1512354163482839,1,-4,-22,-56,-20,-32,2,5
1512354163482839,2,-2,4,29,-23,57,13,4
1512354163483839,0,5,-3,-46,0,-25,-5,-5
1512354163483839,0,-3,8,33,-1,-1,-8,15
1512354163495839,-3,-4,-19,-19,4,10,-1,-9
1512354163495839,0,3,6,-10,-10,-7,-4,3
1512354163504839,1,1,1,-1,-12,-8,-3,-3
1512354163504839,-6,-8,-14,9,21,29,-3,-11
1512354163519839,-2,1,15,24,33,-15,-8,-3
1512354163519839,-1,-3,10,13,6,-6,3,1
1512354163521839,6,1,-29,-31,-7,1,1,5
1512354163521839,-4,-7,-10,8,5,-9,-5,-11
1512354163542839,-1,1,7,8,-19,-14,3,3
1512354163542839,-3,-3,-18,-24,48,17,0,-3
1512354163543839,0,6,4,-22,-9,-21,3,0
1512354163543839,0,2,10,16,-21,25,2,2
1512354163555839,-1,-1,-2,12,19,1,-3,-7
1512354163555839,0,4,13,9,1,-11,-9,-4
1512354163564839,-3,-13,-12,15,-5,8,1,11
1512354163564839,7,8,2,-21,-32,-15,8,3
1512354163578839,-4,-2,1,3,15,16,-1,0
1512354163578839,-3,4,5,27,2,-12,-2,-7
1512354163585839,5,6,-6,-27,-1,-10,-2,12
1512354163585839,-3,-5,2,6,2,-7,-2,-1
1512354163602839,5,2,14,19,13,8,-8,6
1512354163602839,2,0,-11,-23,-7,-7,1,-2
1512354163603839,1,6,23,28,31,-14,-3,-11
1512354163603839,-7,-4,-12,12,18,13,-7,-11
1512354163615839,-2,-7,4,12,-17,-14,-1,10
1512354163615839,-6,-5,3,20,8,-4,-10,-25
1512354163624839,8,3,-19,-58,-37,8,11,34
1512354163624839,0,5,15,-1,3,10,-5,-12
1512354163638839,-7,-3,-10,-7,-4,12,2,-27
1512354163638839,8,5,32,12,-4,-16,1,37
1512354163645839,-4,-2,-19,40,1,17,3,-8
1512354163645839,4,3,-3,-15,5,-5,4,6
1512354163662839,-2,-4,5,-1,-3,8,1,-8
1512354163662839,-2,3,-3,2,6,-1,3,0
1512354163663839,-3,-5,-2,-44,-16,26,-2,-11
1512354163663839,0,-1,6,11,17,14,3,11
1512354163684839,-1,3,-23,-10,-1,-27,-5,1
1512354163684839,-1,5,10,-24,-20,3,-3,-7
1512354163686839,-3,-8,26,56,47,9,7,3
1512354163686839,-2,-3,-6,2,4,48,6,-8
1512354163698839,3,2,5,-3,-1,-5,0,4
1512354163698839,3,0,-18,-17,-16,-9,1,4
1512354163705839,0,10,27,-2,0,-14,-7,-8
1512354163705839,-3,-13,-38,-41,-2,-19,-4,-10
1512354163722839,1,1,1,-7,-39,-8,-1,10
1512354163722839,0,-3,-13,-15,-2,-8,-2,-1
1512354163723839,-2,-2,16,31,18,3,2,-3
1512354163723839,-1,3,15,29,7,-12,-1,-4
1512354163744839,-2,-2,-10,-22,-11,7,3,4
1512354163744839,-1,3,-2,5,15,-12,-9,-16
1512354163746839,2,-4,-5,-1,-32,-2,1,17
1512354163746839,1,5,13,15,32,-31,0,0
1512354163758839,1,-4,-10,-7,18,63,4,1
1512354163758839,-2,-5,-10,-22,-1,0,-2,2
1512354163765839,-5,3,-4,-2,-1,-14,-8,-14
1512354163765839,-1,-1,4,5,16,16,2,0
1512354163782839,-3,0,0,9,-4,1,-3,-3
1512354163782839,0,-6,-8,0,-8,5,6,2
1512354163783839,-4,-7,-18,-23,-1,7,-1,-12
1512354163783839,2,4,8,14,-7,-34,-12,-3
1512354163804839,1,5,39,15,-3,11,-5,-9
1512354163804839,-4,-11,-44,-17,-22,11,2,5
1512354163806839,-1,-3,-2,33,8,-1,-2,-7
1512354163806839,-3,0,-3,-45,-17,-1,1,-1
1512354163818839,5,10,15,-3,-11,-13,4,9
1512354163818839,-3,0,1,4,-3,-4,-2,-2
1512354163825839,1,1,17,8,22,18,2,-6
1512354163825839,2,-7,-13,11,-3,-9,5,20
1512354163841839,-4,-14,-21,4,1,-19,-2,-2
1512354163841839,-4,-5,0,6,9,16,2,-1
1512354163843839,0,5,-11,-12,-3,-6,-6,-2
1512354163843839,0,1,12,-5,-8,-7,0,-3
1512354163864839,-5,-3,-9,-15,-26,-18,-8,-7
1512354163864839,1,-2,26,29,20,11,3,5
1512354163866839,-2,-4,-17,-19,8,-11,-1,-5
1512354163866839,-4,0,0,19,-17,-7,-6,-11
1512354163878839,2,4,4,14,15,-4,1,14
1512354163878839,-2,-5,-9,-27,-9,-7,-3,-8
1512354163885839,3,3,8,8,-1,4,1,3
1512354163885839,-3,-5,-6,-6,-17,22,8,5
1512354163902839,-2,0,3,16,12,-12,0,-10
1512354163902839,0,11,32,26,7,8,-3,0
1512354163903839,-1,-4,-8,-28,-15,-20,-4,-1
1512354163903839,-2,-4,-5,6,11,21,-3,-10
1512354163924839,0,-4,-9,-8,-7,0,0,3
1512354163924839,-5,-4,-9,-7,1,-6,-6,-5
1512354163926839,-2,-2,-5,-7,-32,-16,-9,-4
1512354163926839,4,6,13,3,60,6,7,10
1512354163938839,-1,1,2,13,8,-1,2,-3
1512354163938839,7,13,28,-6,12,-16,-8,-3
1512354163947839,-4,-10,-21,12,-23,-11,-5,0
1512354163947839,-1,7,-1,1,-22,-5,-5,-7
1512354163961839,2,-4,-17,-19,-1,-10,-1,2
1512354163961839,0,-5,-28,-45,6,6,7,2
1512354163963839,-2,-3,21,34,6,28,6,-6
1512354163963839,-2,1,19,-1,1,-12,-4,-3
1512354163984839,1,-3,-27,-12,-4,29,7,5
1512354163984839,-4,-4,0,17,-23,-12,-6,-6
1512354163986839,5,6,-3,-8,26,17,6,9
1512354163986839,-3,-2,4,8,-17,-6,-7,-5
1512354163998839,2,3,15,3,-5,-1,0,0
1512354163998839,-1,1,0,-6,6,1,5,5
1512354164007839,-2,1,9,-4,2,5,-1,-1
1512354164007839,2,-6,-17,5,-5,-12,0,1
1512354164021839,-4,1,-1,-9,14,-8,-10,-7
1512354164021839,3,0,-6,15,-15,-6,3,1
1512354164023839,-4,-6,7,-22,-8,21,7,2
1512354164023839,-1,3,3,2,-20,3,0,3
1512354164044839,-5,-2,1,3,57,17,0,-1
1512354164044839,-1,-1,-4,-5,-13,-21,-3,2
1512354164046839,0,4,-4,1,4,4,0,1
1512354164046839,2,-6,-8,-5,-9,0,-1,4
1512354164058839,0,0,4,-17,-26,-27,-3,-4
1512354164058839,-3,-8,-8,4,2,28,4,-1
1512354164067839,-2,-1,0,2,5,-9,-5,-8
1512354164067839,0,3,3,3,-9,-15,-3,2
1512354164081839,3,4,6,1,-10,-9,1,1
1512354164081839,-1,0,-5,-3,-3,4,1,2
1512354164083839,-2,-2,2,7,-3,-9,-6,-2
1512354164083839,-5,-3,12,-18,-6,-22,-2,-5
1512354164104839,0,-11,-20,21,19,38,6,11
1512354164104839,2,3,14,-16,-2,4,3,7
1512354164106839,-5,-5,-25,8,8,20,3,-5
1512354164106839,-2,2,13,-1,0,-7,-5,-1
1512354164118839,0,3,8,-8,-44,-27,1,-1
1512354164118839,-4,-2,-5,1,29,17,-4,-18
1512354164127839,7,5,9,13,23,-26,3,31
1512354164127839,3,1,-8,-19,-22,32,3,-1
1512354164141839,-6,-4,-1,-4,-23,-9,-1,-4
1512354164141839,-1,0,2,14,-1,-1,-5,-8
1512354164143839,-3,-6,-8,-19,-29,-9,4,6
1512354164143839,-1,0,-7,13,43,-1,-1,-3
1512354164164839,1,4,6,4,-3,-4,-7,0
1512354164164839,-2,-1,21,-3,-8,-17,1,3
1512354164166839,-2,-4,-12,5,-2,12,-6,-9
1512354164166839,0,-3,1,3,14,-10,0,1
1512354164178839,2,4,-3,-9,6,-1,-6,-4
1512354164178839,2,4,3,7,-3,-5,1,5
1512354164187839,3,-1,-6,-11,-11,-16,-6,-9
1512354164187839,-1,0,-3,-7,2,-6,1,6
1512354164201839,-5,-9,-1,24,5,18,3,-8
1512354164201839,0,2,2,-10,-3,10,1,2
1512354164203839,3,5,4,-4,-16,-12,-2,-3
1512354164203839,-6,-11,-17,-15,-17,14,3,-2
1512354164224839,1,3,6,2,-16,-29,0,4
1512354164224839,3,0,-7,-6,-18,1,-1,1
1512354164226839,-1,-2,2,20,10,2,-1,-4
1512354164226839,-1,2,-2,-23,-41,-7,-5,-9
1512354164238839,-2,-2,-9,-6,14,18,1,-1
1512354164238839,0,-6,-15,-12,-6,-19,-3,8
1512354164247839,-1,6,19,-9,1,-12,-4,-4
1512354164247839,0,-5,-11,15,0,-5,-1,2
1512354164261839,-1,1,5,-14,10,28,2,-3
1512354164261839,-3,-4,-3,26,4,-13,-2,-1
1512354164263839,1,-2,-14,2,45,7,3,2
1512354164263839,0,3,28,13,-17,0,-5,-4
1512354164284839,3,7,-2,-23,-7,-11,-4,-1
1512354164284839,-7,-22,-13,-7,-20,14,-3,-8
1512354164286839,0,3,9,-10,0,4,4,6
1512354164286839,-1,-4,-3,19,28,8,-1,-8
1512354164298839,2,5,-6,-16,-12,-11,0,-1
1512354164298839,2,6,3,-8,24,2,0,3
1512354164307839,-3,-2,6,-12,-36,-16,-4,-13
1512354164307839,2,-1,-14,-8,5,-13,-2,1
1512354164322839,-1,-12,-3,12,4,56,7,4
1512354164322839,2,3,-10,13,25,-10,1,-5
1512354164323839,-2,0,7,-10,-9,-9,-3,5
1512354164323839,4,6,-6,4,-11,1,0,1
1512354164344839,-5,-13,-1,-2,1,-9,-6,-5
1512354164344839,0,6,8,8,1,-6,-2,-5
1512354164346839,0,6,-8,-14,-1,13,2,1
1512354164346839,-6,-16,-11,-10,-5,-2,-2,1
1512354164358839,1,2,4,1,20,-20,2,-2
1512354164358839,-2,-6,-12,-13,-28,2,3,-1
1512354164367839,4,8,16,12,-8,5,-1,-1
1512354164367839,1,3,4,3,-23,-6,-2,5
1512354164381839,4,8,4,18,15,-22,-8,-1
1512354164381839,-6,-5,8,-25,-91,-17,0,1
1512354164383839,1,0,-21,-5,-9,17,5,-1
1512354164383839,2,3,5,13,37,-3,-3,-4
1512354164404839,-5,-1,7,22,-2,-18,-1,3
1512354164404839,6,11,29,12,45,-10,-6,-7
1512354164406839,-9,-20,-26,-13,6,-2,1,8
1512354164406839,2,10,17,31,-5,0,-1,-4
1512354164418839,-3,-1,9,-16,-14,0,-3,-9
1512354164418839,-2,8,-11,-28,-18,18,1,6
1512354164427839,0,-15,-20,4,1,-6,-2,-12
1512354164427839,0,3,20,-14,-6,2,0,7
1512354164441839,2,0,-9,22,2,-3,3,0
1512354164441839,2,4,-4,-12,-8,13,6,9
1512354164443839,0,3,9,4,-5,-7,1,-4
1512354164443839,-2,-4,1,-2,35,36,12,0
1512354164464839,-4,-2,-5,1,-5,-3,-7,-8
1512354164464839,-1,-10,-18,17,19,-7,-2,-3
1512354164466839,0,6,-1,-26,19,3,-3,-1
1512354164466839,2,-1,-1,26,-3,-7,4,0
1512354164478839,-3,11,24,-21,-23,-3,-5,2
1512354164478839,-4,-24,-30,25,52,10,4,1
1512354164487839,3,-2,11,5,-31,-10,-2,0
1512354164487839,-4,1,-3,-10,-23,5,-1,-6
1512354164501839,-5,-6,7,-13,-10,23,9,4
1512354164501839,6,5,-38,-23,-4,-4,-3,7
1512354164503839,-3,-6,-4,0,-27,-32,-7,-6
1512354164503839,-3,-4,0,3,-11,3,0,-5
1512354164524839,4,5,-2,14,11,18,5,8
1512354164524839,-7,3,25,-2,-40,-9,-7,-18
1512354164526839,1,-2,0,24,45,37,2,17
1512354164526839,0,5,8,-16,1,-18,-2,-2
1512354164538839,-1,-12,-23,13,8,-19,-3,-3
1512354164538839,-2,1,2,-7,-7,2,-5,-4
1512354164547839,0,1,3,7,13,-14,-3,-3
1512354164547839,-1,3,-3,-32,-50,-1,-3,-3
1512354164561839,-3,-7,2,-8,-13,10,2,-3
1512354164561839,6,0,-4,-12,27,4,6,1
1512354164568839,1,9,4,7,-4,-17,0,5
1512354164568839,-2,7,17,5,7,7,-3,1
1512354164584839,-4,-27,-31,0,-7,-33,-6,0
1512354164584839,-7,0,-3,-29,-39,16,2,-5
1512354164586839,-4,3,9,18,-3,6,3,-5
1512354164586839,7,8,5,-11,0,-9,-3,2
1512354164606839,1,9,-7,-22,5,12,-2,1
1512354164606839,1,-8,15,38,42,10,4,2
1512354164608839,3,3,1,-5,5,1,0,0
1512354164608839,-6,-13,-22,-17,-20,-9,2,1
1512354164621839,-4,2,0,4,9,-5,-3,-7
1512354164621839,1,3,2,0,12,-4,1,9
1512354164628839,-1,4,13,2,-21,1,-1,-11
1512354164628839,-3,-14,-29,19,54,-4,-6,-5
1512354164644839,2,1,14,5,3,-5,-4,-2
1512354164644839,0,5,9,7,-4,-21,-1,1
1512354164646839,-1,2,16,1,-2,38,2,-11
1512354164646839,3,6,-11,3,-2,5,3,1
1512354164666839,-2,-12,-19,-3,-12,3,0,-1
1512354164666839,-1,-1,4,28,12,-15,-7,-5
1512354164668839,-3,0,2,-11,15,0,3,-1
1512354164668839,-5,-1,1,-31,-60,28,1,-12
1512354164681839,6,13,29,16,39,-7,-2,2
1512354164681839,-2,-11,-35,-25,-39,-6,2,0
1512354164688839,-4,-2,1,-7,-24,-7,-2,-2
1512354164688839,2,0,2,-9,9,-5,2,7
1512354164704839,4,16,16,32,3,-7,0,3
1512354164704839,-8,-24,-22,-8,-36,5,-2,0
1512354164706839,-4,-19,-17,18,41,16,-1,2
1512354164706839,1,3,10,-3,-3,-21,0,2
1512354164726839,1,9,-20,-33,-31,7,-2,-3
1512354164726839,-4,2,27,29,25,20,4,-2
1512354164728839,3,0,-10,-2,6,-19,-3,-1
1512354164728839,-3,-4,4,14,39,9,4,4
1512354164741839,6,1,-3,-9,-1,13,5,-6
1512354164741839,-4,7,7,-5,23,1,0,-2
1512354164748839,-2,-4,3,-12,-35,12,0,5
1512354164748839,2,0,-12,11,-16,-16,-5,4
1512354164764839,3,-2,5,-15,27,-11,4,5
1512354164764839,5,7,15,2,9,24,1,-1
1512354164766839,-2,0,-7,1,-10,-8,-4,-3
1512354164766839,0,3,-7,-2,14,-11,0,1
1512354164786839,-4,-5,2,16,0,0,-3,-6
1512354164786839,2,4,4,12,20,-14,-3,4
1512354164788839,-1,6,17,-1,-4,-6,-3,-2
1512354164788839,-1,2,-20,-13,-16,18,-3,-8
1512354164801839,-6,-12,-10,-3,-31,-6,-2,1
1512354164801839,1,12,35,-4,-20,4,-1,1
1512354164808839,-9,-1,-9,1,-15,-13,-7,-10
1512354164808839,-2,-11,-25,1,24,8,-1,-13
1512354164824839,1,0,12,-6,-14,-8,3,15
1512354164824839,5,7,-2,-10,-26,-21,-2,-2
1512354164826839,-2,-6,1,10,22,19,0,-7
1512354164826839,-1,-8,-13,4,9,-13,-2,-3
1512354164846839,-1,-3,2,12,19,10,2,2
1512354164846839,1,7,4,7,-19,-23,-3,-2
1512354164848839,3,4,-7,-16,-9,-15,-2,4
1512354164848839,-5,-3,28,5,-3,11,1,0
1512354164860839,2,-5,-29,-33,-10,5,0,4
1512354164860839,1,0,2,26,5,6,-4,-1
1512354164875839,2,3,-11,-1,5,3,6,2
1512354164875839,1,2,18,-4,-34,-20,-4,3
1512354164884839,2,14,29,10,14,-11,-6,-4
1512354164884839,-8,-24,-47,-8,9,8,0,-5
1512354164886839,0,1,4,14,6,-7,4,7
1512354164886839,4,7,11,6,-3,-1,-1,3
1512354164907839,-5,-16,-20,5,-2,-14,-5,-13
1512354164907839,1,6,13,-10,14,4,0,3
1512354164908839,0,0,-6,-7,3,-4,-3,-4
1512354164908839,-1,5,23,0,12,0,-2,1
1512354164920839,-8,-9,-5,4,9,2,-7,-18
1512354164920839,0,-5,-18,-32,-57,-15,4,14
1512354164929839,1,3,4,-5,25,-5,-3,-6
1512354164929839,0,4,0,9,33,11,2,-1
1512354164944839,-1,-4,-5,-7,-15,1,2,1
1512354164944839,3,9,11,-1,-19,0,-4,-10
1512354164946839,2,-2,0,3,20,-14,0,5
1512354164946839,0,-4,-4,4,6,20,5,3
1512354164966839,2,9,-1,-5,-15,-5,-2,-6
1512354164966839,-1,2,28,3,8,-6,-1,1
1512354164968839,-3,-11,-37,7,10,9,3,6
1512354164968839,-1,-3,-5,3,7,-15,-6,-6
1512354164980839,2,2,-2,-5,-25,13,3,7
1512354164980839,1,0,12,3,32,23,0,0
1512354164989839,-4,4,6,-16,-23,0,-4,-6
1512354164989839,-2,-3,14,7,-1,-17,3,-1
1512354165004839,-1,-7,-23,-4,4,1,-3,-1
1512354165004839,-5,-4,-14,-4,-13,-4,-5,-12
1512354165006839,3,2,16,2,13,-6,4,15
1512354165006839,-4,-6,-12,-11,-18,-1,-4,-7
1512354165026839,1,5,13,7,20,12,4,10
1512354165026839,-4,-4,-13,8,12,-10,-5,-10
1512354165028839,-1,-2,2,-10,-18,-12,2,-1
1512354165028839,-1,1,10,0,-3,12,0,1
1512354165040839,-2,0,-9,-17,-15,-18,-7,-4
1512354165040839,1,-6,-23,11,43,8,2,4
1512354165049839,4,5,16,-4,-10,-4,0,-1
1512354165049839,-2,-5,-6,8,-6,7,2,4
1512354165064839,1,4,11,-17,-45,-5,-3,-3
1512354165064839,2,6,11,18,46,-12,0,-3
1512354165066839,-4,-13,-12,3,-10,12,2,7
1512354165066839,-1,-3,-10,-3,1,-16,-10,-12
1512354165086839,-1,1,5,7,2,21,9,13
1512354165086839,0,2,2,-6,-17,-2,-2,0
1512354165088839,-1,3,12,11,20,5,-6,-15
1512354165088839,5,4,-4,-1,-23,-1,6,18
1512354165100839,-4,-5,-7,6,7,-3,0,-6
1512354165100839,0,1,0,-6,4,23,7,8
1512354165109839,-2,2,11,1,6,2,-2,-7
1512354165109839,0,-6,-25,-3,-4,-3,-1,-3
1512354165124839,1,4,10,-5,-25,-5,-4,-9
1512354165124839,3,2,1,-6,-17,-8,0,10
1512354165126839,2,-7,-23,9,-9,7,-2,-5
1512354165126839,-3,-1,18,-6,-4,-14,-4,2
1512354165146839,3,8,12,11,51,2,-1,0
1512354165146839,0,-3,-4,4,15,2,-2,-3
1512354165154839,2,2,3,1,12,-4,1,3
1512354165154839,-2,-5,-15,1,37,-4,2,2
1512354165160839,0,6,12,13,40,10,2,2
1512354165160839,0,-5,-4,2,-11,-12,-6,-6
1512354165169839,-1,-3,-6,-19,-11,-10,-3,-7
1512354165169839,-2,-2,3,28,23,25,2,-2
1512354165184839,-4,1,2,1,-17,-13,-2,-7
1512354165184839,-1,1,1,-11,9,1,-3,-8
1512354165186839,-1,1,-8,-1,-21,-6,0,6
1512354165186839,3,-2,-2,-12,-20,-10,-1,1
1512354165206839,-2,2,9,-14,-1,14,-1,0
1512354165206839,-4,-11,-12,20,-28,-2,-1,-4
1512354165208839,6,5,5,2,29,-5,-4,4
1512354165208839,-2,-2,-6,-31,-34,15,7,3
1512354165220839,2,0,-5,-1,11,0,-1,2
1512354165220839,-3,-3,2,1,-22,-4,0,-5
1512354165229839,-1,1,3,-5,-14,2,3,5
1512354165229839,2,7,13,7,15,1,-4,-4
1512354165244839,0,-9,-22,-21,-8,-10,-5,3
1512354165244839,0,0,-1,-17,-25,-11,-1,-4
1512354165246839,-1,-1,1,3,7,6,3,-1
1512354165246839,0,4,-8,11,10,-9,-1,-3
1512354165266839,-5,-5,4,5,3,4,4,-8
1512354165266839,4,6,-1,-3,18,-6,-6,7
1512354165268839,-4,-6,15,5,-6,3,-2,-8
1512354165268839,-4,-6,-16,-23,-18,-14,-4,3
1512354165280839,2,2,7,36,45,18,3,-6
1512354165280839,-2,-1,-5,-9,-12,13,1,13
1512354165289839,-4,-6,-6,-6,-12,-12,-5,-12
1512354165289839,-2,-3,-2,-4,-4,17,3,8
1512354165304839,0,-3,-9,-34,-30,-8,2,1
1512354165304839,1,7,17,29,68,5,6,-2
1512354165306839,-5,-11,-20,-3,1,-1,-6,-4
1512354165306839,3,4,11,5,12,1,3,0
1512354165326839,1,-2,-14,-7,-24,-12,-3,1
1512354165326839,3,7,17,1,-4,-22,-4,-5
1512354165328839,-2,-7,-3,-8,10,16,1,-3
1512354165328839,1,1,1,9,0,-7,-3,1
1512354165340839,3,6,13,7,5,-4,0,2
1512354165340839,-4,-5,-26,-14,-18,-2,-4,-8
1512354165349839,1,0,1,1,-9,6,7,12
1512354165349839,-3,1,3,-7,-19,-10,-8,-7
1512354165371839,0,0,5,6,-4,7,0,1
1512354165371839,-3,-7,-5,-12,-31,-12,-1,2
1512354165373839,0,5,-1,-4,13,11,-3,-2
1512354165373839,-1,1,5,7,6,8,1,-7
1512354165386839,-1,-4,-1,-2,-10,-18,1,14
1512354165386839,-3,-6,-7,-3,-5,2,1,-1
1512354165388839,2,1,2,6,-8,-1,4,6
1512354165388839,-1,2,1,-5,15,5,-4,-11
1512354165400839,-2,-7,-9,23,32,-12,-5,-7
1512354165400839,3,0,1,-10,6,15,0,3
1512354165409839,-1,-1,-4,-30,-70,-6,-3,-9
1512354165409839,0,1,5,15,18,12,3,9
1512354165423839,2,2,-4,-21,-17,-15,-3,1
1512354165423839,-5,2,3,7,1,13,0,-7
1512354165430839,-2,-18,-23,-6,-16,6,8,2
1512354165430839,-2,-7,-4,6,30,-11,-6,-7
1512354165446839,-4,1,9,3,-18,-1,0,-8
1512354165446839,-1,-4,-1,3,6,16,2,3
1512354165448839,6,22,21,-34,-12,1,0,9
1512354165448839,-8,-32,-46,-27,-42,-6,-4,-3
1512354165460839,-3,-7,3,32,-4,-9,-2,-6
1512354165460839,1,1,-1,-3,7,8,-1,-4
1512354165469839,1,6,14,30,33,4,1,-1
1512354165469839,1,10,17,-10,-11,11,-1,-1
1512354165483839,-2,-1,-11,-11,-6,-13,-1,1
1512354165483839,-1,-3,2,-2,-16,-12,0,3
1512354165490839,0,1,-11,3,-6,-5,-3,-7
1512354165490839,0,2,8,-8,4,4,-2,-6
1512354165506839,-2,-1,2,22,-1,4,-1,2
1512354165506839,4,2,-4,-5,7,-10,3,-7
1512354165508839,-2,-1,1,9,-9,-12,-4,4
1512354165508839,2,7,5,-2,-15,3,1,5
1512354165529839,-3,-6,-4,14,19,3,-2,-9
1512354165529839,1,3,7,5,35,8,1,7
1512354165531839,-2,7,6,1,-11,-32,-6,3
1512354165531839,0,-17,-14,0,1,2,1,-1
1512354165543839,0,-1,-18,-16,0,15,-1,-1
1512354165543839,5,3,10,8,1,-13,-3,8
1512354165550839,-3,-2,2,5,26,13,0,-1
1512354165550839,-4,1,3,13,18,-20,0,-5
1512354165566839,5,6,6,-6,-7,3,4,7
1512354165566839,-2,-6,-8,-5,-8,1,-1,-1
1512354165568839,-2,-3,1,1,18,6,-2,-2
1512354165568839,-1,1,-6,-1,-31,-3,2,-1
1512354165589839,-2,-2,-8,-20,9,2,-1,-1
1512354165589839,-3,-10,-1,12,1,2,-4,-12
1512354165591839,0,5,-3,-9,-32,-2,5,12
1512354165591839,1,9,16,29,87,12,-1,-2
1512354165603839,-7,-13,-9,-17,-17,1,-1,-2
1512354165603839,-3,-3,-30,-19,-24,3,-3,-6
1512354165610839,3,-2,-11,7,20,-23,-3,8
1512354165610839,1,4,17,2,-10,8,2,0
1512354165626839,0,7,11,9,-3,-5,0,4
1512354165626839,1,3,4,-5,17,4,1,2
1512354165628839,-3,-4,1,-16,-35,-9,1,3
1512354165628839,5,8,1,14,18,18,0,-3
1512354165649839,1,2,-2,3,5,-2,-1,5
1512354165649839,-4,-1,9,4,-8,-9,-6,-11
1512354165651839,-3,-4,-8,-11,-5,-1,-2,-4
1512354165651839,0,5,2,13,-38,-11,-1,0
1512354165663839,-4,-15,-10,8,23,1,-2,-6
1512354165663839,-1,3,7,-12,-44,2,1,2
1512354165670839,-2,-7,-8,14,37,-2,-2,-5
1512354165670839,-3,-5,-10,-33,-69,-10,-2,-7
1512354165686839,12,15,14,-4,-19,-4,-4,3
1512354165686839,-2,0,-2,2,9,-16,2,4
1512354165688839,0,6,16,4,-9,-1,-11,-11
1512354165688839,-6,-9,-13,-8,8,0,2,-4
1512354165709839,-3,1,14,5,16,-19,-4,0
1512354165709839,-3,-6,-16,-1,12,32,24,7
1512354165711839,2,8,20,-9,-41,-99,-53,-18
1512354165711839,-10,-3,-7,12,39,49,5,-19
1512354165723839,23,10,8,4,7,78,32,50
1512354165723839,0,21,16,-22,-44,-36,-8,-1
1512354165730839,-15,-62,-53,13,31,16,9,-11
1512354165730839,-5,3,4,-4,21,-73,-5,6
1512354165746839,-6,3,0,5,17,21,9,4
1512354165746839,2,-3,-17,3,6,-49,-17,-4
1512354165748839,7,11,5,-2,17,39,8,-2
1512354165748839,-4,4,24,9,-46,-27,-4,-8
1512354165769839,-9,-27,-50,-21,-8,26,7,-2
1512354165769839,-8,-11,6,1,59,12,-2,1
1512354165770839,-2,11,24,-19,-75,-6,5,3
1512354165770839,3,-10,-9,5,31,41,2,6
1512354165783839,10,16,8,5,3,-45,-11,-8
1512354165783839,3,5,15,6,-25,7,0,2
1512354165790839,-2,-5,-12,10,55,3,2,-4
1512354165790839,4,4,9,-15,-30,-14,-1,7
1512354165806839,-9,4,17,0,4,17,-8,-21
1512354165806839,13,-8,-24,-16,-14,-8,-5,11
1512354165808839,-3,6,21,19,41,25,8,-2
1512354165808839,4,8,-13,-7,-24,-15,-5,0
1512354165829839,-8,-6,11,2,7,-27,-7,10
1512354165829839,-1,1,-14,-5,-1,12,2,-7
1512354165831839,-2,0,-8,-1,8,5,4,-1
1512354165831839,6,6,22,-2,-11,5,-14,3
1512354165843839,-9,-16,-24,-8,-19,-13,-4,-22
1512354165843839,-2,7,13,13,16,24,5,8
1512354165852839,6,9,-6,-3,-13,20,5,3
1512354165852839,-8,-11,-4,-7,-3,-3,-2,-7
1512354165866839,3,9,13,0,-11,-1,-4,-9
1512354165866839,-5,-6,20,9,8,-19,-2,1
1512354165868839,-3,-21,-42,4,51,15,5,3
1512354165868839,-2,3,-3,-9,-25,0,2,-1
1512354165889839,-3,8,15,-7,0,-11,-12,-9
1512354165889839,8,5,22,9,-13,15,9,18
1512354165891839,-3,-4,-22,-11,5,-5,-1,-3
1512354165891839,0,-8,-5,15,4,-10,3,0
1512354165904839,-2,3,4,-12,-17,-8,-2,-1
1512354165904839,-10,-5,-3,9,11,-7,-7,-14
1512354165912839,10,16,14,-3,-51,2,4,12
1512354165912839,-4,-7,-1,-12,9,21,1,5
1512354165926839,-2,1,0,-5,-16,-36,-11,-6
1512354165926839,-1,-5,-6,-8,-14,14,2,4
1512354165928839,-1,7,16,1,15,6,2,-3
1512354165928839,4,1,-11,14,24,7,2,4
1512354165948839,2,13,12,14,31,39,7,-3
1512354165948839,-8,-25,-27,5,5,-1,-4,2
1512354165949839,-1,3,17,-4,-10,-1,-3,-7
1512354165949839,2,-5,-26,-10,-29,-32,3,14
1512354165971839,0,1,24,10,-4,21,5,2
1512354165971839,1,2,-16,-5,-19,1,-4,-15
1512354165972839,0,0,23,-4,13,13,2,6
1512354165972839,-1,4,-9,0,-15,-12,-2,-2
1512354165987839,-1,-1,-9,-12,-23,-9,-3,0
1512354165987839,-7,-2,11,5,26,13,4,-6
1512354165988839,2,-1,3,22,14,-8,-4,0
1512354165988839,1,7,3,-12,-18,7,4,7
1512354166008839,-6,-11,-18,15,16,27,2,-5
1512354166008839,1,6,5,-15,-2,7,-1,4
1512354166009839,0,4,1,3,22,-1,-6,-8
1512354166009839,2,2,6,-8,-3,-15,1,6
1512354166031839,-1,-3,-14,2,-11,-24,-5,-5
1512354166031839,-3,-6,1,1,12,29,4,0
1512354166032839,4,7,-3,-1,-37,-15,1,0
1512354166032839,-1,-5,9,-11,50,27,-1,-7
1512354166046839,-2,-3,-6,1,-1,-13,-1,-3
1512354166046839,3,7,4,15,6,-5,-2,-1
1512354166047839,1,2,-9,5,-31,-6,0,10
1512354166047839,-3,0,5,-2,14,13,1,-9
1512354166068839,3,-6,-22,3,-10,-9,2,5
1512354166068839,-4,-8,-11,-7,-1,4,2,-6
1512354166069839,-1,-1,5,3,29,9,1,1
1512354166069839,-4,4,20,10,7,3,0,-2
1512354166091839,3,3,-4,-8,-14,-17,-7,-6
1512354166091839,2,3,-2,-1,-28,-15,-2,5
1512354166092839,-3,-12,-1,-16,30,8,7,3
1512354166092839,-2,-3,-4,-5,-17,-3,3,-2
1512354166106839,2,6,15,0,-1,4,-5,0
1512354166106839,2,2,-3,0,-6,-26,1,1
1512354166106839,-5,-2,1,0,-17,8,-4,-8
1512354166106839,0,1,11,13,36,-11,-10,-9
1512354166128839,-7,-8,-14,-12,10,8,6,5
1512354166128839,-1,3,6,7,0,-14,-5,0
1512354166129839,1,5,16,4,1,10,-2,-3
1512354166129839,2,-12,-37,-6,2,11,8,14
1512354166143839,-3,-1,-8,-8,-13,-8,-7,-19
1512354166143839,-1,-7,-9,4,13,-1,-3,-2
1512354166151839,0,3,2,-7,-18,3,1,-1
1512354166151839,3,8,11,-10,-17,-8,-3,-7
1512354166166839,-7,-15,-20,-8,10,-10,4,5
1512354166166839,-3,5,15,4,16,11,2,-1
1512354166167839,-2,-4,-9,7,17,0,-4,-7
1512354166167839,5,0,3,-1,-32,-33,1,16
1512354166188839,0,2,4,2,0,-9,2,2
1512354166188839,-2,1,2,0,30,1,-4,-3
1512354166189839,-8,-7,-5,-4,-4,-22,-1,-4
1512354166189839,3,6,-5,-9,-28,2,1,-12
1512354166211839,0,-23,-8,3,3,2,5,16
1512354166211839,-2,-2,-5,-10,-31,-16,-5,-10
1512354166212839,-1,5,1,0,-5,14,3,5
1512354166212839,-5,-2,-16,5,15,11,-8,-16
1512354166226839,2,4,15,-16,-62,-1,0,5
1512354166226839,-1,0,-8,10,-4,4,-3,-6
1512354166227839,5,-2,1,-4,3,-10,1,6
1512354166227839,-3,0,8,3,2,-3,-1,-4
1512354166248839,0,0,-2,-6,16,16,7,3
1512354166248839,-2,0,6,-15,-45,-14,-6,-2
1512354166249839,-3,2,-2,-25,-61,3,-1,-7
1512354166249839,-2,-14,-16,38,28,31,13,14
1512354166271839,-5,5,5,-11,-9,-2,-19,-16
1512354166271839,1,-4,9,-4,3,-70,-8,0
1512354166272839,-13,-27,-46,-9,12,25,7,-1
1512354166272839,2,4,6,-25,-69,14,7,6
1512354166286839,-3,6,1,8,18,-19,1,-4
1512354166286839,9,18,15,10,25,-16,-15,-5
1512354166286839,-4,-20,-13,-9,-35,-10,-14,-3
1512354166286839,0,4,10,-18,-13,-10,-7,7
1512354166308839,5,4,11,9,25,71,10,5
1512354166308839,-1,0,-17,14,25,34,3,-2
1512354166309839,5,11,24,40,18,-5,8,8
1512354166309839,0,-1,-8,-18,10,12,8,1
1512354166331839,4,6,7,17,20,-4,-16,-3
1512354166331839,-5,-8,-1,-8,-27,14,4,-3
1512354166332839,1,6,2,6,30,21,7,-4
1512354166332839,-3,-3,8,6,12,6,-6,-10
1512354166346839,-3,-7,-12,17,2,1,12,8
1512354166346839,2,-4,-49,-107,-26,67,27,12
1512354166347839,-8,-5,4,33,46,-50,-21,-20
1512354166347839,2,9,11,4,-20,7,7,0
1512354166368839,-2,-2,9,24,-8,-10,5,3
1512354166368839,1,0,31,45,5,-7,-2,1
1512354166369839,3,6,-3,-9,-4,-44,-17,1
1512354166369839,3,-8,-22,-22,-2,43,11,2
1512354166391839,-3,2,-2,-28,-19,-59,-35,-30
1512354166391839,-1,-3,5,13,-12,-21,5,10
1512354166392839,1,9,19,22,10,43,3,2
1512354166392839,-4,-6,-13,-11,5,-28,-19,-13
1512354166406839,-1,-3,-4,-3,4,-4,-4,5
1512354166406839,5,0,1,-5,-13,55,26,33
1512354166406839,-2,-7,-4,-23,-9,-15,2,4
1512354166406839,1,7,7,8,31,-3,2,-3
1512354166428839,-1,-3,23,9,4,-2,-9,9
1512354166428839,-6,0,-14,33,-33,14,-9,-14
1512354166429839,2,-1,-41,-86,-29,-15,12,12
1512354166429839,-1,-3,3,17,49,-7,-12,4
1512354166451839,1,5,-1,-3,-7,7,15,1
1512354166451839,-1,-1,18,21,39,-15,-18,-1
1512354166452839,2,9,24,30,-8,7,2,-4
1512354166452839,-3,-6,-18,-19,-25,-69,-23,-3
1512354166466839,2,2,0,5,2,22,14,-2
1512354166466839,-2,-2,-8,-16,25,41,4,-8
1512354166467839,-2,-1,-5,-2,-6,-78,-11,4
1512354166467839,0,1,7,3,15,73,21,5
1512354166488839,0,-3,0,14,26,12,-5,4
1512354166488839,3,5,3,-5,-6,-24,25,4
1512354166489839,0,0,-6,-6,-14,5,-17,-42
1512354166489839,1,-1,4,20,18,16,-1,12
1512354166511839,0,2,12,47,16,-74,-22,-11
1512354166511839,1,1,-15,-48,-22,-7,17,30
1512354166512839,-5,3,22,20,-7,-1,-26,-4
1512354166512839,-4,-4,6,30,67,-3,22,3
1512354166526839,0,-3,-30,-64,-15,19,3,-15
1512354166526839,7,8,25,1,-37,-22,-5,1
1512354166527839,-2,-2,-7,13,-21,40,36,4
1512354166527839,-6,6,37,21,-25,-21,-32,2
1512354166548839,16,-3,-36,-3,42,-11,35,-1
1512354166548839,-4,-10,-7,-7,-7,-31,-14,-4
1512354166549839,5,5,9,-5,8,49,15,13
1512354166549839,-4,-5,-2,5,-26,0,-35,-12
1512354166571839,2,11,32,27,-3,12,39,0
1512354166571839,-15,-5,-27,-54,4,3,-66,-88
1512354166572839,18,16,4,18,43,-11,53,97
1512354166572839,-5,-33,-19,-15,-82,-47,-5,-54
1512354166586839,4,2,-14,-5,5,32,-2,-8
1512354166586839,-3,-6,7,57,89,-36,-14,-16
1512354166586839,-12,-1,12,23,16,-14,-28,-9
1512354166586839,1,17,12,-21,11,11,-7,-32
1512354166608839,6,1,-9,-13,-45,-24,16,43
1512354166608839,-2,-3,-5,11,-7,8,22,-7
1512354166609839,2,3,2,-1,-28,1,-13,1
1512354166609839,-2,-3,-2,21,14,-6,10,11
1512354166631839,-6,-18,-35,-76,0,5,-22,3
1512354166631839,-4,4,-11,-35,15,-34,-18,-9
1512354166632839,8,18,44,53,14,57,27,16
1512354166632839,-4,-44,-87,-60,-30,10,8,18
1512354166646839,-9,-6,1,13,26,-8,-8,0
1512354166646839,3,-4,9,30,5,-8,15,12
1512354166647839,-9,-2,-7,-42,-16,-21,-23,-41
1512354166647839,-2,12,28,23,-2,15,7,17
1512354166668839,-5,7,5,1,-8,-16,-30,-42
1512354166668839,3,-12,-5,9,-6,19,9,37
1512354166669839,3,-5,-7,-1,8,-29,-3,-12
1512354166669839,2,21,10,8,14,21,-7,8
1512354166691839,1,-1,8,-6,-30,-26,-10,-4
1512354166691839,-2,7,15,9,-8,-18,-12,-2
1512354166692839,-3,-9,-16,1,34,-6,4,-7
1512354166692839,-3,-2,4,-16,-28,-4,-4,-17
1512354166706839,-2,-6,-9,6,1,2,13,36
1512354166706839,1,-6,2,3,10,-5,8,14
1512354166707839,1,-3,-20,-15,-2,9,-18,-39
1512354166707839,2,-1,-14,-38,-32,10,29,29
1512354166728839,-8,-8,6,33,-9,-17,-11,-8
1512354166728839,-4,-17,-24,11,21,39,3,-10
1512354166729839,1,-4,18,3,-40,-11,9,24
1512354166729839,0,6,-22,-19,9,4,1,-18
1512354166751839,-3,5,15,25,35,25,-9,19
1512354166751839,-3,5,2,-31,-25,-23,-6,-25
1512354166752839,1,1,-1,-3,9,22,-7,-12
1512354166752839,-1,2,21,4,-3,-17,-13,-19
1512354166766839,-1,6,4,-1,1,-1,7,11
1512354166766839,1,-7,-7,8,-1,40,12,14
1512354166767839,0,5,0,-21,-27,-3,-14,-46
1512354166767839,8,3,-7,17,7,8,7,33
1512354166788839,-7,-4,-4,-27,-34,3,-8,-15
1512354166788839,1,8,10,9,1,4,7,16
1512354166789839,-11,-9,-10,6,16,-24,-23,-32
1512354166789839,11,5,25,17,19,0,26,48
1512354166811839,0,-4,-9,-7,-40,16,0,-11
1512354166811839,4,8,-1,0,77,-10,-5,-2
1512354166811839,3,11,10,-15,-20,24,4,24
1512354166811839,-13,-39,-46,14,19,1,-7,-22
1512354166826839,3,8,8,4,-42,-12,-2,8
1512354166826839,-2,6,12,-3,21,15,-6,-6
1512354166827839,0,-8,-1,14,6,-26,27,40
1512354166827839,-5,7,-2,-46,-38,-28,-19,-18
1512354166848839,5,3,16,24,15,14,0,-6
1512354166848839,2,-3,-6,8,-7,-8,-3,2
1512354166849839,2,-1,-2,-2,4,42,7,7
1512354166849839,1,9,17,18,5,-10,-8,-4
1512354166871839,-2,-2,-3,-1,4,9,17,1
1512354166871839,1,3,2,-13,-48,-29,1,16
1512354166871839,-6,-8,-9,10,15,-8,-21,-25
1512354166871839,-1,1,12,40,4,9,-1,-18
1512354166886839,8,6,3,-16,15,-3,-7,38
1512354166886839,4,4,-13,-31,-22,-21,13,-12
1512354166887839,-4,-11,-2,14,12,27,17,8
1512354166887839,1,12,29,11,17,5,-12,-4
1512354166908839,-3,-9,-37,-30,-42,4,4,-10
1512354166908839,-8,-16,-3,18,-10,13,-5,1
1512354166909839,1,-3,-20,-13,-7,10,7,16
1512354166909839,0,3,30,48,24,-8,7,26
1512354166931839,1,10,23,-37,-36,-34,-21,-43
1512354166931839,1,-5,-31,-20,4,23,3,15
1512354166932839,-4,-5,-1,17,19,-22,-13,-15
1512354166932839,2,9,-17,-59,-17,-1,15,-13
1512354166946839,2,-2,6,19,8,21,11,34
1512354166946839,-1,2,10,-5,-37,-23,-5,-9
1512354166946839,4,1,8,-3,-27,-6,4,27
1512354166946839,-1,-6,-12,2,20,-39,-4,-15
1512354166968839,-8,-1,-3,-4,2,-40,-23,-19
1512354166968839,4,14,32,18,-18,71,14,-10
1512354166969839,-2,-18,-37,-17,-33,-3,-6,4
1512354166969839,0,-2,-19,-17,-8,17,5,-2
1512354166991839,-5,-2,3,-16,25,3,13,-10
1512354166991839,2,10,19,46,30,16,-8,-24
1512354166991839,-2,4,11,-11,-8,0,-3,8
1512354166991839,-1,5,4,4,-35,-7,-7,-14
1512354167006839,-9,-20,-21,-5,32,54,4,-4
1512354167006839,-1,2,0,-2,-19,-21,-6,-3
1512354167006839,2,5,8,5,2,1,-2,-17
1512354167006839,0,3,4,2,12,-16,-8,-6
1512354167028839,2,5,17,25,6,5,6,4
1512354167028839,-7,-11,-12,-18,-33,-19,-15,-1
1512354167029839,0,0,-5,-22,5,-15,13,9
1512354167029839,-9,-3,-6,-16,-8,-12,-13,-21
1512354167051839,-1,10,13,18,20,4,-10,-16
1512354167051839,-6,-25,-27,-9,-25,-26,-5,-1
1512354167051839,1,6,13,30,42,-9,-5,3
1512354167051839,10,4,2,1,2,-4,3,28
1512354167066839,1,6,10,-26,-8,0,15,1
1512354167066839,-3,-1,-9,25,1,-7,-12,-4
1512354167066839,-2,-17,-14,8,5,34,2,-5
1512354167066839,0,1,5,-10,-42,3,-5,-7
1512354167088839,2,2,-2,15,32,-9,6,12
1512354167088839,0,8,11,-50,-32,-6,5,6
1512354167089839,-3,1,-2,-7,-13,21,9,0
1512354167089839,-3,-10,-13,-13,-4,33,9,-4
1512354167111839,1,8,18,34,-2,-22,-6,20
1512354167111839,-5,-14,-21,0,5,-13,-2,7
1512354167112839,-3,-1,3,0,10,11,-16,-29
1512354167112839,2,0,1,4,10,7,7,12
1512354167125839,2,-2,-16,-32,-19,-25,-7,-11
1512354167125839,-2,4,18,27,45,8,4,-2
1512354167133839,-2,1,-3,-15,-43,18,-4,12
1512354167133839,-4,-4,5,15,5,-23,3,-8
1512354167148839,-2,-3,-8,0,29,6,-2,-9
1512354167148839,11,11,7,7,7,-11,0,6
1512354167149839,-4,-1,6,-3,-27,-23,2,-4
1512354167149839,3,7,0,-4,33,26,-4,2
1512354167171839,-4,-12,-10,5,0,-3,1,4
1512354167171839,2,2,-4,16,-21,33,23,11
1512354167172839,1,4,-6,-36,-13,-48,-12,-13
1512354167172839,2,4,11,9,-10,6,2,6
1512354167185839,-4,-4,-7,-6,-4,21,0,-6
1512354167185839,-4,-1,-3,-7,-39,3,-4,-1
1512354167193839,4,8,26,14,23,7,5,0
1512354167193839,-6,-14,-21,0,-8,-56,-8,-12
1512354167208839,-1,1,10,10,-11,4,-2,-5
1512354167208839,-2,-4,-9,-36,8,24,1,-6
1512354167209839,-1,-7,-16,4,-2,-1,7,5
1512354167209839,5,-3,-6,-12,0,-2,-2,11
1512354167231839,-7,-8,-3,2,-38,29,-2,-5
1512354167231839,4,6,19,23,38,-6,-3,-1
1512354167232839,-1,0,-13,-35,16,8,4,0
1512354167232839,-2,2,3,16,2,26,0,-3
1512354167245839,1,0,1,14,-11,-27,7,5
1512354167245839,2,2,7,-4,20,12,-9,2
1512354167253839,-4,-10,-9,20,-7,-6,1,13
1512354167253839,5,6,11,-32,25,-21,0,11
1512354167268839,-1,-5,-13,19,12,23,-5,-15
1512354167268839,-1,0,-3,8,60,-19,0,6
1512354167269839,1,3,6,16,10,9,-14,-14
1512354167269839,7,6,16,20,14,35,26,23
1512354167291839,2,3,2,3,26,-3,1,9
1512354167291839,0,1,1,-19,-38,-19,-3,-5
1512354167292839,-1,2,2,6,-8,-16,-11,-1
1512354167292839,-1,-9,-14,-20,-31,-3,9,22
1512354167305839,-3,5,12,6,28,3,-9,-11
1512354167305839,6,0,-6,17,16,24,12,4
1512354167313839,-2,-5,-11,-30,-32,3,6,15
1512354167313839,-8,-8,-9,5,14,15,-6,-14
1512354167328839,0,7,26,-1,-42,-18,3,6
1512354167328839,-4,-2,-12,-4,1,-17,-6,-2
1512354167329839,-1,7,6,-17,0,-13,-9,-11
1512354167329839,-4,-4,-23,25,25,-17,-12,-9
1512354167351839,3,3,0,-25,4,33,12,19
1512354167351839,-4,-4,10,14,-6,9,0,-5
1512354167351839,1,3,1,-3,17,-24,-3,7
1512354167351839,-4,-1,-5,-22,-51,-3,-6,-18
1512354167365839,-2,0,1,2,-1,-21,-8,-9
1512354167365839,1,4,3,-5,-15,-15,-7,0
1512354167373839,-1,0,1,29,22,19,-5,-21
1512354167373839,1,-1,4,-2,-44,-13,4,32
1512354167388839,-1,-3,-18,-13,74,5,-10,-13
1512354167388839,0,-2,-6,-11,-33,-22,-5,0
1512354167389839,6,9,17,10,-11,-13,9,20
1512354167389839,0,2,7,18,33,-17,-10,-14
1512354167411839,-1,-9,-9,14,-1,-5,1,2
1512354167411839,1,4,8,20,29,17,3,38
1512354167411839,-2,1,10,-21,7,15,-3,-7
1512354167411839,4,0,-25,-14,-12,2,7,-10
1512354167434839,-7,-4,7,-12,-24,-19,-14,-12
1512354167434839,-1,5,24,9,16,-8,2,0
1512354167435839,-2,-14,-22,5,-7,12,7,0
1512354167435839,0,0,19,14,18,4,-9,-3
1512354167448839,4,-1,-20,-27,-47,-13,5,0
1512354167448839,-2,-2,-1,-13,-9,18,5,4
1512354167449839,-1,2,6,4,-6,-31,-6,-12
1512354167449839,3,5,-2,-2,24,27,3,4
1512354167471839,-3,-5,3,-20,-55,18,10,6
1512354167471839,-1,-4,-6,-12,-22,-40,-6,-12
1512354167472839,0,-4,-21,-15,-23,23,9,24
1512354167472839,-5,-3,15,6,46,5,-4,-20
1512354167494839,-1,-2,-10,-1,39,-14,4,27
1512354167494839,-1,0,-2,-7,-2,-11,0,-11
1512354167495839,3,12,16,0,-28,7,-4,-15
1512354167495839,-7,-16,-13,6,-14,-7,-10,6
1512354167508839,2,0,0,7,-3,-11,11,-11
1512354167508839,-2,-2,-3,-10,-19,9,-7,2
1512354167509839,2,10,34,1,42,-11,5,19
1512354167509839,-6,-14,-38,-22,-30,33,0,-6
1512354167531839,-4,0,-4,12,6,-15,-6,-15
1512354167531839,-5,-11,-7,-3,8,-25,-11,-21
1512354167531839,2,-1,-3,8,-9,7,12,19
1512354167531839,1,6,11,-2,-16,-17,-7,6
1512354167554839,-7,-6,-13,-10,-4,13,-17,-21
1512354167554839,6,4,5,20,49,50,11,-1
1512354167555839,-5,-5,-8,-6,38,-16,1,-7
1512354167555839,3,11,19,27,31,-10,4,7
1512354167568839,0,1,-1,-3,-49,6,4,-1
1512354167568839,-6,-7,0,1,-7,14,-4,-18
1512354167569839,3,-2,-10,-3,-7,-1,3,17
1512354167569839,5,7,4,-6,-8,-5,8,5
1512354167591839,5,3,5,0,3,16,5,8
1512354167591839,-2,0,5,5,-3,-16,-2,6
1512354167592839,-6,-8,-17,2,7,4,-2,-20
1512354167592839,-6,3,14,-13,-14,6,-8,-20
1512354167614839,1,-10,-6,8,-31,12,5,9
1512354167614839,1,3,-5,-4,0,-13,0,-9
1512354167615839,-5,-5,8,3,-10,2,-5,-10
1512354167615839,-2,3,0,-2,-22,6,-5,-3
1512354167628839,1,2,-2,7,44,11,3,-4
1512354167628839,0,5,-6,-11,-24,-24,-17,3
1512354167629839,-1,0,5,-1,-13,-3,11,-1
1512354167629839,-3,4,-4,10,26,23,0,-12
1512354167651839,-1,-11,8,0,16,14,-1,7
1512354167651839,4,1,-8,-35,-47,11,11,20
1512354167652839,-3,0,-4,7,15,-2,-10,0
1512354167652839,1,1,-1,-4,-26,-19,1,-3
1512354167674839,-1,-1,-15,6,12,17,-1,0
1512354167674839,-3,-5,1,-6,5,13,-4,-13
1512354167675839,-5,-3,0,3,-8,-3,-8,-24
1512354167675839,7,-1,1,-2,-17,12,3,17
1512354167688839,0,2,4,-1,-3,-26,-4,-3
1512354167688839,-1,2,1,4,4,-11,-2,-8
1512354167689839,1,5,9,4,39,3,8,0
1512354167689839,-3,-16,-16,-1,11,-16,1,1
1512354167711839,0,7,7,-9,-29,-15,-2,4
1512354167711839,1,1,-2,11,7,13,5,6
1512354167711839,4,4,0,2,-18,-4,0,2
1512354167711839,2,2,11,-4,9,3,7,9
1512354167734839,-2,-1,11,0,54,10,-5,-8
1512354167734839,-3,-3,-16,11,17,15,4,3
1512354167735839,0,0,2,-13,-41,-22,-14,-14
1512354167735839,-4,-7,-6,-1,-16,-17,1,11
1512354167748839,0,3,3,1,-6,14,8,3
1512354167748839,2,4,21,4,13,-11,-2,-24
1512354167749839,-9,-17,-30,-11,-5,-15,-10,-9
1512354167749839,6,4,3,6,2,-16,9,21
1512354167771839,1,5,8,9,-8,-5,-12,-19
1512354167771839,-4,-4,-2,1,-32,-31,-1,16
1512354167772839,6,0,-6,-15,-24,8,9,15
1512354167772839,-6,-2,3,1,8,2,-12,-18
1512354167794839,0,3,3,13,32,6,9,8
1512354167794839,1,-2,-4,4,12,0,2,17
1512354167795839,0,-2,1,3,10,7,-11,-8
1512354167795839,-1,4,4,-13,-19,20,-2,-18
1512354167808839,3,3,-1,-30,-34,-34,-15,15
1512354167808839,-5,-12,-9,29,58,35,7,-36
1512354167809839,12,4,-3,-41,-77,-8,12,55
1512354167809839,-9,-14,-10,-1,6,27,-1,-11
1512354167831839,4,3,-6,-15,-10,-3,-2,8
1512354167831839,-2,-2,-5,-2,-1,-48,-9,5
1512354167831839,-2,-1,9,-1,8,18,-8,-20
1512354167831839,3,12,9,-5,3,6,10,12
1512354167854839,-1,-2,6,8,-11,-19,-4,2
1512354167854839,-6,-9,-7,-1,1,-7,4,-2
1512354167855839,-4,-3,2,15,33,1,0,-16
1512354167855839,2,-1,3,-8,-18,-23,-2,14
1512354167868839,-7,-3,-5,10,34,-21,-19,-29
1512354167868839,1,5,5,-9,4,22,9,52
1512354167869839,4,-2,-7,8,14,-19,11,1
1512354167869839,0,2,5,16,32,-12,-16,-32
1512354167891839,0,-4,-6,-3,-13,14,6,17
1512354167891839,0,-1,-2,-5,4,16,-8,-22
1512354167892839,-3,-6,-5,-14,-25,2,-19,-1
1512354167892839,1,-3,3,6,15,1,14,-4
1512354167914839,-1,-1,-8,-5,18,3,1,2
1512354167914839,-5,-1,14,-1,-21,-16,-5,-1
1512354167915839,1,4,-10,10,21,2,2,0
1512354167915839,-4,2,-5,4,30,30,-6,-13
1512354167928839,-4,-10,-13,-5,-23,-17,-7,-19
1512354167928839,-3,3,2,0,-1,11,-1,-14
1512354167929839,0,4,-3,-4,25,6,-5,0
1512354167929839,-1,-1,17,2,-12,-21,-3,4
1512354167951839,-3,3,-6,12,24,28,3,-6
1512354167951839,3,-3,-1,3,6,6,-7,0
1512354167951839,0,1,-4,-3,-1,5,7,-7
1512354167951839,-4,-4,-12,-19,-56,23,6,-7
1512354167974839,2,-1,-14,-7,8,11,8,36
1512354167974839,5,4,18,3,-2,0,-10,-10
1512354167975839,-6,-2,-2,-6,-12,-5,1,-18
1512354167975839,-1,-9,-2,-1,8,-8,0,29
1512354167988839,8,-3,4,2,-16,-14,6,11
1512354167988839,1,-1,-11,-14,-41,13,-1,1
1512354167996839,0,4,6,9,38,-9,-6,-9
1512354167996839,-2,-4,-5,9,31,-13,3,19
1512354168011839,-2,2,11,1,-21,-3,1,-18
1512354168011839,5,3,1,6,13,-11,17,26
1512354168011839,-3,-10,-8,12,11,11,-2,-10
1512354168011839,-3,2,5,1,18,-14,-17,-2
1512354168034839,2,1,0,-3,-25,35,23,5
1512354168034839,-2,-2,-12,-10,3,-16,0,-10
1512354168035839,-1,-1,13,8,-2,9,-1,12
1512354168035839,-3,-4,-18,-19,-58,-4,-6,-19
1512354168048839,-4,-7,-2,-2,-6,18,-7,-5
1512354168048839,3,6,-6,-13,-43,-2,10,1
1512354168056839,-3,-1,21,3,-11,6,4,6
1512354168056839,2,7,0,3,2,-21,-21,-44
1512354168071839,0,-8,-1,-7,16,3,13,67
1512354168071839,2,-2,6,5,-20,-10,-4,-13
1512354168071839,4,1,-26,-3,7,13,7,13
1512354168071839,2,2,-4,-14,-34,9,13,10
1512354168094839,-7,-1,8,-2,-6,-37,-29,-45
1512354168094839,2,5,6,7,34,16,12,18
1512354168095839,3,-2,0,3,8,-2,12,23
1512354168095839,1,-3,0,-4,2,-15,-10,-5
1512354168107839,-2,0,-14,-1,17,10,1,-11
1512354168107839,-3,2,17,8,42,-2,-11,-6
1512354168116839,1,1,-26,-9,2,-4,-5,-22
1512354168116839,0,-7,-2,6,-28,-2,5,11
1512354168131839,-5,-8,4,-11,-24,-14,-8,-8
1512354168131839,1,4,7,14,19,17,7,-5
1512354168131839,-5,-1,2,-3,-21,-31,-10,-13
1512354168131839,0,-1,-8,-7,-10,10,7,22
1512354168154839,0,9,3,3,-6,-3,-13,-35
1512354168154839,-8,-11,-15,-8,-3,-2,-1,1
1512354168155839,4,7,15,4,-6,32,9,13
1512354168155839,-1,-3,-4,3,-5,-17,2,4
1512354168168839,-1,4,8,2,25,31,8,-7
1512354168168839,-3,-1,-11,-8,1,-6,-6,-2
1512354168176839,-5,-1,4,3,-2,-1,-9,-22
1512354168176839,2,0,7,13,26,-6,-3,-2
1512354168191839,2,0,-1,7,34,11,10,18
1512354168191839,-3,-3,-1,-6,-14,-24,-25,-23
1512354168191839,1,1,13,-11,-54,5,7,19
1512354168191839,-1,3,-12,-9,16,-2,-9,-1
1512354168214839,4,-4,-24,7,-27,-20,3,-1
1512354168214839,-6,-9,2,-9,-33,22,6,4
1512354168215839,-4,-1,14,8,13,-32,-3,-6
1512354168215839,1,8,13,-5,19,3,-2,-1
1512354168228839,-2,2,13,2,-4,-12,-4,-9
1512354168228839,1,-4,-32,-19,-2,-8,-1,5
1512354168236839,0,1,4,6,-9,-3,-1,9
1512354168236839,0,-5,0,11,6,10,1,-18
1512354168251839,4,6,2,-12,-26,-24,4,19
1512354168251839,-3,-3,7,-9,40,3,-1,-4
1512354168251839,-2,-3,7,-4,-2,7,-14,-10
1512354168251839,0,-4,-22,-11,-9,-13,18,18
1512354168274839,1,2,7,13,6,13,-7,-11
1512354168274839,2,3,0,4,-9,14,5,19
1512354168275839,3,0,-6,-4,7,2,-2,-5
1512354168275839,0,2,10,2,-7,-12,-1,-1
1512354168288839,-3,-1,-1,-8,-10,-17,-9,-4
1512354168288839,1,-1,-9,15,6,-2,5,2
1512354168296839,-1,-2,-8,6,27,-20,-7,-18
1512354168296839,3,5,20,3,-7,23,5,20
1512354168311839,-2,0,-11,-2,18,-1,-1,-12
1512354168311839,1,-2,-5,-2,-9,-2,4,6
1512354168311839,1,-2,-4,-2,0,-6,2,9
1512354168311839,-1,8,-5,-18,1,4,-5,-24
1512354168334839,-2,-17,9,27,0,-13,2,20
1512354168334839,1,8,12,13,2,1,-2,-9
1512354168335839,-3,-2,3,-3,-14,2,-5,-4
1512354168335839,2,-9,-17,-3,35,0,14,33
1512354168348839,-1,6,19,4,1,-2,-1,-5
1512354168348839,1,-1,16,6,-9,-6,0,-5
1512354168356839,-8,-13,-29,-8,-5,9,1,0
1512354168356839,6,9,14,8,-7,8,-3,-1
1512354168371839,0,0,-4,-5,-9,-29,-7,-9
1512354168371839,1,2,4,6,25,24,5,3
1512354168371839,-6,-1,4,-8,-23,-7,-10,-23
1512354168371839,-4,-4,-4,4,9,17,-3,-14
1512354168394839,5,-1,-4,-11,-7,8,11,28
1512354168394839,1,3,5,-1,-42,-24,-10,-12
1512354168395839,0,0,-4,0,30,-4,6,12
1512354168395839,-6,-4,-1,6,4,11,-20,-20
1512354168416839,7,1,-3,0,-4,-7,34,40
1512354168416839,-1,-3,-12,-9,-25,-15,-10,-11
1512354168417839,4,3,14,0,14,11,2,16
1512354168417839,2,-2,-10,10,-6,-19,-1,1
1512354168431839,-3,2,-1,0,11,-2,-7,-12
1512354168431839,2,6,-8,-16,7,21,-3,-14
1512354168431839,-3,-11,1,-2,-36,-4,4,6
1512354168431839,-1,-3,-1,11,-27,-11,-2,-7
1512354168454839,-2,1,-8,-3,-1,17,-5,-6
1512354168454839,-2,-7,-2,-21,0,-8,2,9
1512354168455839,3,16,21,-3,-9,5,-5,-15
1512354168455839,-3,-8,-24,-13,-10,6,1,1
1512354168475839,-4,-7,-5,1,-7,-3,-8,-13
1512354168475839,-1,-2,14,-4,-7,-2,2,10
1512354168483839,3,5,-3,1,-1,-1,2,10
1512354168483839,-1,-2,3,-2,2,-3,0,-6
1512354168491839,-2,-3,-5,1,23,11,-2,2
1512354168491839,0,3,-4,-4,1,1,1,3
1512354168491839,-5,-12,-5,5,43,6,2,-7
1512354168491839,0,3,7,9,2,-9,5,6
1512354168514839,2,3,11,-2,-5,-6,-18,-15
1512354168514839,-1,-3,-11,9,4,1,7,0
1512354168515839,-3,2,-10,-7,-6,5,0,3
1512354168515839,-5,-11,-3,-6,-2,-9,-5,-6
1512354168536839,-1,2,0,-3,0,14,2,-8
1512354168536839,4,1,-1,9,3,-8,-3,5
1512354168537839,3,6,7,0,18,4,1,-2
1512354168537839,-2,1,3,-8,0,-7,-3,-6
1512354168551839,-2,-1,-23,3,9,4,-2,1
1512354168551839,1,1,0,7,4,-3,-1,-3
1512354168551839,0,5,-2,1,-5,-3,-2,5
1512354168551839,-4,-5,8,5,1,2,-2,0
1512354168574839,0,0,-7,-13,-10,4,1,-1
1512354168574839,-2,-4,8,17,21,-17,-9,-2
1512354168575839,4,8,-3,20,16,3,4,-4
1512354168575839,-4,-15,8,-3,3,5,-7,-17
1512354168596839,-1,1,-6,-1,-6,-1,7,17
1512354168596839,4,2,-9,-12,-7,4,3,20
1512354168597839,3,5,6,0,-3,6,4,0
1512354168597839,4,8,-1,4,3,-17,1,0
1512354168611839,-4,-5,-1,-7,-11,4,1,-12
1512354168611839,-10,-16,-9,-6,-7,5,8,4
1512354168611839,0,-3,5,2,-12,-15,-10,-6
1512354168611839,1,10,1,-2,8,12,8,12
1512354168633839,0,6,10,-1,5,-28,-13,-12
1512354168633839,2,-3,-2,-7,-11,10,0,-4
1512354168634839,-4,-18,-21,5,6,4,-2,-1
1512354168634839,1,3,10,5,8,-12,-4,-1
1512354168656839,-2,2,9,-2,-22,16,3,1
1512354168656839,-1,5,16,0,-3,-4,-3,-8
1512354168657839,-3,-6,-18,-3,-7,24,-1,-6
1512354168657839,0,-1,-2,-3,9,-10,-3,5
1512354168671839,2,1,-1,-9,-10,-10,2,4
1512354168671839,-5,0,11,18,12,-7,-11,-19
1512354168671839,1,-3,-3,-5,-11,1,-8,3
1512354168671839,1,5,2,-7,-6,-7,12,7
1512354168693839,-2,2,4,6,0,-3,-1,9
1512354168693839,-5,-5,-15,-3,15,8,-3,-14
1512354168694839,-3,-7,5,4,13,-3,3,5
1512354168694839,3,-1,-21,-15,6,9,3,5
1512354168716839,-1,-2,18,5,2,3,-3,-10
1512354168716839,0,5,-9,-5,-10,-6,-5,1
1512354168717839,-4,2,11,-6,0,-16,0,9
1512354168717839,-3,-2,-2,7,2,40,8,-7
1512354168731839,1,-2,-4,-3,1,-10,2,1
1512354168731839,2,3,16,-2,-2,18,2,0
1512354168731839,-2,-6,-41,-14,-12,-20,-4,-6
1512354168731839,-2,-2,23,4,-10,-10,-2,-1
1512354168761839,-1,-6,-6,-1,4,7,-6,-10
1512354168761839,-1,-2,-4,3,-1,-13,1,0
1512354168762839,-2,8,19,-15,-36,8,-2,-5
1512354168762839,3,1,-29,3,1,-5,-10,-4
1512354168776839,-1,-6,-6,6,5,4,2,-1
1512354168776839,-1,-4,8,-9,-12,-3,-2,0
1512354168777839,-1,4,3,7,11,-5,6,-1
1512354168777839,-1,-1,2,-11,-6,17,-2,-8
1512354168791839,-2,-2,0,-5,-5,-4,-1,-7
1512354168791839,3,10,1,15,20,-12,-6,6
1512354168791839,0,-6,-7,-4,-1,-7,-1,-8
1512354168791839,-7,-3,10,4,-2,-1,1,13
1512354168813839,-3,-4,-7,0,6,-6,-4,-8
1512354168813839,-1,0,-1,-10,-10,0,2,0
1512354168814839,2,-4,1,3,2,-13,-2,8
1512354168814839,1,4,2,1,3,11,-3,-8
1512354168836839,4,12,29,-4,-13,8,1,5
1512354168836839,-8,-22,-39,1,3,-9,-8,1
1512354168837839,1,-1,9,7,8,7,4,1
1512354168837839,-3,-6,-4,-9,-11,-8,-7,-3
1512354168851839,-2,5,-18,-8,-2,0,-3,-2
1512354168851839,5,5,7,-3,-4,0,3,3
1512354168851839,-3,0,3,1,-8,-6,-2,-3
1512354168851839,3,-2,2,3,16,4,2,0
1512354168873839,-1,-2,6,-1,-2,-2,1,3
1512354168873839,3,3,-2,-5,-8,14,-2,-1
1512354168874839,5,2,-7,9,-4,-9,-1,0
1512354168874839,-4,11,13,-2,1,-11,-12,-15
1512354168896839,-5,-24,-13,10,0,-4,9,21
1512354168896839,0,-5,-8,-9,4,3,0,4
1512354168897839,-3,1,8,-3,-9,-6,-6,-5
1512354168897839,6,10,5,4,-9,-2,9,3
1512354168911839,4,8,10,3,22,-5,-6,7
1512354168911839,-7,-15,-8,2,-24,-7,-2,-16
1512354168911839,5,5,-4,-6,8,3,1,5
1512354168911839,-3,-5,2,-1,3,4,-1,8
1512354168933839,-4,-8,-15,-5,2,2,-8,-12
1512354168933839,0,9,19,2,2,-6,7,-10
1512354168934839,0,2,-2,-1,-11,13,3,24
1512354168934839,-2,-6,-15,-2,2,-9,6,-3
1512354168956839,0,1,2,-10,-11,-15,-3,1
1512354168956839,5,18,12,-6,0,20,1,2
1512354168957839,-3,-16,-11,20,11,6,2,-1
1512354168957839,-2,0,-5,14,1,-13,-4,-1
1512354168970839,0,5,2,-2,5,25,5,-2
1512354168970839,0,2,6,-3,1,-17,-2,-4
1512354168978839,-3,-4,-9,-13,-3,-22,-6,-1
1512354168978839,3,1,6,-12,-4,35,5,4
1512354168993839,0,-3,-4,16,7,2,-2,-7
1512354168993839,5,7,0,-7,-16,-15,-1,13
1512354168994839,0,2,7,1,6,17,1,-8
1512354168994839,-1,-7,-2,-6,-16,-4,0,10
1512354169016839,-6,-1,-2,-5,4,-4,-7,-31
1512354169016839,2,-4,-1,7,15,11,12,28
1512354169017839,3,2,1,-3,-8,-30,-4,3
1512354169017839,-3,-2,-6,-5,1,-9,-6,-11
1512354169030839,1,-1,-1,-4,-9,1,2,4
1512354169030839,-4,-7,2,-8,-27,14,-2,-6
1512354169038839,1,2,12,-2,-5,2,-1,-10
1512354169038839,-3,-4,-13,-5,-3,0,-6,-2
1512354169053839,-1,-9,0,7,-8,-15,3,3
1512354169053839,-3,-1,-11,10,16,-14,-9,-14
1512354169054839,2,3,-2,-17,7,28,3,7
1512354169054839,3,1,2,10,-6,-5,4,5
1512354169076839,-4,-1,-11,-12,-12,2,2,5
1512354169076839,1,3,37,8,19,-24,-9,-10
1512354169077839,-5,-7,-22,5,2,8,-1,-11
1512354169077839,3,3,5,-8,-3,11,1,2
1512354169090839,8,-1,-9,2,5,-6,4,33
1512354169090839,-1,4,-8,-4,-8,0,-4,-1
1512354169098839,-6,-5,8,-1,6,5,4,-19
1512354169098839,3,-2,6,3,-3,-16,-2,35
1512354169114839,-3,6,7,-4,-15,11,2,-12
1512354169114839,-6,-11,-22,-6,2,8,-7,-7
1512354169115839,2,0,-2,-1,3,12,-1,4
1512354169115839,-4,-3,-9,-10,-14,-25,-5,-17
1512354169137839,5,5,6,3,10,20,6,8
1512354169137839,1,1,-2,0,-6,-13,-6,-3
1512354169137839,-7,-8,-10,-6,0,-3,-3,-4
1512354169137839,1,2,8,1,0,2,6,-1
1512354169150839,1,0,-9,-12,-7,1,2,11
1512354169150839,-4,-6,-6,0,5,7,-1,-9
1512354169158839,2,1,9,6,-6,-12,-8,-5
1512354169158839,-3,1,2,-1,8,3,-1,6
1512354169173839,-3,-1,-4,-6,1,-16,-7,-28
1512354169173839,2,3,-6,6,12,5,7,17
1512354169174839,3,0,0,-4,-4,3,3,6
1512354169174839,-6,-2,-1,-8,2,-3,-11,-19
1512354169196839,2,2,7,17,16,9,1,10
1512354169196839,-6,-15,0,7,4,-17,4,12
1512354169197839,0,4,0,-3,0,-6,-5,-10
1512354169197839,-1,0,-1,3,-13,-6,-2,-11
1512354169210839,-1,1,12,1,3,-4,-5,-9
1512354169210839,3,6,-16,-17,8,18,4,10
1512354169218839,-3,-11,13,20,22,-2,4,4
1512354169218839,-2,1,-5,-5,-11,-6,-6,-8
1512354169233839,-1,-3,-2,-7,3,12,3,-6
1512354169233839,4,8,15,1,18,4,0,-2
1512354169234839,-7,-7,-17,-15,-33,-29,-8,-7
1512354169234839,1,-2,-2,9,4,36,11,-4
1512354169256839,-2,1,2,11,5,-17,-8,-4
1512354169256839,-5,-1,25,-3,-16,-12,-6,-16
1512354169257839,2,0,-21,-3,3,14,11,21
1512354169257839,-2,-8,-5,7,26,-15,-4,-1
1512354169270839,1,4,-7,-5,-17,-11,-5,1
1512354169270839,5,7,6,3,-7,14,6,-8
1512354169278839,-7,-21,-8,16,7,-10,-8,-11
1512354169278839,2,3,-2,-2,0,-17,0,1
1512354169293839,1,-1,-3,5,12,7,-5,5
1512354169293839,4,7,1,-2,-6,-4,1,6
1512354169294839,3,9,6,-2,2,8,-1,-5
1512354169294839,-9,-9,-7,-4,-11,-12,-2,-8
1512354169316839,-2,-5,3,-6,13,4,9,25
1512354169316839,-4,-2,-17,-11,-21,-3,1,-1
1512354169317839,8,12,21,2,9,0,-2,1
1512354169317839,1,6,-10,-10,2,13,1,-4
1512354169339839,-3,-7,-15,3,-1,6,3,0
1512354169339839,-3,-14,-28,-13,-21,-8,1,7
1512354169340839,1,2,9,11,34,11,5,1
1512354169340839,2,-1,5,-4,-24,5,-2,6
1512354169353839,1,6,15,3,-6,-19,-3,-11
1512354169353839,2,0,-8,3,12,2,-2,9
1512354169354839,0,5,4,2,-2,-10,-7,-7
1512354169354839,-1,1,18,5,12,5,6,-1
1512354169376839,-1,-4,-7,0,-8,5,-1,-4
1512354169376839,0,-6,-2,-1,-4,-17,-3,5
1512354169377839,1,11,17,-13,-15,5,-3,-6
1512354169377839,-1,1,-2,11,18,4,-9,-18
1512354169399839,-5,-8,-11,1,-7,-12,4,12
1512354169399839,-3,0,4,12,-18,0,-1,-7
1512354169400839,0,-4,-6,-10,-7,0,-1,-1
1512354169400839,3,7,2,-5,-2,4,-2,4
1512354169413839,-1,5,12,-9,-1,-3,2,-9
1512354169413839,-2,-6,-3,8,4,5,1,-11
1512354169414839,-5,-4,-12,-10,1,-4,1,0
1512354169414839,5,5,11,13,-3,-2,3,17
1512354169436839,-2,-10,0,0,-6,-1,-4,0
1512354169436839,-3,-8,-3,-7,-5,-8,-3,-22
1512354169437839,0,3,2,3,3,7,8,4
1512354169437839,-1,5,-2,3,3,-10,-4,-5
1512354169459839,-7,-10,-3,0,-6,-2,-6,-10
1512354169459839,2,3,3,2,2,-26,-6,-2
1512354169460839,-5,-4,-14,-1,-2,29,2,-5
1512354169460839,4,3,7,-2,-3,2,5,10
1512354169473839,1,6,-2,0,4,-6,-3,2
1512354169473839,-4,-4,-8,1,2,13,-1,-18
1512354169474839,5,3,22,9,7,-23,-6,20
1512354169474839,-5,-13,-28,-16,9,4,6,11
1512354169496839,3,9,22,7,-2,8,3,5
1512354169496839,3,4,-5,-14,5,-2,-3,3
1512354169497839,-5,-4,-2,9,-16,-9,6,1
1512354169497839,2,-1,9,13,25,0,-3,6
1512354169519839,4,1,-18,-9,-4,-7,-1,-5
1512354169519839,-2,5,21,3,5,7,-2,0
1512354169520839,8,17,1,-19,-16,1,-1,11
1512354169520839,-4,-16,-17,31,3,-28,-3,-2
1512354169533839,-1,-1,-7,-6,2,12,2,-12
1512354169533839,-6,1,-4,-10,-20,-3,-5,-3
1512354169534839,4,8,20,14,16,5,-2,1
1512354169534839,-2,-5,-4,-8,-6,-13,3,2
1512354169556839,2,2,-9,-2,5,14,0,1
1512354169556839,-3,-3,30,11,-27,-3,-2,-3
1512354169557839,-6,-10,-33,-10,-30,-27,-4,-13
1512354169557839,0,-2,3,-21,25,42,9,5
1512354169579839,-2,1,-3,10,-12,-9,3,2
1512354169579839,0,1,11,-3,20,15,0,-5
1512354169580839,-3,-17,-23,10,-2,-25,-6,-6
1512354169580839,-3,-7,-10,-19,-49,-7,-6,-6
1512354169593839,-5,3,24,-9,-1,-10,-5,-12
1512354169593839,0,-1,-28,0,14,-8,3,6
1512354169594839,5,10,20,3,21,51,5,10
1512354169594839,-2,-2,8,-4,-5,-19,-1,-10
1512354169616839,-7,-12,-24,-9,-3,-3,1,-1
1512354169616839,-1,2,-2,-2,-2,0,-5,-3
1512354169617839,0,3,7,1,3,14,0,1
1512354169617839,1,4,0,-5,-16,1,-2,5
1512354169639839,-2,1,3,1,1,10,-3,-11
1512354169639839,2,-1,-8,23,8,-5,5,7
1512354169640839,-1,-11,-15,-21,-24,7,8,20
1512354169640839,3,8,13,0,-2,1,1,0
1512354169653839,-2,-3,13,13,22,-9,-4,-4
1512354169653839,-5,-20,-47,-13,-12,16,-1,1
1512354169654839,0,11,20,12,-3,-25,-5,-8
1512354169654839,-1,-14,-30,2,-13,3,-5,0
1512354169676839,3,8,5,-24,-12,-21,-7,3
1512354169676839,0,-2,4,-16,3,18,2,-2
1512354169677839,-4,1,0,3,0,-9,-3,-16
1512354169677839,9,12,14,1,10,0,3,16
1512354169706839,-2,-5,-9,9,0,4,3,-5
1512354169706839,3,5,4,-15,-22,-17,2,7
1512354169707839,1,-3,-2,-5,6,-5,-4,-7
1512354169707839,-1,-4,-4,5,17,-3,6,3
1512354169712839,0,-4,9,6,0,6,2,9
1512354169712839,4,8,-2,1,1,3,3,9
1512354169721839,-1,3,16,18,28,0,-6,-18
1512354169721839,-3,1,-12,-10,2,8,-2,3
1512354169736839,1,1,-10,-17,-29,-11,-3,-2
1512354169736839,-3,-9,10,42,26,-1,-5,-7
1512354169738839,5,3,-3,-21,-9,6,14,29
1512354169738839,-1,-2,4,-8,-17,12,1,-15
1512354169759839,-1,6,7,4,14,-3,-11,-4
1512354169759839,-3,-12,-9,-10,-6,-15,1,1
1512354169760839,3,3,-4,-7,-30,-10,-2,-6
1512354169760839,-5,-9,-9,-2,12,-18,1,7
1512354169772839,1,-3,-1,-4,-16,3,3,0
1512354169772839,6,11,12,5,6,4,-5,5
1512354169781839,-2,-6,-17,-4,9,-12,-8,-3
1512354169781839,-2,-2,1,-17,3,5,-1,-2
1512354169796839,2,1,20,50,44,27,1,-10
1512354169796839,-2,1,0,-5,-3,1,5,9
1512354169798839,-3,1,4,-3,4,-12,-14,-17
1512354169798839,2,5,3,5,4,-3,-1,-2
1512354169819839,4,0,-9,-4,0,12,10,26
1512354169819839,0,5,13,2,2,10,1,-5
1512354169820839,-6,-9,-15,-5,8,-1,-2,-6
1512354169820839,-7,-7,6,3,-5,10,-10,-13
1512354169832839,0,-3,-14,-8,-12,-25,-2,2
1512354169832839,0,8,9,8,-3,-6,5,11
1512354169841839,4,-4,-3,-7,0,11,6,20
1512354169841839,-2,3,15,8,-6,1,-2,-11
1512354169856839,2,-4,-25,-7,-1,19,6,4
1512354169856839,2,9,12,-5,25,2,-1,-4
1512354169858839,-1,-9,-6,-1,-18,0,-3,-7
1512354169858839,0,4,11,15,-1,-5,-2,-3
1512354169879839,1,3,3,-14,-7,-4,-1,9
1512354169879839,-3,4,6,-5,3,-4,1,1
1512354169880839,-7,-17,-14,2,14,4,3,-12
1512354169880839,3,5,-7,5,-5,0,2,3
1512354169892839,-4,-6,-1,1,-12,-3,-5,-9
1512354169892839,3,2,3,-8,4,-15,-8,-10
1512354169901839,-3,-4,7,8,0,2,9,13
1512354169901839,-1,1,-2,0,-3,-20,-7,2
1512354169916839,1,-1,-6,-7,-5,-12,-4,-5
1512354169916839,2,1,3,7,17,12,5,10
1512354169918839,-3,8,-2,-17,-10,5,2,-6
1512354169918839,-1,-8,4,4,-9,-21,-3,-8
1512354169939839,-2,4,-11,-21,16,21,-5,-8
1512354169939839,-1,-12,-12,16,-10,-3,6,9
1512354169940839,0,7,10,0,-12,6,-1,-2
1512354169940839,-1,0,-5,11,27,-5,0,2
1512354169952839,0,3,11,-12,-45,-4,2,3
1512354169952839,-1,1,-2,0,-16,-5,-2,-12
1512354169961839,1,5,-7,-8,-5,-3,1,3
1512354169961839,-6,-11,-2,-5,10,-4,-2,1
1512354169976839,2,-1,5,27,25,0,-1,-8
1512354169976839,-4,-12,-15,-14,-12,-10,5,6
1512354169978839,-2,-1,11,10,4,-3,-4,-6
1512354169978839,-2,5,2,4,-2,2,-4,2
1512354169999839,-3,3,4,-2,-2,-2,-2,-11
1512354169999839,-4,-5,-5,-2,-6,-4,-7,-4
1512354170000839,2,-4,0,-7,-9,-21,-1,11
1512354170000839,4,6,-4,6,17,10,4,-6
1512354170012839,-6,-7,6,3,-4,-9,-3,0
1512354170012839,1,-3,-3,13,15,15,0,-10
1512354170021839,-1,-1,-2,-19,-14,-12,-3,-3
1512354170021839,0,-1,-7,-3,-23,10,2,-7
1512354170036839,2,5,-2,12,6,-18,1,5
1512354170036839,-2,1,13,-12,-7,-13,-10,-5
1512354170038839,-3,-4,-9,9,20,23,4,-3
1512354170038839,-1,-5,-24,-17,-20,6,-2,3
1512354170059839,-2,-5,8,9,16,0,-1,-7
1512354170059839,2,3,5,2,-8,-11,3,8
1512354170060839,0,-2,-7,3,1,9,-10,-10
1512354170060839,-3,-7,0,-1,0,1,2,-4
1512354170072839,6,3,-4,-14,15,8,10,27
1512354170072839,-1,1,-4,-10,2,16,3,-2
1512354170081839,3,3,17,18,12,5,-2,-1
1512354170081839,-2,2,-5,-12,-15,-12,-5,-4
1512354170096839,0,-4,8,2,3,9,1,-3
1512354170096839,1,0,-1,0,0,1,-1,-2
1512354170098839,-1,-1,-2,-5,-3,1,2,7
1512354170098839,3,2,6,7,14,-1,1,3
1512354170119839,-5,0,-6,-3,3,-8,-2,2
1512354170119839,-4,0,3,5,7,16,-10,-27
1512354170120839,3,4,7,-8,-8,-17,11,24
1512354170120839,4,0,-6,14,5,-4,-5,4
1512354170132839,-2,-7,-9,-5,0,6,-4,-10
1512354170132839,1,1,-5,-8,-16,-10,2,4
1512354170142839,-3,1,2,-7,-6,-7,-4,-11
1512354170142839,2,5,26,-1,-5,-2,3,2
1512354170156839,1,8,-15,5,7,-11,-2,0
1512354170156839,-4,-8,0,-6,-6,-3,-2,-13
1512354170158839,-1,-3,-4,4,4,1,4,10
1512354170158839,-3,2,-1,-5,4,7,0,1
1512354170179839,-2,-2,2,-19,-23,-6,-4,-9
1512354170179839,2,2,-4,9,-30,-4,2,6
1512354170180839,2,0,3,17,36,17,2,8
1512354170180839,1,-6,-10,-14,-14,1,-6,3
1512354170192839,-4,-2,3,-16,-25,-22,0,-7
1512354170192839,1,-1,-4,0,21,29,1,9
1512354170201839,-1,2,4,2,-10,-6,-6,-14
1512354170201839,-1,1,9,4,15,19,1,-6
1512354170215839,1,-3,-16,-18,-1,4,-2,7
1512354170215839,-3,-3,7,11,13,-18,-2,5
1512354170222839,0,1,0,8,-16,-3,4,-4
1512354170222839,-4,3,8,-19,-21,0,-3,-8
1512354170239839,2,-2,-6,20,6,2,2,9
1512354170239839,1,-2,6,0,15,-5,-1,-5
1512354170240839,-8,-12,-22,-20,-13,3,-10,-24
1512354170240839,4,0,-7,4,-28,-1,13,29
1512354170261839,0,2,18,20,1,1,-2,-4
1512354170261839,3,-2,-4,-7,2,-5,6,19
1512354170263839,1,0,-13,3,-10,-21,-8,-22
1512354170263839,0,1,-4,1,1,0,4,-1
1512354170275839,-5,3,13,-10,-25,-9,-3,-5
1512354170275839,0,0,-10,14,44,20,4,4
1512354170282839,-3,2,9,0,-2,-14,-1,-2
1512354170282839,0,1,-1,1,16,-15,-3,1
1512354170299839,3,-3,-3,-13,-35,-4,-3,0
1512354170299839,-2,5,12,7,-1,-2,-3,-2
1512354170300839,-2,-2,-3,-6,11,11,-2,-4
1512354170300839,-4,-5,-7,1,-13,-14,-2,-4
1512354170321839,-2,0,4,9,17,12,1,-8
1512354170321839,-1,1,-5,-20,-31,-22,-2,12
1512354170323839,-1,-4,-5,1,8,10,-5,4
1512354170323839,0,-4,-5,-12,-29,6,5,-7
1512354170336839,2,-1,4,8,30,-12,1,2
1512354170336839,0,0,-5,4,-5,-5,0,5
1512354170342839,-1,1,8,9,2,0,0,2
1512354170342839,-3,1,-2,-11,9,-3,-10,-13
1512354170359839,-3,-12,-13,4,15,3,6,9
1512354170359839,2,1,-5,7,-16,-1,-2,-3
1512354170360839,-2,3,5,-5,-11,-8,-2,-7
1512354170360839,1,6,11,6,14,8,-2,-2
1512354170381839,-6,-13,-20,-9,-17,-11,-3,-10
1512354170381839,-2,2,4,-5,0,1,-2,-7
1512354170383839,-5,-7,-2,-7,-1,14,2,8
1512354170383839,-3,-2,-12,-3,-14,-24,-7,-9
1512354170395839,1,-3,0,2,-5,31,3,7
1512354170395839,1,0,0,-1,8,10,2,-4
1512354170402839,1,-1,-3,-9,-6,-13,-2,3
1512354170402839,-1,-1,7,7,16,6,0,-5
1512354170419839,1,8,9,-6,9,-25,-4,3
1512354170419839,-5,-4,-3,-10,-26,-13,-2,-10
1512354170420839,-2,-14,-24,-10,-53,-24,-5,4
1512354170420839,-6,-10,-10,25,83,20,-9,-26
1512354170441839,6,9,5,3,4,6,14,26
1512354170441839,-6,-1,7,-17,-14,-8,-6,-16
1512354170443839,1,8,16,3,0,3,-6,0
1512354170443839,8,2,-16,-4,-25,-10,16,40
1512354170456839,-8,-5,-1,1,-4,-34,-6,-18
1512354170456839,0,0,1,-4,-19,-7,-3,0
1512354170462839,-2,3,5,4,22,22,2,-5
1512354170462839,-2,-5,-4,-4,-5,-13,-4,1
1512354170479839,5,6,11,24,17,20,3,0
1512354170479839,-2,-5,-12,-9,-14,-6,-5,2
1512354170480839,4,5,-5,-3,22,6,11,-3
1512354170480839,-2,3,29,14,-2,12,-8,-9
1512354170501839,-1,-2,-28,-5,-1,4,11,33
1512354170501839,-2,-7,-4,-5,-15,-4,-2,-5
1512354170503839,1,13,15,-1,2,-7,-13,-14
1512354170503839,-3,-9,-15,-21,-32,6,10,7
1512354170515839,-5,-18,-7,-3,5,1,-6,-11
1512354170515839,0,2,-1,2,18,19,-3,-6
1512354170524839,2,-1,-7,-5,-18,-34,3,15
1512354170524839,-3,3,-1,6,29,18,0,-19
1512354170539839,6,8,11,-4,-26,8,-9,-8
1512354170539839,-2,-5,-4,-9,-38,-12,3,5
1512354170540839,-3,-9,-6,8,19,8,-1,1
1512354170540839,-1,3,6,-4,27,4,4,3
1512354170561839,-1,-1,-2,-3,3,-3,-6,-7
1512354170561839,3,3,-4,5,19,18,7,9
1512354170563839,1,0,10,-2,-24,-17,-5,-3
1512354170563839,-3,-6,-11,-1,-4,8,0,1
1512354170575839,-2,3,1,-8,-11,-2,2,-8
1512354170575839,-3,-1,2,8,51,5,-4,-3
1512354170584839,7,-1,-8,-7,-22,10,15,43
1512354170584839,2,1,10,19,20,-7,-2,-3
1512354170599839,-3,1,-3,-10,-19,-11,-3,2
1512354170599839,1,1,4,3,9,-8,-5,-6
1512354170600839,-3,-3,10,20,15,9,2,-12
1512354170600839,-2,-3,4,1,-3,-28,-8,15
1512354170621839,1,1,-28,-11,4,19,1,-4
1512354170621839,-1,-13,9,5,-9,-6,6,13
1512354170623839,3,4,-10,12,8,-16,-4,-2
1512354170623839,2,3,8,-11,8,1,2,1
1512354170635839,0,9,28,25,39,-16,-9,-12
1512354170635839,-7,-9,-18,-10,-43,7,-3,0
1512354170644839,-1,-1,6,-35,-3,7,0,-11
1512354170644839,4,10,5,30,39,6,-6,-4
1512354170659839,-5,-3,4,-3,-2,-4,0,-1
1512354170659839,-1,-7,-12,10,13,-8,-5,-8
1512354170660839,1,3,15,15,6,28,6,6
1512354170660839,-7,-10,-29,-14,-12,-6,-4,-8
1512354170681839,-1,0,0,-7,-5,-15,-6,-7
1512354170681839,5,5,7,-2,7,5,7,33
1512354170683839,-9,-6,-6,-5,3,13,-9,-23
1512354170683839,3,-3,-4,-16,-39,-23,-1,1
1512354170695839,-2,-2,8,14,6,13,6,6
1512354170695839,-3,2,-6,3,18,3,-5,-19
1512354170704839,-1,-2,-2,-7,-4,-4,-4,-3
1512354170704839,1,1,4,-10,-20,-4,-1,12
1512354170719839,-1,-5,0,-4,-18,4,-1,-6
1512354170719839,2,0,0,5,29,7,3,-5
1512354170720839,-1,-2,-5,7,11,6,-6,-1
1512354170720839,-4,0,11,-3,-13,-7,-11,-29
1512354170741839,6,-1,-8,5,-1,4,4,20
1512354170741839,7,9,1,-14,-4,-2,11,24
1512354170743839,-4,-6,-3,19,-9,-9,5,12
1512354170743839,0,0,5,0,18,-6,-3,-3
1512354170755839,-4,-5,-5,-11,-9,-7,-4,-7
1512354170755839,2,9,4,-2,9,16,-1,-10
1512354170764839,-4,0,-3,5,19,0,-1,-6
1512354170764839,0,-5,-18,-11,-13,-4,4,1
1512354170779839,-5,-15,0,-9,-26,21,4,3
1512354170779839,-4,-1,-2,7,-4,-24,-8,-8
1512354170780839,2,5,20,6,22,11,-1,-1
1512354170780839,3,-5,-19,0,-12,-6,3,3
1512354170801839,-2,4,-3,-2,12,4,-1,-7
1512354170801839,-5,-5,2,-3,-26,-15,-12,-22
1512354170803839,6,1,-2,11,16,12,8,19
1512354170803839,1,4,12,-15,-26,0,-6,11
1512354170815839,-4,-3,-1,18,19,-2,3,-12
1512354170815839,1,0,5,-2,-12,20,14,22
1512354170824839,1,3,-7,-11,-1,-18,-5,-13
1512354170824839,-2,2,2,-2,-17,9,3,15
1512354170839839,1,-3,3,-4,26,-13,-12,-23
1512354170839839,-2,-7,-17,-7,-11,4,3,4
1512354170840839,3,-6,-10,0,9,18,10,8
1512354170840839,-4,-5,-6,0,5,4,1,-3
1512354170861839,2,9,11,-9,-19,-9,-1,6
1512354170861839,1,9,17,16,19,-3,-3,-7
1512354170863839,0,-4,-10,-16,-20,-21,-2,0
1512354170863839,-4,-5,-6,-11,-25,-9,-1,-3
1512354170875839,4,7,14,26,41,33,7,6
1512354170875839,0,0,-11,-10,-4,4,-1,-7
1512354170884839,-2,-2,-2,0,-17,-13,1,3
1512354170884839,1,3,7,4,3,5,-1,-6
1512354170899839,-4,1,-5,-7,-4,-3,-6,-6
1512354170899839,0,-2,-5,-9,-16,-24,-4,-1
1512354170900839,-3,-2,-1,-1,-21,0,1,-1
1512354170900839,-2,0,3,-7,-8,-23,-1,3
1512354170921839,1,4,-1,9,19,13,-1,-5
1512354170921839,0,-1,6,4,12,-5,-4,0
1512354170923839,0,-1,-1,-17,-19,-16,-4,0
1512354170923839,2,0,-3,-1,-7,21,7,1
1512354170935839,0,1,15,1,-1,-11,-3,3
1512354170935839,2,2,-16,2,13,14,-4,-13
1512354170944839,-4,-6,-12,4,-4,-11,-3,0
1512354170944839,6,4,9,-12,13,3,-1,3
1512354170959839,-1,-3,-18,-3,-14,2,7,9
1512354170959839,0,11,24,-4,5,-7,-6,-16
1512354170960839,-7,-12,-9,9,-3,-8,-7,-6
1512354170960839,3,4,-8,3,25,18,5,-2
1512354170981839,-5,-16,-12,0,-8,-1,-3,4
1512354170981839,-5,-1,1,-13,-12,-13,-2,4
1512354170983839,5,5,-2,2,24,6,0,-7
1512354170983839,-1,0,12,8,16,5,-1,5
1512354170995839,-1,3,3,-2,-11,0,2,-6
1512354170995839,-2,-7,-11,-9,-18,-8,-3,9
1512354171004839,-3,-3,2,-2,3,3,-3,-5
1512354171004839,-3,2,3,9,-2,-3,-2,-9
1512354171019839,-3,-2,0,-5,-1,3,1,-2
1512354171019839,-3,-9,-10,-3,-12,-20,-1,-3
1512354171020839,0,6,7,1,32,14,-1,-6
1512354171020839,10,5,0,6,-25,-12,2,8
1512354171041839,-8,-4,5,-19,-11,-13,-5,-10
1512354171041839,-4,-3,-2,14,-2,22,-2,-10
1512354171043839,0,0,-3,-13,-1,3,3,4
1512354171043839,-7,-11,-14,15,28,-2,-5,-8
1512354171055839,5,4,7,-13,-20,14,7,11
1512354171055839,-3,-2,4,4,5,-3,-3,-7
1512354171064839,5,5,5,-4,-18,-8,3,14
1512354171064839,-5,-1,3,0,10,-2,-1,0
1512354171079839,-3,2,-6,-8,-34,1,-5,-8
1512354171079839,4,-2,-1,2,16,-4,8,23
1512354171080839,-3,2,1,-2,-9,8,-4,-9
1512354171080839,-4,1,-6,8,7,-3,0,3
1512354171101839,5,-14,-23,4,8,-10,1,1
1512354171101839,0,2,5,4,15,11,2,-2
1512354171103839,-6,0,3,1,1,2,-5,-12
1512354171103839,5,9,23,1,-5,11,5,24
1512354171115839,-5,1,-10,3,9,0,-5,-5
1512354171115839,2,-1,6,2,1,-8,1,2
1512354171124839,-5,-5,-8,-1,-6,-5,-3,-6
1512354171124839,0,-2,2,-2,-13,-5,2,-7
1512354171139839,3,8,6,4,-7,-15,1,20
1512354171139839,-4,-20,-17,-10,8,10,-1,-12
1512354171140839,-2,4,7,5,-5,6,1,1
1512354171140839,0,-1,-6,-10,-6,-17,-7,-10
1512354171161839,4,2,12,5,5,-19,5,17
1512354171161839,2,11,9,7,-7,4,-4,-1
1512354171163839,2,-3,-7,-13,-10,19,5,7
1512354171163839,-3,-3,-10,1,9,5,0,-15
1512354171175839,-1,1,9,-5,-1,-18,-3,12
1512354171175839,0,-2,-8,-6,6,7,3,1
1512354171184839,0,-5,-9,4,2,-13,-2,-10
1512354171184839,-7,-3,5,-12,-20,-16,-5,-12
1512354171199839,3,10,23,18,14,29,4,8
1512354171199839,-2,-12,-49,9,26,-9,-3,-2
1512354171200839,2,4,14,-10,-22,-21,0,4
1512354171200839,-2,-4,1,6,26,28,-2,-1
1512354171221839,-5,-3,-7,-1,13,-5,-3,-21
1512354171221839,1,6,14,-6,-18,15,0,9
1512354171223839,-1,0,6,-7,-2,-22,-3,-4
1512354171223839,-2,-5,-13,15,7,18,0,2
1512354171244839,0,-4,3,6,20,1,-4,-11
1512354171244839,3,8,9,-6,-50,-17,-1,-7
1512354171245839,0,-1,-6,7,17,9,3,8
1512354171245839,-2,3,7,-12,-30,-18,-1,4
1512354171259839,-3,-2,-8,-8,-5,-3,-2,-10
1512354171259839,-3,-9,-6,6,-13,-12,-2,1
1512354171260839,-2,2,6,0,36,31,0,-2
1512354171260839,1,-2,11,4,7,-13,-1,3
1512354171281839,1,2,-23,-2,-4,5,7,13
1512354171281839,-2,2,0,-11,-8,-10,-4,-11
1512354171283839,-3,-7,-6,6,-11,-6,-1,-12
1512354171283839,6,-1,0,-7,-11,4,0,23
1512354171304839,-2,-3,11,4,13,-5,-8,-14
1512354171304839,0,5,-1,0,5,10,9,8
1512354171305839,-1,-5,-28,-16,2,-8,-2,-5
1512354171305839,-3,-2,13,5,-7,-7,-2,-13
1512354171319839,4,-2,-3,-5,10,16,3,8
1512354171319839,-3,4,20,3,-7,-11,-9,-7
1512354171320839,-1,-6,-10,5,-20,-1,2,11
1512354171320839,-3,0,-9,-9,-9,4,-2,-12
1512354171341839,2,4,-1,1,-19,-5,3,9
1512354171341839,-5,-12,2,-1,23,4,0,-3
1512354171343839,1,3,3,-1,-5,4,-2,3
1512354171343839,-4,-5,-1,-4,-2,1,-2,0
1512354171364839,-2,-6,-4,-7,-5,-17,-3,-13
1512354171364839,-3,3,2,3,2,18,-4,-11
1512354171365839,2,-6,4,4,6,1,7,35
1512354171365839,1,4,-2,12,1,-2,3,-1
1512354171378839,-3,1,4,-8,-4,14,-3,0
1512354171378839,2,1,2,-8,-10,-7,3,3
1512354171385839,0,2,-3,10,16,13,-1,-5
1512354171385839,-2,-2,-2,2,11,-3,0,-2
1512354171401839,-3,-4,-5,9,24,-2,-2,-11
1512354171401839,0,-1,2,-9,-8,-9,-5,10
1512354171403839,-2,-4,3,-1,-2,2,-6,-12
1512354171403839,3,7,16,-7,-24,-5,4,10
1512354171424839,2,-5,-21,-8,-15,-13,-5,-7
1512354171424839,-2,1,-4,9,16,17,5,2
1512354171425839,-1,2,-2,-4,3,-12,0,-8
1512354171425839,-9,-13,-7,-4,1,2,-3,-4
1512354171438839,3,8,12,1,-9,-5,0,4
1512354171438839,0,4,8,-7,-1,7,-1,-12
1512354171445839,3,-1,-3,4,-13,-2,3,15
1512354171445839,-3,1,-5,11,15,-5,-1,-2
1512354171461839,-2,3,-2,-3,1,6,-4,-5
1512354171461839,2,-2,-1,-5,0,-3,3,10
1512354171463839,-5,-2,1,-2,7,-1,-4,-21
1512354171463839,-2,-1,-8,0,-24,6,0,-7
1512354171484839,3,0,-2,16,28,4,2,13
1512354171484839,-3,-1,-2,1,-1,-4,-4,-12
1512354171485839,-2,0,10,-3,-7,-12,1,3
1512354171485839,1,-6,-16,-13,-10,-8,-3,-2
1512354171498839,-4,3,9,0,-6,3,-4,-17
1512354171498839,-3,-6,-13,-8,-10,4,-1,3
1512354171505839,-2,3,9,-3,-1,-12,-10,-19
1512354171505839,1,3,-3,-7,-5,-4,3,20
1512354171521839,-5,-10,-17,-8,-28,-9,-1,-7
1512354171521839,-1,-11,2,2,3,-12,-7,2
1512354171523839,1,5,1,7,5,5,2,6
1512354171523839,0,-5,-14,-9,-5,-11,1,-2
1512354171544839,3,4,5,-13,-11,26,6,-4
1512354171544839,2,1,1,16,28,12,7,20
1512354171545839,-2,4,7,4,-22,1,-3,-2
1512354171545839,4,-1,2,-1,30,-2,0,3
1512354171558839,-4,0,2,-3,-4,-17,-3,-8
1512354171558839,-2,2,-6,-3,-2,-1,-3,-9
1512354171565839,2,-1,-3,-3,21,4,5,15
1512354171565839,-4,-5,2,14,-22,6,-2,-11
1512354171581839,-5,-14,-3,6,22,-30,-5,6
1512354171581839,0,8,6,-1,1,-2,-8,-18
1512354171583839,3,-2,-6,-7,-18,6,16,24
1512354171583839,-4,-3,-10,-15,-23,-10,-2,-3
1512354171604839,-1,3,3,5,10,4,-3,0
1512354171604839,-1,-2,1,-10,-42,-15,-4,-2
1512354171605839,-3,-7,-7,-2,10,2,-5,-9
1512354171605839,-4,-6,2,1,12,-12,-3,-3
1512354171618839,0,-1,-4,5,14,3,0,6
1512354171618839,1,5,-7,-7,1,-2,2,1
1512354171625839,-2,-5,-7,-4,-16,-3,1,-2
1512354171625839,5,13,32,6,6,7,-2,-6
1512354171641839,-3,-10,-20,-6,-6,-4,1,7
1512354171641839,0,-2,-4,-10,-15,-8,0,-1
1512354171643839,0,-1,2,-11,7,-21,-8,-5
1512354171643839,2,5,3,15,3,25,3,-3
1512354171664839,-1,2,5,-5,-8,2,-4,-11
1512354171664839,2,0,-7,-2,6,5,6,17
1512354171665839,-4,-5,-3,-4,-11,-12,-9,-13
1512354171665839,-3,3,12,-4,11,9,-2,-5
1512354171678839,-1,-3,-5,-2,-25,-6,-5,-7
1512354171678839,-2,-4,5,12,17,3,2,3
1512354171685839,-5,-7,8,5,6,-10,0,-7
1512354171685839,2,2,-19,-10,3,-8,-2,5
1512354171701839,-3,0,3,-4,-26,8,4,-1
1512354171701839,-5,2,10,-2,-7,-7,-5,-13
1512354171703839,1,8,5,4,20,12,2,10
1512354171703839,1,-11,-13,-6,-22,-4,3,5
1512354171724839,2,8,9,-5,3,-7,-1,2
1512354171724839,2,-4,-5,2,10,4,-1,4
1512354171725839,-6,-4,-4,-4,-5,3,-3,-9
1512354171725839,2,8,9,-6,12,6,1,2
1512354171737839,6,-6,-17,8,10,1,1,12
1512354171737839,-1,6,10,10,27,2,0,-7
1512354171746839,2,1,2,28,5,-4,-3,-1
1512354171746839,-2,1,5,2,13,14,1,-7
1512354171761839,0,5,12,-7,-16,12,3,-1
1512354171761839,-2,-26,-29,-9,26,8,3,13
1512354171763839,-2,7,-2,-8,-21,-30,-4,-11
1512354171763839,-1,-5,2,11,27,3,2,13
1512354171784839,-1,-1,3,-3,-27,-7,-2,-3
1512354171784839,0,4,8,8,36,12,5,-1
1512354171785839,-1,-9,-16,2,-5,-7,-3,-3
1512354171785839,-2,-2,0,-7,21,-7,-1,5
1512354171797839,-5,-1,-4,-15,-15,-7,-2,-3
1512354171797839,2,-1,6,31,7,-1,2,17
1512354171806839,2,-1,4,-6,4,8,-1,3
1512354171806839,-1,2,-11,0,-20,-12,-2,-14
1512354171821839,-2,-2,18,-1,32,5,4,22
1512354171821839,2,4,6,-3,-20,-16,2,-7
1512354171823839,-1,2,-7,-2,-1,23,1,-5
1512354171823839,-1,-4,-4,1,-6,3,-4,-9
1512354171844839,-5,0,-7,6,8,-5,-2,-1
1512354171844839,4,6,9,-3,-19,-8,2,8
1512354171845839,2,4,-4,-12,-1,24,5,1
1512354171845839,-5,-14,-11,7,-2,-10,-3,-1
1512354171857839,1,3,3,-5,-15,6,-1,-4
1512354171857839,-6,-3,-4,9,13,-1,-7,-18
1512354171866839,6,3,11,6,14,6,5,17
1512354171866839,0,-1,-9,-6,-1,-2,-4,-8
1512354171881839,-2,4,24,9,21,5,-3,-5
1512354171881839,0,-15,-38,-22,-61,-6,10,8
1512354171883839,-5,3,7,1,13,4,-6,-13
1512354171883839,-1,10,17,-4,-13,-9,-1,-2
1512354171904839,0,-13,-22,4,44,29,8,3
1512354171904839,0,-3,5,-16,-18,-18,-5,1
1512354171905839,-1,-7,-6,-3,-7,-17,-2,-4
1512354171905839,0,-1,1,-3,-9,29,4,4
1512354171917839,-1,7,6,-17,-26,-6,0,-8
1512354171917839,-2,-2,2,5,22,8,-6,-13
1512354171926839,0,-3,-10,-2,21,3,-4,5
1512354171926839,-3,0,5,-2,-7,-13,2,2
1512354171941839,2,-4,-10,-5,1,-7,4,3
1512354171941839,2,3,2,10,9,5,-3,0
1512354171943839,-3,2,10,1,-22,-2,2,-3
1512354171943839,5,-1,-7,-7,3,0,1,4
1512354171964839,-4,-3,-5,6,3,-14,-2,-11
1512354171964839,1,3,6,-4,-20,11,6,20
1512354171965839,0,3,0,-2,10,-9,-1,-11
1512354171965839,-3,1,2,3,-3,-1,-6,-7
1512354171977839,-5,-6,-5,2,-12,10,1,0
1512354171977839,-3,3,6,3,14,1,-4,-9
1512354171986839,-1,-3,-11,-4,-12,-2,1,7
1512354171986839,-1,-2,11,2,12,0,0,3
1512354172001839,0,-1,-21,-5,-31,-13,-5,2
1512354172001839,-1,10,21,-3,12,4,0,-3
1512354172003839,-3,-10,-9,-10,-24,-6,-2,2
1512354172003839,-2,-3,-6,0,24,20,-3,-4
1512354172024839,3,2,12,3,7,-10,-3,3
1512354172024839,-3,1,0,-5,-9,-10,-3,-5
1512354172025839,1,5,8,-6,-25,3,-1,0
1512354172025839,-1,-2,-21,10,10,-15,-5,-7
1512354172037839,2,-3,10,0,-2,1,4,15
1512354172037839,-4,-1,-5,-5,-19,-19,-7,-22
1512354172046839,5,2,9,4,18,25,5,23
1512354172046839,3,3,-1,-2,-15,-12,2,0
1512354172061839,0,1,-3,3,5,-3,-4,-7
1512354172061839,1,-2,-6,-4,-25,-5,-2,-1
1512354172063839,-3,-2,5,4,-2,-9,1,-4
1512354172063839,-1,0,-1,-9,-3,11,5,11
1512354172084839,-5,-1,-3,7,10,-15,-6,-9
1512354172084839,-2,-9,1,-4,12,33,2,3
1512354172085839,-1,4,5,-2,-10,-17,-6,-11
1512354172085839,-2,-2,-5,3,-1,-5,1,7
1512354172097839,2,-3,-4,-15,-19,13,-4,-5
1512354172097839,2,4,12,7,13,4,1,1
1512354172106839,-4,-8,-20,-3,6,1,0,-3
1512354172106839,-3,-5,0,2,0,-7,-5,-4
1512354172121839,-1,3,3,-1,2,2,1,-4
1512354172121839,3,5,4,-2,6,-3,4,11
1512354172123839,-3,-6,-3,-2,-4,8,-1,-8
1512354172123839,-2,1,5,-1,3,-3,-5,-8
1512354172144839,5,1,-2,4,1,-4,3,24
1512354172144839,-2,-5,-16,-10,-10,-7,2,2
1512354172145839,1,7,3,13,2,0,-9,-9
1512354172145839,5,-7,-5,-2,4,-2,6,9
1512354172166839,-3,-2,5,-2,28,9,-1,-1
1512354172166839,-2,-1,0,11,-4,6,-1,-15
1512354172168839,-2,2,-3,-6,7,-2,2,10
1512354172168839,-2,1,4,-4,-13,3,1,-7
1512354172181839,0,1,14,3,-8,-12,-2,7
1512354172181839,-2,-12,-34,1,4,-12,0,11
1512354172183839,0,-1,5,-7,-8,0,-2,-7
1512354172183839,-1,2,2,0,-1,3,4,0
1512354172204839,-5,0,7,1,-10,-14,-1,-4
1512354172204839,-1,-2,3,-7,-2,8,-6,-15
1512354172205839,0,-8,-4,-3,-1,-7,-4,5
1512354172205839,-1,4,2,11,5,-8,4,5
1512354172226839,0,1,-12,-11,-19,5,3,-4
1512354172226839,0,5,7,8,22,14,5,2
1512354172228839,-1,-5,-5,7,8,3,-1,-2
1512354172228839,-1,-1,2,-4,-6,4,-2,-4
1512354172241839,0,-2,-6,-3,-8,-3,-4,-9
1512354172241839,1,1,2,-8,-7,-1,2,12
1512354172243839,-5,-2,5,1,-4,-10,-1,2
1512354172243839,1,1,-5,5,6,-7,-1,8
1512354172264839,-3,-2,-1,-5,-2,2,-2,-13
1512354172264839,-2,2,3,-20,-24,-32,-6,-9
1512354172265839,3,5,4,21,17,51,8,2
1512354172265839,-6,-9,-8,-14,-10,-14,-4,4
1512354172286839,6,3,14,15,1,-7,-6,-12
1512354172286839,-1,-4,-10,-22,5,12,-5,-5
1512354172288839,0,0,-4,8,-9,-6,7,15
1512354172288839,-3,-9,-12,8,19,5,-4,-5
1512354172301839,-2,0,21,6,2,9,1,-1
1512354172301839,-1,-2,-20,-2,15,-18,-1,4
1512354172303839,-1,0,19,-13,-38,-19,-4,-15
1512354172303839,2,6,-1,5,5,23,2,16
1512354172324839,1,2,-4,-25,6,1,5,8
1512354172324839,-2,5,9,13,-1,9,0,0
1512354172325839,-1,1,-4,-8,38,-20,-6,-6
1512354172325839,-2,-3,5,35,0,7,2,0
1512354172346839,1,-12,-39,-13,-64,-18,-2,3
1512354172346839,3,7,7,3,34,5,-3,-3
1512354172348839,-4,-13,-11,-12,-14,-9,-4,3
1512354172348839,-3,2,15,-7,-11,-2,4,7
1512354172360839,-1,3,-2,6,-5,-2,1,2
1512354172360839,-4,2,6,4,-10,22,0,-5
1512354172369839,7,6,7,0,2,0,0,3
1512354172369839,3,-1,-5,-15,-7,-6,-3,-2
1512354172384839,-4,-1,-2,8,23,-3,5,1
1512354172384839,0,2,2,-3,-1,-4,0,17
1512354172385839,1,-6,2,16,31,-1,4,5
1512354172385839,-2,3,10,-17,-32,-13,-14,-32
1512354172406839,4,-3,0,6,51,34,8,28
1512354172406839,-7,-13,-21,-6,-43,-23,-1,-10
1512354172408839,-1,8,-11,2,1,-12,-4,-5
1512354172408839,-3,3,10,-2,-16,6,-3,-8
1512354172420839,-4,-3,-10,0,11,-9,-5,-2
1512354172420839,-3,3,26,10,-16,-1,2,2
1512354172427839,1,-1,-5,-13,-12,-2,-2,-3
1512354172427839,2,2,-8,10,38,3,5,10
1512354172444839,-8,3,6,-1,7,6,-5,-16
1512354172444839,0,-11,-21,-8,-15,-1,-3,1
1512354172445839,-3,0,2,10,15,4,2,-5
1512354172445839,7,10,8,-8,-5,7,3,3
1512354172466839,-4,-6,-13,2,-13,-3,-6,-6
1512354172466839,1,-4,2,2,28,-5,-1,-1
1512354172468839,-4,-3,-3,-7,-9,-2,-4,0
1512354172468839,-2,2,15,-4,-13,-16,-1,2
1512354172480839,2,2,-11,-1,-3,41,11,4
1512354172480839,1,0,0,-6,-3,-10,-4,-2
1512354172487839,2,0,6,21,6,6,0,-5
1512354172487839,-1,-2,-8,-8,-3,-2,3,14
1512354172504839,0,3,6,-11,-2,1,-3,-7
1512354172504839,-1,-1,2,3,0,-3,3,9
1512354172505839,0,3,-5,-11,-7,14,5,-7
1512354172505839,-2,-3,0,2,13,-19,-10,-13
1512354172526839,1,-5,-5,7,-17,-11,5,28
1512354172526839,-3,-5,1,10,-15,-3,5,-2
1512354172528839,-2,4,26,0,34,20,-5,-6
1512354172528839,-4,-6,-35,-20,-29,-16,-1,2
1512354172540839,-2,-1,7,2,-2,9,-1,-18
1512354172540839,0,3,3,6,36,3,0,3
1512354172547839,4,9,14,2,-7,-6,3,7
1512354172547839,-8,-18,-24,-8,-11,-8,-2,-8
1512354172564839,2,0,0,-7,-3,0,-3,-3
1512354172564839,0,3,6,0,3,4,-1,-2
1512354172565839,1,2,-12,-6,-24,-4,0,0
1512354172565839,0,3,8,11,30,0,1,-6
1512354172586839,0,-5,-3,6,-4,-8,-4,12
1512354172586839,-1,2,-1,-11,-13,-8,4,-2
1512354172588839,-1,3,7,4,-3,10,-1,-4
1512354172588839,1,-1,-5,-6,-6,13,0,1
1512354172600839,-3,-1,-2,-5,3,-11,-4,-18
1512354172600839,3,4,7,17,11,17,1,14
1512354172609839,-6,-6,-16,-13,-6,-30,-3,1
1512354172609839,0,-3,-3,13,15,4,-5,-13
1512354172624839,-2,0,2,0,14,2,-1,-2
1512354172624839,-3,-1,8,-12,-22,7,-2,-1
1512354172625839,-1,-1,-1,-1,-9,-3,2,-5
1512354172625839,-2,-1,1,-10,-8,7,-2,-1
1512354172646839,3,3,-3,1,2,-22,-2,0
1512354172646839,0,-3,-3,2,53,13,-5,-8
1512354172648839,-6,-16,-19,-9,-21,-24,-4,1
1512354172648839,4,10,13,5,5,43,5,-4
1512354172660839,-3,-6,-9,-6,8,1,-3,-3
1512354172660839,-5,-6,-6,0,-19,-17,1,-7
1512354172669839,-3,-4,-9,-8,-22,13,-4,-6
1512354172669839,1,2,4,4,25,-4,4,15
1512354172683839,4,6,12,7,2,-13,8,21
1512354172683839,-2,3,-7,-1,-8,3,0,-7
1512354172685839,2,1,-3,-5,2,-4,-3,-4
1512354172685839,-3,0,-2,-2,-18,-6,-2,-4
1512354172706839,-2,2,5,3,-15,-13,-3,-8
1512354172706839,-3,-5,-6,-4,-5,4,-1,-7
1512354172708839,-2,-2,-4,11,24,13,2,11
1512354172708839,-6,0,11,-3,-10,-5,1,0
1512354172720839,0,-6,-6,-3,0,-22,-8,-10
1512354172720839,0,-4,-3,-1,2,-2,1,5
1512354172729839,2,3,1,-6,0,4,1,-8
1512354172729839,4,5,3,8,-23,-5,0,4
1512354172743839,-7,-15,-5,-6,-2,1,0,0
1512354172743839,2,4,-1,6,-2,-2,-4,-3
1512354172745839,1,6,-2,-5,-5,2,-2,-1
1512354172745839,0,-5,19,4,17,-5,0,0
1512354172766839,-4,4,-10,-3,-7,-5,-3,-5
1512354172766839,-6,-9,-14,-8,-3,6,-4,-19
1512354172768839,0,-2,6,0,-12,-3,9,25
1512354172768839,1,-2,-10,-14,-10,-17,0,-6
1512354172780839,1,3,0,7,18,28,0,1
1512354172780839,-2,0,14,1,-11,-18,-2,2
1512354172789839,0,0,-3,1,6,-2,-1,-3
1512354172789839,-1,-2,-7,-9,-27,11,-1,0
1512354172803839,1,-1,1,-6,16,-1,1,2
1512354172803839,2,3,0,5,-11,2,-1,1
1512354172805839,-1,-1,3,5,9,-16,-2,-2
1512354172805839,-3,-4,-8,2,-4,3,-1,-2
1512354172826839,4,2,3,2,7,17,4,3
1512354172826839,-1,0,2,-1,9,-17,2,5
1512354172828839,-2,-3,-4,-10,-15,-4,-3,-2
1512354172828839,-1,-1,0,5,8,-8,-5,-7
1512354172840839,0,0,1,5,-4,-7,0,-5
1512354172840839,1,-3,-5,-7,-28,10,6,15
1512354172849839,-2,1,16,-1,19,-6,-3,-11
1512354172849839,0,-2,-17,-5,1,7,-2,-2
1512354172863839,-5,1,1,-3,-32,-9,-10,-16
1512354172863839,3,0,-2,-3,-14,-1,7,30
1512354172870839,-2,-2,-5,-5,-7,-9,-6,4
1512354172870839,-1,1,9,12,24,34,5,-12
1512354172886839,1,3,4,-3,-26,8,-2,-16
1512354172886839,2,1,-2,-8,-3,-1,-3,7
1512354172888839,-2,1,-1,4,6,-5,-3,-2
1512354172888839,-2,-3,-10,-7,7,-19,-1,1
1512354172900839,0,0,2,-1,-7,-4,5,7
1512354172900839,-2,-2,0,4,4,-3,-5,-17
1512354172909839,2,-1,-6,-4,-4,9,7,12
1512354172909839,-1,-2,-2,7,2,-12,-4,2
1512354172924839,-2,0,3,5,5,14,0,1
1512354172924839,-3,-3,0,-11,-19,-9,-3,-11
1512354172926839,-2,-1,2,9,6,9,0,-2
1512354172926839,-3,-4,-8,-6,-4,-10,2,2
1512354172946839,-2,0,-4,0,6,-2,-3,-13
1512354172946839,8,7,10,1,14,-6,4,25
1512354172948839,-2,-11,-21,-4,0,-6,-5,-15
1512354172948839,-2,2,6,9,13,1,1,11
1512354172960839,5,2,2,-7,-13,-7,4,16
1512354172960839,-1,7,5,9,13,4,0,-9
1512354172969839,1,5,7,0,7,20,-1,-7
1512354172969839,-4,-16,-15,-4,-21,-13,-5,0
1512354172983839,-2,-1,9,-1,23,2,0,6
1512354172983839,-2,0,-12,-3,-4,-10,-5,-9
1512354172985839,4,1,-7,-4,-3,-2,4,6
1512354172985839,0,3,5,-7,-23,24,0,-5
1512354173006839,-2,-2,-9,-1,18,-16,2,6
1512354173006839,4,3,15,15,0,6,3,12
1512354173008839,-6,-9,-12,-3,-19,-6,-4,-6
1512354173008839,-1,5,1,-7,12,17,4,3
1512354173020839,-5,-5,-1,1,7,-17,-12,-35
1512354173020839,3,0,-1,-2,-7,0,-1,6
1512354173029839,1,0,2,-4,-18,-20,0,10
1512354173029839,-3,3,11,-1,3,-13,-8,-16
1512354173043839,-6,-13,-13,1,-3,12,-2,-1
1512354173043839,-3,-3,-3,-3,-6,-4,5,-2
1512354173050839,2,2,2,1,10,30,0,3
1512354173050839,1,3,4,0,-1,-17,0,-1
1512354173066839,-3,1,2,1,3,4,0,7
1512354173066839,-4,-5,-9,-8,-4,-2,-5,-11
1512354173068839,0,2,2,-4,7,0,-2,-2
1512354173068839,2,1,-2,11,26,0,4,8
1512354173080839,1,1,-1,-2,-23,-14,4,12
1512354173080839,2,-1,0,5,27,25,-5,-4
1512354173089839,-1,2,-3,-5,-10,-7,-4,-12
1512354173089839,-3,-3,-6,-9,-5,2,3,3
1512354173103839,0,0,0,9,-5,-6,-3,-1
1512354173103839,1,0,0,-6,2,3,0,16
1512354173110839,0,1,7,8,-5,2,0,-9
1512354173110839,-2,-6,-5,1,-11,-14,-6,0
1512354173126839,0,-3,-6,-7,5,34,9,15
1512354173126839,-3,-1,1,9,7,-8,-8,-22
1512354173128839,-2,-4,-3,-9,-5,-11,3,1
1512354173128839,3,4,0,10,4,9,4,3
1512354173148839,0,3,6,-2,-14,-16,-1,-4
1512354173148839,-3,-2,-2,-5,8,16,-4,-10
1512354173150839,2,1,4,15,24,4,6,14
1512354173150839,-1,-1,-3,-11,-11,-8,-3,-7
1512354173163839,0,1,1,4,8,-18,-4,-1
1512354173163839,-1,-4,-5,-2,-9,21,3,1
1512354173170839,-2,-1,1,-2,5,-6,-2,-4
1512354173170839,0,-2,12,-1,-3,10,1,5
1512354173186839,-1,-2,-12,-2,-4,3,1,5
1512354173186839,-2,4,12,-4,13,-7,0,-7
1512354173188839,-1,-3,-10,-12,-37,-4,-4,-2
1512354173188839,-2,-3,-7,-6,5,-8,1,-2
1512354173209839,2,4,13,20,-2,3,0,-6
1512354173209839,1,5,1,-1,-8,-12,-1,-1
1512354173210839,-1,-1,1,1,21,17,5,5
1512354173210839,-2,5,0,-13,-18,-10,-6,-19
1512354173223839,4,2,0,5,9,2,2,28
1512354173223839,-2,-4,-5,14,2,-12,1,-4
1512354173230839,1,4,9,8,-12,5,0,1
1512354173230839,1,-2,-10,-12,-14,-6,0,-3
1512354173246839,0,1,-1,-12,3,38,6,0
1512354173246839,-1,-1,-4,-5,-7,-13,3,-1
1512354173248839,-2,-6,-5,-1,5,-6,-7,-2
1512354173248839,3,5,13,9,4,-2,-4,-10
1512354173268839,-6,-10,-19,-9,1,2,0,11
1512354173268839,-1,0,-1,-5,-9,0,0,-13
1512354173270839,2,1,6,11,13,5,-1,1
1512354173270839,1,1,-3,1,9,-3,0,-4
1512354173283839,1,4,6,-4,-1,-6,-2,14
1512354173283839,-3,-6,-5,-4,-4,-14,-7,-11
1512354173290839,2,5,-10,-9,10,-4,14,21
1512354173290839,-3,-12,0,5,-15,14,-3,-1
1512354173306839,1,3,1,-1,16,-16,-5,-12
1512354173306839,0,2,0,-4,-4,6,3,-3
1512354173308839,-2,-8,-9,-3,6,2,1,8
1512354173308839,-1,0,1,2,0,3,3,8
1512354173328839,0,-1,0,-9,-1,-5,-2,-13
1512354173328839,0,0,5,12,1,-4,6,10
1512354173330839,-2,-2,-3,-9,-7,-1,-8,-19
1512354173330839,-7,-2,-8,-1,9,-18,-4,2
1512354173343839,6,-2,2,16,6,3,3,3
1512354173343839,-3,-3,-7,-2,6,1,-4,-4
1512354173350839,0,2,4,-6,-22,0,5,5
1512354173350839,4,3,1,3,11,7,0,6
1512354173366839,-7,2,7,0,-16,-7,-3,-21
1512354173366839,-3,-12,-14,-8,-11,-17,-5,16
1512354173368839,-3,1,12,16,39,13,-8,-9
1512354173368839,-3,-6,-13,-15,-43,-9,2,-2
1512354173388839,2,6,13,4,9,-27,1,12
1512354173388839,-2,-3,-8,1,16,26,0,-16
1512354173390839,3,1,7,6,-8,-8,2,10
1512354173390839,-1,2,1,4,21,4,-2,-7
1512354173403839,0,-4,10,-15,-24,20,4,14
1512354173403839,-4,-7,-26,3,1,-5,-5,-10
1512354173410839,1,-3,-5,8,4,10,1,1
1512354173410839,1,6,7,3,6,-12,2,-4
1512354173426839,-2,-3,-3,1,1,-1,2,-12
1512354173426839,-1,6,13,-14,-23,-4,-10,-3
1512354173428839,0,2,6,8,15,21,-1,-7
1512354173428839,3,-5,-12,2,-5,-6,-2,16
1512354173448839,-7,1,6,-1,-11,-3,-5,-32
1512354173448839,5,2,10,5,6,2,7,29
1512354173450839,1,2,-10,-11,-11,-27,-4,-5
1512354173450839,-1,4,3,12,6,5,-5,-9
1512354173463839,-3,-9,-20,-11,-20,-19,-5,-1
1512354173463839,2,7,8,5,15,-1,2,1
1512354173477839,-2,-1,-4,-9,-11,-1,0,-7
1512354173477839,2,0,9,1,18,0,0,16
1512354173486839,3,11,30,4,9,17,0,-8
1512354173486839,2,-8,-40,-1,9,15,5,14
1512354173488839,0,5,17,0,-17,-13,0,1
1512354173488839,-3,-3,-6,-12,6,-1,-1,-3
1512354173509839,-6,-5,-5,12,26,20,-5,-7
1512354173509839,2,8,21,-4,-3,-2,2,6
1512354173510839,-6,-14,-11,-5,-7,-4,0,-12
1512354173510839,5,5,-1,-9,-5,8,-3,5
1512354173522839,0,-2,-4,-5,0,-9,-1,-2
1512354173522839,3,2,6,-3,-13,3,1,16
1512354173531839,-2,0,-13,4,4,1,-7,-6
1512354173531839,-2,-3,-4,-4,-24,-25,4,-4
1512354173546839,0,-3,-8,-1,8,-1,-8,-2
1512354173546839,-5,-4,17,3,5,-5,-3,-15
1512354173548839,2,0,-10,3,2,19,5,2
1512354173548839,-3,0,6,-1,-8,0,-4,-15
1512354173569839,0,-6,-13,1,14,-16,0,19
1512354173569839,-3,-3,0,-3,4,-12,-4,-10
1512354173570839,-3,2,4,-8,0,15,-4,-4
1512354173570839,0,0,5,9,12,13,5,4
1512354173582839,4,2,5,0,5,-2,4,6
1512354173582839,-1,2,7,-7,-3,-5,-3,-7
1512354173591839,-2,-9,-12,1,-6,-18,0,-1
1512354173591839,-2,0,-3,1,11,15,-3,-7
1512354173606839,4,4,-8,-1,3,-6,4,20
1512354173606839,1,7,22,-1,-23,12,-1,-10
1512354173608839,-6,-11,-15,3,-16,-27,-9,-17
1512354173608839,6,4,-3,-2,0,-9,7,32
1512354173628839,-2,3,-3,1,-4,-5,-5,-14
1512354173628839,-3,-5,-12,-12,-11,9,3,3
1512354173630839,1,4,0,-7,0,-3,-1,5
1512354173630839,-2,-4,5,0,12,-5,-3,-11
1512354173642839,3,3,4,6,-4,2,-2,-8
1512354173642839,1,2,-6,3,2,-21,-3,-6
1512354173651839,-2,-1,5,-5,-5,-2,-3,6
1512354173651839,-3,-5,-5,1,5,-1,-7,-15
1512354173666839,2,4,12,3,-3,14,5,24
1512354173666839,-3,-7,-16,-7,-13,-8,5,-1
1512354173668839,6,9,10,5,11,1,-1,3
1512354173668839,-3,-3,32,11,-6,-3,-3,-2
1512354173688839,-4,-2,-10,-4,-17,0,0,6
1512354173688839,0,-4,-15,-4,2,1,0,-2
1512354173690839,-4,-5,-9,-6,3,10,4,1
1512354173690839,5,10,-3,-13,-26,3,4,6
1512354173702839,-4,-6,-2,2,7,8,-1,3
1512354173702839,-5,-8,3,2,-3,-8,-9,-12
1512354173711839,1,6,5,2,11,-6,-7,-7
1512354173711839,0,0,-2,5,8,24,4,10
1512354173726839,0,-8,-6,-10,-15,-11,0,2
1512354173726839,3,5,-13,1,5,-1,3,6
1512354173728839,-3,-3,2,-6,1,18,0,-2
1512354173728839,0,-7,-1,6,1,-13,-2,5
1512354173748839,-4,0,-4,-1,-3,1,-2,-11
1512354173748839,7,9,4,11,18,3,-1,13
1512354173750839,0,1,11,-3,-6,-13,-5,2
1512354173750839,-2,-1,-2,1,19,-5,1,-2
1512354173762839,-4,-14,-27,-10,8,22,1,0
1512354173762839,-2,0,25,2,-1,-13,-4,-6
1512354173771839,0,1,-38,-3,-9,4,4,5
1512354173771839,-5,-1,1,-3,-6,22,-5,-17
1512354173786839,3,2,13,-8,-13,-29,-2,19
1512354173786839,-2,-4,-2,8,3,6,-1,-9
1512354173788839,1,-2,14,-3,-1,-4,3,10
1512354173788839,-3,2,-8,-8,-15,-11,-4,-14
1512354173809839,-4,0,-10,-7,-6,-2,-2,-19
1512354173809839,-2,-3,6,9,-1,19,3,0
1512354173810839,3,0,1,-8,-14,-17,-1,0
1512354173810839,-2,-10,-6,11,10,6,-2,2
1512354173822839,-2,0,-3,-8,2,1,1,-9
1512354173822839,0,4,8,5,5,-5,-1,-1
1512354173831839,-8,-14,-12,-6,-33,-1,-5,-2
1512354173831839,-2,-10,-14,-5,-33,-19,-1,3
1512354173846839,0,6,18,15,19,3,-2,-2
1512354173846839,-2,-1,-12,-9,-2,19,4,3
1512354173848839,-1,-5,2,3,10,-16,-6,-6
1512354173848839,3,11,9,0,3,10,2,6
1512354173868839,-7,-10,-9,-9,-11,-7,-2,-18
1512354173868839,2,3,18,13,12,-14,-5,17
1512354173870839,-1,1,-6,-4,-3,8,10,6
1512354173870839,2,3,-1,-9,3,-7,-4,2
1512354173882839,-2,6,15,12,23,3,-1,-14
1512354173882839,-1,4,-10,-12,-23,19,-1,-5
1512354173891839,-2,-10,-9,-1,4,-22,1,13
1512354173891839,-1,-3,7,-6,0,36,6,-1
1512354173906839,-1,-6,-26,-3,-5,-11,-7,-9
1512354173906839,0,-3,-1,5,-4,-9,-2,-1
1512354173908839,0,14,21,1,0,-2,2,0
1512354173908839,-4,-9,-8,-1,-6,-29,-4,-7
1512354173928839,-1,-5,11,1,-4,1,-2,4
1512354173928839,-1,-3,-18,-11,5,-3,3,0
1512354173930839,0,-1,5,2,-1,-1,-1,-8
1512354173930839,-2,0,-3,-3,9,-3,0,7
1512354173942839,7,11,15,13,8,5,-2,-2
1512354173942839,-5,-10,-14,-6,0,-6,0,-11
1512354173951839,-1,4,7,-1,11,14,-2,3
1512354173951839,-2,-3,-8,-4,-15,-22,0,-7
1512354173965839,5,-6,-7,-1,6,11,10,27
1512354173965839,-2,3,8,-8,-2,3,-7,-18
1512354173972839,0,2,1,3,-5,7,-5,-8
1512354173972839,-1,3,14,0,4,-11,-3,3
1512354173989839,-4,-6,-24,-7,-3,12,6,-4
1512354173989839,-3,-5,4,5,-3,-16,0,3
1512354173990839,-2,1,3,0,4,9,-2,-7
1512354173990839,1,1,-5,-1,4,3,0,-2
1512354174002839,-5,-2,1,-8,-7,-10,-2,-6
1512354174002839,0,-6,-8,10,13,-7,-10,-2
1512354174011839,1,-2,-3,-5,4,33,5,3
1512354174011839,2,2,2,3,5,25,4,2
1512354174025839,-1,6,10,-2,-2,-11,-7,-5
1512354174025839,2,3,0,-12,-13,7,2,-11
1512354174032839,-2,-4,-1,9,-4,-13,2,17
1512354174032839,-6,-4,-11,-5,-3,-1,-1,-7
1512354174048839,2,1,2,3,5,10,-6,3
1512354174048839,-4,-4,1,-4,-2,-8,2,4
1512354174050839,0,1,19,7,1,-22,-5,-12
1512354174050839,1,-6,-29,-4,3,20,-1,-6
1512354174071839,-1,-4,3,-1,-16,-28,7,16
1512354174071839,0,0,-5,10,13,9,-1,-3
1512354174073839,6,16,17,3,11,21,7,-2
1512354174073839,-5,-9,-16,-8,-10,-16,-4,-1
1512354174085839,-2,1,11,-1,1,20,-2,-9
1512354174085839,-1,-8,-11,-2,-13,-7,-6,-1
1512354174092839,4,6,10,-6,-4,0,4,9
1512354174092839,3,4,-10,-1,1,-5,-1,7
1512354174109839,1,1,-6,4,0,9,2,-3
1512354174109839,-3,3,12,-8,-17,-1,6,9
1512354174110839,-4,-8,-5,4,-8,-3,-6,-15
1512354174110839,-1,5,15,2,-4,-10,-4,-6
1512354174131839,-2,-6,-16,-15,-13,-5,-1,3
1512354174131839,3,11,6,18,15,-3,-1,-2
1512354174133839,-6,-9,-11,-1,8,1,-7,-12
1512354174133839,-7,-3,2,2,9,16,15,22
1512354174145839,2,-4,-1,-1,0,-9,-2,13
1512354174145839,11,36,9,-6,-2,4,-4,-11
1512354174152839,-4,-11,1,-3,-13,-18,-3,5
1512354174152839,-11,-21,1,10,21,34,0,-10
1512354174169839,-11,-11,-10,-9,-5,-5,-4,-7
1512354174169839,-5,-36,-18,-5,6,-9,-2,2
1512354174170839,7,14,-9,7,0,-3,1,-2
1512354174170839,6,-6,1,1,10,-17,-4,-3
1512354174191839,17,41,18,7,7,18,0,1
1512354174191839,-3,34,13,-5,-12,-1,-2,-1
1512354174193839,-21,-51,9,-1,-11,0,-9,-17
1512354174193839,-8,-40,-42,-2,4,-29,7,11
1512354174206839,3,7,-10,-2,-1,-11,-3,-12
1512354174206839,9,17,28,-4,-5,-5,0,6
1512354174212839,4,19,-6,6,21,12,4,4
1512354174212839,7,29,32,5,-9,-4,-6,-5
1512354174228839,-6,-20,-21,-3,-5,1,3,2
1512354174228839,-13,-26,-18,-7,12,-1,3,1
1512354174230839,3,6,8,2,-5,8,0,1
1512354174230839,4,10,10,7,10,7,-3,-2
1512354174251839,-2,-2,-3,6,7,-11,-3,-6
1512354174251839,-6,-12,-7,-2,8,15,-1,-5
1512354174253839,2,0,-3,-3,9,-20,6,16
1512354174253839,2,7,-12,-3,-26,6,-1,-2
1512354174266839,-3,2,17,3,15,6,4,0
1512354174266839,-3,-13,-18,-5,-8,-9,-3,-2
1512354174272839,2,1,5,5,13,-2,-1,-1
1512354174272839,3,12,13,-2,-7,-6,-1,0
1512354174288839,-3,-4,3,5,10,-16,-6,-1
1512354174288839,-1,-8,-2,4,2,13,3,3
1512354174290839,-1,4,-6,-4,-3,-2,0,-1
1512354174290839,1,4,4,-7,0,-11,-2,-1
1512354174311839,-6,-8,-7,1,-2,3,-7,-4
1512354174311839,0,-3,-5,-3,-2,-8,-5,-13
1512354174313839,3,2,-5,0,2,1,7,33
1512354174313839,0,1,2,5,3,2,-4,-8
1512354174325839,1,1,12,-7,-15,-14,-2,3
1512354174325839,2,2,-3,-5,-37,-16,1,5
1512354174334839,-5,-7,-10,0,23,4,-5,-11
1512354174334839,-1,0,7,-1,-14,2,5,11
1512354174348839,-4,1,2,-2,-10,2,2,-6
1512354174348839,1,1,8,-4,-3,6,3,10
1512354174350839,-1,-6,-20,2,-21,-14,-1,-7
1512354174350839,0,4,7,1,16,17,-4,-8
1512354174371839,0,0,5,0,14,7,5,7
1512354174371839,2,0,12,0,19,8,4,2
1512354174373839,-2,4,-18,-14,-4,7,-2,-20
1512354174373839,3,-11,-1,13,8,-10,4,31
1512354174385839,-1,1,14,5,-1,2,-1,-8
1512354174385839,-1,-4,-16,-2,-15,1,-3,-2
1512354174394839,-1,8,10,-9,-5,-1,-1,-10
1512354174394839,-3,-4,-10,-11,-2,1,-5,1
1512354174409839,3,-2,-5,-6,-11,-6,4,3
1512354174409839,-5,-1,5,8,-6,-9,-7,-9
1512354174410839,0,-1,3,0,-2,17,1,5
1512354174410839,-2,1,-3,-12,-18,-13,-3,-9
1512354174431839,1,-5,-10,-1,8,18,3,0
1512354174431839,1,-4,-7,-8,-9,-17,-6,10
1512354174432839,0,0,0,8,2,0,0,0
1512354174432839,-1,-1,8,1,-2,-10,-7,-7
1512354174445839,0,-1,5,-2,-12,-5,-9,-5
1512354174445839,1,6,-18,2,10,4,6,-7
1512354174452839,-2,-9,1,-1,-16,5,0,-3
1512354174452839,0,2,-1,-6,4,-8,1,5
1512354174469839,-2,2,-3,2,-8,-6,-5,-14
1512354174469839,1,3,27,0,2,-1,5,10
1512354174470839,-2,-12,-28,2,3,-6,0,-2
1512354174470839,-2,1,0,-1,-6,12,-2,-17
1512354174491839,1,-4,-6,-8,-9,-16,3,11
1512354174491839,-2,-7,1,-1,5,18,2,-4
1512354174492839,5,12,6,6,26,-6,0,11
1512354174492839,-3,-13,-6,0,-34,-6,-1,-7
1512354174505839,0,4,-4,4,37,18,3,-1
1512354174505839,1,1,3,6,7,1,-6,-3
1512354174512839,-2,4,7,-1,-4,2,0,-5
1512354174512839,0,-5,-15,-5,0,-7,-1,2
1512354174528839,-1,-1,-8,-1,-8,-19,1,3
1512354174528839,2,2,-2,-5,-17,1,4,10
1512354174530839,1,-1,7,-5,-1,6,0,3
1512354174530839,-2,3,7,0,4,15,-6,-19
1512354174551839,5,1,7,2,-4,6,2,29
1512354174551839,-2,0,-4,-1,-2,-8,2,-2
1512354174553839,-1,-1,0,-8,-10,-5,-5,-8
1512354174553839,-3,0,1,-1,6,-7,0,4
1512354174565839,-6,-15,-27,-8,-7,5,-2,-9
1512354174565839,-5,-6,-3,6,16,17,2,-4
1512354174574839,0,1,16,3,-6,-2,-3,4
1512354174574839,-1,-2,-5,8,24,5,-2,0
1512354174588839,-2,9,30,-5,-14,-16,-3,-1
1512354174588839,0,-7,-42,-1,-3,11,0,-2
1512354174590839,-2,4,5,12,17,-1,-4,-9
1512354174590839,-4,-6,0,6,1,-6,4,7
1512354174611839,0,2,1,2,-10,-10,-6,-17
1512354174611839,1,0,12,-13,-13,-11,-9,-8
1512354174613839,1,-3,-12,-5,-11,10,2,5
1512354174613839,0,6,-1,0,5,0,1,-2
1512354174625839,0,7,5,-5,-7,9,0,2
1512354174625839,-10,-22,2,2,3,-10,-3,-1
1512354174634839,-1,-6,-19,-2,-4,-7,1,-1
1512354174634839,0,4,2,-13,-10,-2,2,1
1512354174648839,-1,1,2,18,14,13,-2,-3
1512354174648839,3,7,9,-10,-16,6,1,2
1512354174650839,-4,-7,-1,-2,6,-2,-3,-6
1512354174650839,2,5,13,-4,-15,-4,1,11
1512354174671839,-4,-20,-32,-9,-1,-1,4,3
1512354174671839,3,7,5,10,8,-28,-8,-3
1512354174672839,-2,-5,-6,0,44,29,3,0
1512354174672839,-2,6,18,0,2,-8,0,-10
1512354174685839,-3,-2,-14,-1,4,6,-6,-7
1512354174685839,-2,-3,2,5,5,-16,-1,4
1512354174694839,-3,0,2,-12,-44,-11,0,-6
1512354174694839,6,4,11,10,20,24,-3,11
1512354174708839,-5,-6,-5,-1,-8,-3,5,-4
1512354174708839,2,4,-5,1,4,8,5,11
1512354174715839,-2,6,12,-10,-16,-17,-6,-2
1512354174715839,-2,-3,6,5,2,13,1,-10
1512354174731839,-1,-9,-30,-14,-27,-6,-1,1
1512354174731839,3,7,5,9,18,24,2,1
1512354174733839,2,4,17,1,-1,-7,1,3
1512354174733839,-3,0,-9,-2,-11,-14,-8,2
1512354174744839,2,-1,0,1,0,-19,-3,-4
1512354174744839,-2,0,7,-2,10,23,-1,0
1512354174754839,1,2,-1,-3,-15,-13,-1,6
1512354174754839,0,-5,-3,11,7,-25,-1,-7
1512354174768839,-1,8,22,-4,5,10,-1,-3
1512354174768839,-4,0,-7,9,18,6,-2,-9
1512354174770839,3,7,7,1,-12,-5,1,1
1512354174770839,-2,-3,-15,-12,-13,-9,-1,-1
1512354174791839,1,-2,14,8,3,17,4,27
1512354174791839,1,1,-4,-8,-11,-11,-2,9
1512354174793839,1,6,4,10,6,0,5,3
1512354174793839,-1,-4,-20,-5,6,2,-2,-10
1512354174804839,-2,-5,-8,-7,-19,-8,-6,-10
1512354174804839,-1,-1,3,13,-1,-30,-1,2
1512354174814839,0,-4,-4,7,36,19,0,5
1512354174814839,1,5,5,-4,-17,-6,3,9
1512354174829839,-4,6,18,-4,-15,-2,-5,-11
1512354174829839,3,-6,-10,-11,-12,-6,5,11
1512354174830839,-3,-5,1,3,9,6,-5,-7
1512354174830839,-2,3,-7,-8,-1,16,7,1
1512354174851839,2,-3,8,9,22,2,-2,0
1512354174851839,-2,2,5,-8,-29,-4,-7,-16
1512354174852839,-5,-14,-13,-3,-2,-2,2,2
1512354174852839,0,8,24,-3,0,5,-5,-10
1512354174865839,1,-1,-27,-1,4,-5,-3,-1
1512354174865839,-3,-9,-11,-8,0,13,0,-15
1512354174874839,2,-9,-17,-9,-19,-6,3,21
1512354174874839,-2,3,3,3,-7,-9,-8,-13
1512354174889839,0,-1,5,-2,24,-1,4,11
1512354174889839,0,3,4,-2,-15,-3,1,-9
1512354174890839,4,14,9,3,5,-23,-6,-3
1512354174890839,-4,-17,-6,5,8,-17,0,5
1512354174911839,-8,-10,-7,3,4,27,0,-3
1512354174911839,5,5,5,12,54,13,3,4
1512354174913839,0,4,7,6,-14,-13,-6,-14
1512354174913839,7,4,-5,-4,-2,-6,8,24
1512354174925839,-2,4,-2,-6,1,14,0,-16
1512354174925839,-5,-1,23,4,8,1,2,10
1512354174934839,-4,-1,-4,7,-7,5,-5,-14
1512354174934839,-1,-10,-32,-11,0,11,-3,-10
1512354174948839,3,3,4,13,9,-23,1,11
1512354174948839,0,9,13,0,-20,-3,-5,-2
1512354174955839,-2,-9,0,-9,-9,7,1,1
1512354174955839,-1,3,6,6,13,3,1,-6
1512354174971839,-3,5,3,1,-1,4,8,-4
1512354174971839,0,-4,-2,-1,9,-3,0,10
1512354174973839,-5,-2,-9,-11,-13,3,-1,-8
1512354174973839,-1,3,4,15,12,14,-3,-12
1512354174993839,-3,-7,12,-7,-13,25,7,3
1512354174993839,-4,-3,-14,-12,-25,-13,-2,-6
1512354174995839,2,-4,3,11,58,12,6,7
1512354174995839,-1,2,-9,-14,-12,4,0,4
1512354175008839,3,7,9,-3,-27,-15,-9,-5
1512354175008839,-9,-20,-24,2,8,12,6,-4
1512354175015839,4,4,1,7,-13,-22,-7,-6
1512354175015839,-2,0,14,-6,14,10,-1,-2
1512354175031839,0,4,5,-2,-11,-8,-4,-3
1512354175031839,-3,-2,-10,-11,0,2,-1,-4
1512354175032839,2,5,16,-13,-20,-11,1,3
1512354175032839,-4,-6,-7,18,5,-4,0,2
1512354175053839,1,0,-12,-4,-7,-7,-7,-7
1512354175053839,-6,-11,-9,-3,6,3,-3,-5
1512354175055839,1,2,13,-8,-35,18,7,-3
1512354175055839,6,4,1,6,18,2,3,23
1512354175068839,-3,3,6,-1,2,-14,-6,-6
1512354175068839,0,1,-13,8,4,-5,-5,-13
1512354175074839,0,2,-9,-15,-37,-2,-2,1
1512354175074839,-5,-8,11,3,-9,-5,-1,-4
1512354175091839,5,4,19,0,9,-2,-1,-9
1512354175091839,5,4,-2,13,13,-15,-2,10
1512354175092839,-4,-11,-18,0,12,11,3,-3
1512354175092839,-2,-3,1,0,-4,-1,-5,-3
1512354175114839,-3,0,0,-4,-15,-9,0,2
1512354175114839,3,4,8,-3,-3,10,6,5
1512354175115839,-2,-2,-13,-5,-2,-5,-6,-5
1512354175115839,3,5,-2,-4,-9,-11,0,-10
1512354175128839,-8,-18,18,-2,12,2,1,7
1512354175128839,1,-2,-30,-10,-23,-2,-3,-3
1512354175142839,-2,-1,5,10,15,-6,-3,5
1512354175142839,3,5,1,-13,7,14,10,17
1512354175151839,-1,2,-2,5,12,-9,-7,-21
1512354175151839,2,5,11,1,-8,9,3,12
1512354175153839,-4,-4,1,-10,18,6,3,3
1512354175153839,-4,0,4,24,2,-8,-6,-7
1512354175173839,0,1,-23,-8,-9,6,0,0
1512354175173839,1,1,13,-5,-6,0,-2,-5
1512354175175839,-3,-5,-17,3,-1,4,1,10
1512354175175839,-4,-5,1,-16,-22,-15,-5,-15
1512354175188839,-2,-3,-11,2,7,11,-2,8
1512354175188839,1,6,24,9,5,-10,-4,-13
1512354175195839,-1,-2,-1,-15,-12,-20,-5,-9
1512354175195839,4,8,11,38,18,4,3,10
1512354175211839,-2,-6,-15,-2,-1,-1,-3,-10
1512354175211839,3,3,-2,-12,2,5,0,9
1512354175213839,-1,3,13,-5,-2,16,-1,0
1512354175213839,0,-14,-19,-3,-34,0,4,0
1512354175233839,-1,6,0,12,26,4,-5,1
1512354175233839,-2,-1,-2,-8,-19,-8,7,10
1512354175235839,1,4,-4,-1,-9,5,-1,-4
1512354175235839,-2,1,-13,-14,7,13,0,-4
1512354175247839,3,1,10,13,-1,0,5,3
1512354175247839,-1,-3,-1,-5,-12,-3,-6,3
1512354175256839,1,1,12,18,53,-5,4,6
1512354175256839,-3,-3,-13,0,21,8,-8,-14
1512354175271839,5,6,23,-4,-17,-22,12,31
1512354175271839,-2,-6,-19,9,15,20,2,-5
1512354175273839,1,-3,-5,-1,3,-14,-3,-4
1512354175273839,-1,-3,-3,-8,-7,0,-8,-3
1512354175293839,2,0,14,-9,-8,-2,6,7
1512354175293839,-3,-4,4,-6,4,-6,-5,-7
1512354175295839,2,3,0,12,1,5,2,3
1512354175295839,-1,-1,-3,-13,-8,5,-3,-5
1512354175308839,-2,-5,-21,-4,-6,-7,-1,-11
1512354175308839,-2,-4,3,-4,-13,-12,-2,6
1512354175315839,2,4,14,5,2,4,-1,-11
1512354175315839,-1,-3,-10,-2,1,-9,-7,3
1512354175331839,3,4,19,-2,12,4,9,8
1512354175331839,-3,-5,-25,-8,-5,4,-6,-15
1512354175332839,0,-4,-2,1,6,5,6,21
1512354175332839,-1,-1,6,-9,-20,-11,-7,-7
1512354175353839,-3,-3,-8,6,-13,2,-4,-1
1512354175353839,-4,-3,5,-6,-2,-5,-5,-7
1512354175355839,1,3,-1,2,36,13,-11,-12
1512354175355839,4,0,4,-2,-35,-10,25,29
1512354175368839,-2,-3,-10,-7,-34,-15,-11,-8
1512354175368839,-1,6,13,29,59,10,4,-11
1512354175374839,-5,-8,-8,-3,-14,11,-2,-9
1512354175374839,0,-1,1,0,-7,-8,-1,4
1512354175391839,-2,-1,-7,-12,8,6,-3,-2
1512354175391839,-1,1,6,0,-5,5,6,15
1512354175392839,-3,0,0,-11,-17,-18,-2,2
1512354175392839,-3,-2,15,23,29,17,3,-11
1512354175413839,-5,-6,-13,-1,2,0,-1,-8
1512354175413839,-1,-7,-16,-11,-13,-5,-9,6
1512354175415839,-1,0,0,-4,-3,6,-2,-16
1512354175415839,4,3,5,-11,-16,-5,7,19
1512354175427839,1,1,3,1,7,3,1,-6
1512354175427839,-3,1,10,28,31,0,-5,-15
1512354175436839,2,-1,-5,-1,-16,-24,2,16
1512354175436839,-5,0,6,-6,9,11,-13,-24
1512354175451839,4,-1,-15,1,6,-7,12,44
1512354175451839,1,4,8,0,-15,-6,2,-8
1512354175453839,-2,-1,-3,1,-6,-8,-2,-6
1512354175453839,-3,-1,-4,-2,2,-10,-6,3
1512354175473839,-3,-2,0,-2,-5,2,-2,-11
1512354175473839,3,4,3,-5,16,14,4,3
1512354175475839,-4,-4,-7,5,16,5,2,-1
1512354175475839,0,-2,1,0,2,-3,-8,-3
1512354175487839,-4,1,0,-5,-17,-21,-6,-7
1512354175487839,2,0,1,-2,1,11,1,2
1512354175496839,-3,-4,-4,-18,-38,-3,1,0
1512354175496839,-2,-3,-13,0,14,-10,-1,-5
1512354175511839,2,-1,-3,-8,-2,3,0,1
1512354175511839,0,0,10,5,-3,4,-7,-17
1512354175513839,3,6,-6,0,6,-8,4,18
1512354175513839,-4,-11,-6,-8,-2,4,6,4
1512354175533839,3,9,29,10,17,5,-2,3
1512354175533839,1,2,-17,-15,-31,-22,1,-3
1512354175535839,-1,1,-12,-13,-14,0,-5,-7
1512354175535839,-1,5,-1,16,21,19,2,-9
1512354175547839,0,-6,8,17,15,27,1,-8
1512354175547839,0,1,11,-1,-4,-10,1,12
1512354175556839,1,-1,5,-1,-18,-11,0,-1
1512354175556839,-4,-2,-14,1,8,11,1,-6
1512354175571839,-1,2,4,1,2,-5,-4,-4
1512354175571839,-1,-9,-17,-17,-16,10,3,9
1512354175573839,1,1,9,1,-11,-13,-8,0
1512354175573839,0,-3,-3,-11,4,11,2,-14
1512354175593839,-1,-1,0,10,-28,0,-3,0
1512354175593839,-4,-12,-14,6,37,-10,5,2
1512354175595839,-3,-6,-8,-9,-13,-2,-9,-11
1512354175595839,4,4,9,-5,1,-3,2,13
1512354175607839,0,1,0,3,4,5,1,-1
1512354175607839,0,2,-2,-7,-29,-22,0,2
1512354175616839,-3,-5,0,2,13,15,-2,-6
1512354175616839,-4,-2,17,-13,-13,-17,-6,-14
1512354175631839,4,-3,-30,7,9,11,10,10
1512354175631839,-3,-3,5,5,6,10,-7,-12
1512354175632839,3,4,3,4,11,-5,4,12
1512354175632839,0,-1,5,-4,-17,-4,-3,5
1512354175653839,-3,5,10,-15,-1,-22,-10,-12
1512354175653839,3,2,-4,16,11,23,10,15
1512354175655839,-3,-4,9,9,13,-8,-3,-5
1512354175655839,-2,-3,-11,-15,-40,1,3,7
1512354175667839,-2,-1,1,-5,-6,3,1,5
1512354175667839,-1,8,-1,-1,-4,-9,-3,-7
1512354175676839,1,3,5,1,25,6,-4,-4
1512354175676839,1,1,-10,5,-5,-4,2,18
1512354175690839,-4,-8,0,-9,-11,-4,-2,-12
1512354175690839,0,-1,11,10,10,0,2,12
1512354175697839,2,3,5,-17,-24,-6,-6,-9
1512354175697839,-2,-1,-9,18,30,-20,-3,-14
1512354175713839,4,1,1,2,10,4,4,17
1512354175713839,-5,-5,-7,-12,-18,2,-1,-7
1512354175715839,1,-1,-1,28,17,0,-2,4
1512354175715839,0,-2,12,4,4,19,3,5
1512354175727839,-5,-2,-3,-6,-20,-8,-7,-15
1512354175727839,-2,2,12,-9,2,-13,-5,2
1512354175736839,6,6,-8,11,5,13,13,37
1512354175736839,-3,-5,-9,-8,12,-8,-2,-6
1512354175751839,1,3,-4,3,9,-1,-1,-9
1512354175751839,-2,2,7,-7,-8,-12,-5,-1
1512354175753839,-5,-7,-2,-8,-2,15,1,-11
1512354175753839,3,7,-8,16,5,-11,0,7
1512354175773839,-5,-7,0,-12,-3,-1,-5,-5
1512354175773839,0,-10,-21,-8,-10,2,3,6
1512354175775839,2,5,11,0,-10,-11,-1,8
1512354175775839,-1,-4,-3,-2,-9,-3,-4,-4
1512354175787839,-4,-1,0,2,22,11,-1,-13
1512354175787839,4,7,20,8,-5,-10,1,3
1512354175796839,0,-6,-15,-12,-6,-16,-1,-4
1512354175796839,2,3,-6,-1,4,45,8,5
1512354175810839,0,1,-14,-4,-8,-14,-3,1
1512354175810839,-4,-3,23,18,9,-4,-4,-6
1512354175817839,-1,-9,-18,5,6,3,3,5
1512354175817839,1,6,13,-4,-19,-27,-4,-5
1512354175833839,1,-4,-8,-9,-3,7,3,6
1512354175833839,0,1,-2,-7,-3,2,-4,-5
1512354175835839,-2,4,9,5,4,0,-8,-9
1512354175835839,-5,-6,-3,-5,1,1,0,-14
1512354175847839,3,2,2,4,4,-1,2,17
1512354175847839,0,-2,0,-3,-31,-8,-3,-5
1512354175856839,-1,-1,-6,14,56,0,-1,-6
1512354175856839,-2,-4,-6,-6,0,-6,-5,2
1512354175870839,-2,2,2,-2,-6,0,-1,-4
1512354175870839,0,3,-2,1,6,-4,3,9
1512354175877839,-1,0,2,-8,-21,0,-3,-8
1512354175877839,3,5,8,22,34,11,3,12
1512354175893839,-3,-3,-5,-13,-20,-5,-4,-3
1512354175893839,-1,0,9,12,33,-4,-8,-6
1512354175895839,-4,-8,-15,1,-5,-13,5,0
1512354175895839,0,4,-2,-15,-2,-1,-1,1
1512354175916839,-1,-6,4,-9,-25,-10,-5,-5
1512354175916839,3,-1,-9,-21,-25,41,2,-7
1512354175917839,-2,5,12,19,22,-13,-4,-3
1512354175917839,-4,-5,-1,-8,-11,-9,-5,-12
1512354175930839,2,4,-6,-1,1,-5,-5,0
1512354175930839,-1,-1,-10,-9,-1,10,8,9
1512354175937839,-3,-7,3,-5,-22,1,-4,-10
1512354175937839,2,-2,-9,-19,-43,3,10,8
1512354175953839,-1,-1,1,4,9,0,-2,1
1512354175953839,0,1,0,16,13,-6,-2,-4
1512354175955839,0,-3,-6,-11,-12,31,11,11
1512354175955839,-1,4,12,1,7,-19,-8,-8
1512354175976839,0,-8,-14,12,14,-2,1,11
1512354175976839,0,1,-3,-15,-6,2,0,-1
1512354175977839,-2,2,2,0,4,6,1,0
1512354175977839,1,3,2,-1,-12,-16,-4,4
1512354175990839,1,6,36,9,27,-1,4,-5
1512354175990839,-2,-8,-50,-2,14,-8,-8,-7
1512354175997839,-9,-24,-15,-5,9,-18,-2,-11
1512354175997839,5,5,7,23,-4,33,4,10
1512354176013839,-2,8,11,-6,6,7,3,-6
1512354176013839,2,5,13,1,-29,-9,3,11
1512354176015839,2,13,12,-7,-28,-26,-5,-6
1512354176015839,-3,-14,-16,-2,10,-19,-9,-1
1512354176036839,-4,-4,-7,7,18,18,1,-3
1512354176036839,0,-1,4,3,5,-6,2,1
1512354176038839,-1,3,1,-15,-24,12,1,7
1512354176038839,-5,0,7,2,8,3,-5,-7
1512354176050839,-1,-3,-9,-15,-64,-6,10,4
1512354176050839,-3,-1,-5,-4,2,-13,-8,-12
1512354176057839,1,2,-1,-4,12,24,9,11
1512354176057839,1,4,-1,-8,2,-2,-2,-2
1512354176073839,-4,-9,-9,2,5,-10,-11,-6
1512354176073839,-1,-8,2,-5,8,19,5,10
1512354176075839,3,6,-1,3,-20,1,3,-8
1512354176075839,-2,3,-1,13,46,5,-2,-3
1512354176096839,4,1,-6,10,24,-5,-4,-1
1512354176096839,-1,3,15,2,-7,3,1,4
1512354176098839,0,-3,-2,2,14,12,0,-11
1512354176098839,2,1,4,-3,-8,-6,2,9
1512354176110839,-3,-2,-9,-15,-16,-25,0,2
1512354176110839,-2,-2,2,16,27,19,-4,-13
1512354176117839,-1,0,2,-4,-11,-1,-1,-3
1512354176117839,0,-2,-2,-10,3,-18,3,6
1512354176133839,-1,-1,-3,21,-6,4,-1,-1
1512354176133839,1,0,11,-6,-16,-4,2,9
1512354176135839,-3,-7,-21,-4,0,-4,-3,-4
1512354176135839,-3,-1,10,-11,-13,-13,-7,-1
1512354176156839,1,0,-17,8,21,40,12,2
1512354176156839,0,3,9,3,2,-13,-2,-5
1512354176157839,0,6,4,1,-1,1,-4,5
1512354176157839,1,-4,-8,-4,-7,-7,2,1
1512354176170839,-1,0,21,-9,-21,-5,-6,-5
1512354176170839,3,4,-5,7,22,4,-1,-4
1512354176177839,-7,-3,7,-3,-15,-12,-7,-14
1512354176177839,4,-4,-20,3,-12,17,7,30
1512354176193839,-2,-4,-6,-17,-6,-15,-1,-11
1512354176193839,0,-2,-7,5,-4,-20,2,15
1512354176195839,0,3,18,6,-2,-8,-5,2
1512354176195839,-4,1,5,0,-2,16,1,-15
1512354176216839,-3,2,0,4,11,4,-8,-7
1512354176216839,-2,-7,-12,-20,-20,-26,-2,-3
1512354176217839,3,4,11,5,14,13,2,8
1512354176217839,-3,-11,-8,5,0,11,-5,-14
1512354176230839,2,7,6,-5,-10,-10,-1,3
1512354176230839,-3,-6,-5,0,1,-4,-4,-6
1512354176239839,2,0,5,2,-13,1,0,3
1512354176239839,-3,-2,-11,-6,9,7,-1,-16
1512354176253839,1,3,3,3,0,-9,-1,12
1512354176253839,-3,-6,-15,-5,7,10,3,-7
1512354176255839,4,-6,-12,-5,-10,-2,-2,6
1512354176255839,-2,2,10,-1,-3,-10,-2,-12
1512354176276839,1,3,-2,4,0,13,0,3
1512354176276839,-1,-5,4,-19,-17,-18,-5,0
1512354176277839,-1,5,2,10,23,26,0,-10
1512354176277839,-2,-5,-15,0,-9,-2,0,15
1512354176290839,1,-8,-1,-4,22,12,5,1
1512354176290839,-4,2,0,-1,-14,-4,-2,-12
1512354176299839,2,-3,-3,-9,-7,1,-2,10
1512354176299839,-3,5,14,3,-3,-3,-1,-3
1512354176313839,0,1,-1,2,-7,5,-1,0
1512354176313839,0,-3,-13,2,14,10,2,4
1512354176315839,0,-4,1,-6,-9,-13,1,-6
1512354176315839,-1,1,5,2,8,-10,1,5
1512354176336839,-1,0,0,5,14,-1,-7,-23
1512354176336839,4,1,-2,-2,-22,-11,6,26
1512354176338839,-3,6,15,1,13,11,0,-5
1512354176338839,-5,-12,-26,-4,1,-5,-2,-10
1512354176350839,0,-1,-4,0,-6,-23,-3,11
1512354176350839,3,8,25,12,8,16,0,-7
1512354176357839,-1,-4,-21,-1,4,-20,-1,2
1512354176357839,3,5,14,-13,-36,28,6,2
1512354176373839,-5,-6,-5,-13,-9,-13,-6,-14
1512354176373839,-2,-2,2,17,16,28,1,1
1512354176375839,4,3,13,-2,-16,-1,1,5
1512354176375839,-3,-3,-12,0,16,-10,-2,3
1512354176396839,-2,0,7,6,11,9,4,-1
1512354176396839,2,-4,-15,-10,-9,-6,-5,-6
1512354176398839,0,0,3,8,9,-9,-2,-1
1512354176398839,0,5,9,1,3,1,3,0
1512354176409839,-2,-7,-6,-2,2,6,-1,8
1512354176409839,0,2,-1,-6,7,1,-2,3
1512354176419839,-6,-6,-5,4,11,-8,-2,-10
1512354176419839,5,7,8,0,-6,-15,-1,14
1512354176433839,1,0,-10,0,12,22,2,3
1512354176433839,-5,-8,0,-1,-13,-12,1,0
1512354176435839,-3,-6,-2,-10,-4,-10,-6,-3
1512354176435839,-1,3,-8,17,3,0,-2,-14
1512354176456839,-3,-3,5,5,6,-27,-2,3
1512354176456839,2,11,18,4,30,12,1,-4
1512354176457839,4,2,-13,-8,-24,0,5,7
1512354176457839,-6,-10,-4,-2,12,11,1,-3
1512354176470839,-2,-4,-2,-5,-19,-11,-7,-14
1512354176470839,0,1,-2,5,-10,18,7,5
1512354176479839,2,1,3,3,18,-11,-2,3
1512354176479839,4,4,2,-9,-6,-6,-8,-7
1512354176493839,-3,-1,3,-1,-7,-10,-2,-7
1512354176493839,-1,4,11,1,6,7,0,6
1512354176495839,-4,-7,-28,-6,-17,-14,-3,-6
1512354176495839,2,1,10,11,-22,-4,0,-2
1512354176516839,0,-3,-13,-3,53,12,2,5
1512354176516839,1,1,0,-6,-16,-12,-2,3
1512354176517839,-3,0,21,-3,-17,4,2,4
1512354176517839,1,-2,-15,-8,4,1,0,-8
1512354176530839,1,2,9,10,-8,4,2,5
1512354176530839,-1,5,-17,-3,3,-16,-7,-11
1512354176539839,2,-1,-7,3,22,25,3,6
1512354176539839,-3,7,20,-8,-20,-6,-1,-1
1512354176553839,-1,-7,-12,1,3,0,0,-1
1512354176553839,-4,-15,-15,5,11,1,-1,-8
1512354176555839,-1,3,2,-12,-23,1,0,3
1512354176555839,4,4,14,29,55,-4,2,9
1512354176576839,0,3,3,-5,-25,13,-2,-12
1512354176576839,1,4,4,-2,25,15,5,20
1512354176578839,-3,0,-8,1,3,-2,-2,-13
1512354176578839,2,-13,-15,-20,-9,-1,3,28
1512354176590839,1,9,10,5,1,-5,-2,0
1512354176590839,0,1,-6,3,-15,-8,-4,4
1512354176599839,-2,-1,9,4,-2,-9,-3,-5
1512354176599839,-4,-3,-5,-3,5,18,1,-7
1512354176613839,4,-1,-3,8,13,-15,-5,8
1512354176613839,-2,2,12,-13,-17,9,5,-12
1512354176615839,-1,1,0,13,29,-9,1,6
1512354176615839,-3,-6,-12,-13,-23,-30,-7,-7
1512354176636839,-2,-6,4,10,4,-12,1,4
1512354176636839,-3,-8,-20,-3,-2,7,-5,-5
1512354176638839,2,2,2,14,31,-4,2,7
1512354176638839,-1,3,9,-4,-29,-15,-8,-9
1512354176649839,2,3,8,3,27,10,5,7
1512354176649839,-1,1,8,-7,-41,-16,-4,-14
1512354176659839,-2,-10,-21,-9,0,11,2,16
