timestamp,emg1,emg2,emg3,emg4,emg5,emg6,emg7,emg8
1511884726603916,0,-2,1,3,0,-2,-1,0
1511884726603916,-1,1,0,3,2,2,1,-3
1511884726609935,0,-1,0,0,-4,-5,-5,1
1511884726609935,-1,-1,-4,0,4,1,0,-1
1511884726610939,-2,-2,-1,-5,-5,1,-2,1
1511884726610939,-1,-2,-1,2,-1,-3,0,-4
1511884726611939,0,0,0,-2,1,3,1,-3
1511884726611939,1,1,-2,2,-4,-2,0,-1
1511884726623100,1,-1,0,3,1,-1,-1,0
1511884726623100,-1,-1,-2,-8,-5,-1,-3,0
1511884726633994,0,0,3,5,6,3,3,2
1511884726633994,-3,-1,2,-1,-6,-5,-3,-4
1511884726638009,-2,0,-4,-5,2,0,2,4
1511884726638009,0,-1,-3,-1,1,0,-1,1
1511884726653203,0,2,2,2,1,2,-1,-1
1511884726653203,1,0,4,8,3,1,1,-1
1511884726661201,-1,2,3,6,2,-1,-1,-2
1511884726661201,0,-3,-8,-12,-8,0,3,4
1511884726669316,-2,-3,-5,-7,-3,-7,-9,-2
1511884726669316,0,-1,-4,-5,-3,-2,3,-1
1511884726682467,1,0,2,-1,-3,2,-6,-2
1511884726682467,0,3,3,7,4,-1,-1,1
1511884726692451,0,-1,-1,-2,-2,1,1,-2
1511884726692451,-1,0,0,-2,-3,-4,-2,0
1511884726730555,-1,2,2,0,0,-1,-1,-5
1511884726730555,0,-1,-5,-6,-1,-1,-2,-3
1511884726730555,-1,2,3,1,0,3,1,0
1511884726730555,0,1,2,3,0,-3,0,4
1511884726731554,-1,-2,-5,-5,-2,-2,-2,2
1511884726731554,-1,1,-2,-4,-3,-2,1,-1
1511884726734562,1,2,4,5,2,1,1,-1
1511884726734562,-1,0,2,8,-1,3,1,0
1511884726742586,1,-2,-4,-7,-3,-5,-2,1
1511884726742586,-1,-3,-6,-5,-3,-2,-2,4
1511884726751610,-2,0,2,1,8,3,0,-1
1511884726751610,-1,-4,3,1,-4,1,1,-1
1511884726757624,-2,0,-5,0,-1,-2,-6,0
1511884726757624,-1,-1,-6,-7,-2,1,7,0
1511884726772667,-1,0,3,3,-2,-4,-5,-1
1511884726772667,0,-1,-2,-1,-2,-2,2,-1
1511884726779685,0,-2,-3,-5,-2,1,-2,2
1511884726779685,0,0,-2,1,-1,-3,-2,-2
1511884726788707,-2,-1,0,3,-2,-5,-4,-2
1511884726788707,-2,2,1,-3,2,-4,-2,1
1511884726802747,-1,-2,2,2,-3,0,3,-2
1511884726802747,1,3,9,7,4,0,-4,3
1511884726811772,-1,-1,-5,3,0,-1,5,-1
1511884726811772,1,-1,-6,-7,0,6,-1,1
1511884726817784,-2,-1,0,-3,-4,1,1,-5
1511884726817784,0,-4,-2,3,5,1,-2,-1
1511884726832943,0,-1,-5,-9,-8,-2,1,1
1511884726832943,-2,1,-2,-5,2,-6,-7,0
1511884726839969,0,3,6,13,7,10,7,2
1511884726839969,0,-1,-2,-2,-3,0,7,0
1511884726855115,-1,-4,-5,-10,-4,-3,-6,2
1511884726855115,-3,-4,-2,4,-2,-3,-6,-6
1511884726862023,0,2,2,2,2,-4,-4,-5
1511884726862023,-1,-1,1,6,5,0,-5,0
1511884726871061,1,0,-5,-6,-9,1,-2,-2
1511884726871061,2,0,-2,0,13,7,7,3
1511884726877058,1,3,5,1,-10,-8,2,3
1511884726877058,0,0,4,11,3,2,-2,-2
1511884726892142,-3,-4,-13,-11,0,-1,-6,-2
1511884726892142,-1,-2,-1,-4,-6,-9,-7,-5
1511884726900123,-2,-1,-1,5,12,12,5,1
1511884726900123,0,0,-7,-14,-6,-1,20,5
1511884726915283,-1,1,7,2,-4,-7,-8,-2
1511884726915283,0,-1,-1,7,6,3,4,1
1511884726922183,-1,-2,2,5,-7,-21,-25,-5
1511884726922183,-1,-1,0,-9,-5,4,-4,-1
1511884726931203,2,0,4,19,26,11,15,3
1511884726931203,-2,-4,-12,-26,-27,12,17,-1
1511884726937259,-1,-2,0,10,8,-20,-9,-4
1511884726937259,-1,-2,-4,-21,-17,6,-5,-4
1511884726954264,4,4,17,15,-6,-14,-8,4
1511884726954264,-3,0,1,8,15,9,5,-2
1511884726960279,-1,-4,-7,-9,2,-3,-10,1
1511884726960279,-7,-8,-9,-1,-9,-22,-16,-10
1511884726975322,-2,-2,-11,-27,-30,21,6,-2
1511884726975322,1,1,2,-7,1,-7,-2,2
1511884726982533,6,2,-2,-11,-19,-8,14,7
1511884726982533,-2,0,3,16,28,19,1,-2
1511884726991362,1,4,-1,7,2,1,-7,0
1511884726991362,-4,-2,3,6,-6,-12,-17,-3
1511884726997381,-1,2,3,6,11,10,2,-2
1511884726997381,-2,-1,2,-1,-10,-17,-11,-4
1511884727014502,6,2,9,13,0,-15,-18,10
1511884727014502,-3,-1,-19,-19,4,19,-1,-6
1511884727020464,-2,-5,-10,-25,-24,-17,8,1
1511884727020464,1,4,9,15,21,35,0,-1
1511884727035522,-4,-4,-3,-5,6,9,16,-5
1511884727035522,0,0,0,0,-4,-34,-4,-2
1511884727042728,6,1,8,17,1,29,5,6
1511884727042728,-2,-2,-12,-19,-14,-23,0,-4
1511884727051749,0,-2,-2,6,23,-24,-9,0
1511884727051749,0,-1,4,9,12,36,13,1
1511884727057764,-3,0,-2,-6,-7,-15,2,-4
1511884727057764,1,0,11,15,-10,0,-4,0
1511884727073953,-4,-6,-13,-12,2,22,-1,1
1511884727073953,-1,1,-1,1,-6,-20,-7,-5
1511884727079999,-1,1,4,4,4,7,9,0
1511884727079999,6,3,3,1,5,3,0,6
1511884727095119,-5,-3,-6,-7,-9,-23,-16,-10
1511884727095119,0,0,-4,0,3,16,24,3
1511884727103071,-2,1,3,0,6,13,-16,-3
1511884727103071,-2,-2,1,5,8,-5,0,3
1511884727111166,4,-1,1,-2,-14,-6,18,2
1511884727111166,0,3,4,2,-1,-16,-11,-2
1511884727117244,-3,-4,-6,-2,7,7,-8,-6
1511884727117244,0,-2,-3,-4,8,7,22,6
1511884727134278,-4,0,1,-5,-25,-33,-10,-6
1511884727134278,0,0,6,7,8,6,1,-3
1511884727140302,2,1,-3,0,6,3,-8,7
1511884727140302,-2,-1,-7,-5,-6,-4,2,1
1511884727155435,-2,-1,0,-1,3,17,10,-1
1511884727155435,12,-1,0,-4,-12,-8,-14,6
1511884727162365,-13,-1,0,1,-5,-4,10,-4
1511884727162365,-2,0,-1,3,18,22,5,-1
1511884727171435,3,2,1,1,3,-4,6,-3
1511884727171435,-10,0,1,-1,-9,-3,-7,-9
1511884727185499,9,-3,-1,0,8,-5,-1,-2
1511884727185499,-5,-3,-4,-6,-15,-7,-10,-3
1511884727193666,-10,-2,0,-1,4,5,-10,-4
1511884727193666,19,4,1,1,-2,-9,2,11
1511884727199685,-4,-3,-4,-2,-2,19,12,-3
1511884727199685,0,-2,0,-2,-13,-29,-10,-2
1511884727214913,-4,-3,-2,-2,8,16,-2,4
1511884727214913,-9,0,0,1,4,5,-2,-7
1511884727222998,-1,0,-2,-5,-9,-19,-6,-2
1511884727222998,3,1,2,0,-6,-11,-2,6
1511884727231991,-5,-1,-2,-5,3,5,7,-12
1511884727231991,2,-1,-1,1,-3,2,-8,11
1511884727245029,0,-4,-1,2,12,4,5,1
1511884727245029,-2,2,3,5,4,-2,11,-4
1511884727254312,-3,0,1,2,3,25,-2,-5
1511884727254312,1,0,-2,0,-3,-16,-16,-1
1511884727260298,-2,1,-2,-5,-1,10,0,-8
1511884727260298,-5,-1,2,1,-2,11,29,7
1511884727275516,13,1,0,3,0,-19,-25,12
1511884727275516,-8,-2,-2,-2,1,4,2,-1
1511884727282356,0,1,2,1,-4,-6,-6,12
1511884727282356,-17,-2,-1,-1,3,0,-18,-30
1511884727291382,6,-2,-2,-4,-5,-1,6,22
1511884727291382,-28,-5,2,1,7,15,4,-4
1511884727305421,36,5,-1,-4,-10,-18,0,12
1511884727305421,2,0,-1,-1,-2,-4,-11,-1
1511884727314447,-6,-1,-2,1,-2,10,12,-6
1511884727314447,2,-1,1,1,2,-10,2,-8
1511884727320457,-15,-4,-2,-2,3,5,2,1
1511884727320457,-2,0,1,-1,-3,-6,-6,-3
1511884727334495,10,-1,-5,-3,1,1,-3,5
1511884727334495,4,1,0,-1,-4,-6,24,-6
1511884727342520,-4,0,-3,-3,-1,4,-10,-8
1511884727342520,5,0,0,0,3,6,1,10
1511884727351543,-9,1,1,-2,-7,-32,-21,-10
1511884727351543,4,-4,-3,-3,-5,-2,-13,5
1511884727364688,0,-1,1,1,1,-2,-6,-5
1511884727364688,1,-2,0,2,0,7,13,-1
1511884727373753,0,2,1,-3,1,-6,-13,-1
1511884727373753,6,3,-3,0,2,23,44,10
1511884727379855,-9,-10,-4,-3,-5,-7,-6,-3
1511884727379855,1,0,-2,-3,1,3,-3,0
1511884727394934,-2,0,2,3,2,9,19,-5
1511884727394934,2,3,6,9,6,4,-7,-6
1511884727402965,-5,0,2,3,-4,2,4,0
1511884727402965,6,3,7,6,-1,-2,8,4
1511884727411982,-2,-4,-8,-11,-2,12,8,8
1511884727411982,0,-5,-13,-22,-12,-6,-12,-7
1511884727425004,6,4,-9,-4,2,2,4,0
1511884727425004,1,0,2,-2,2,-9,-17,2
1511884727434031,1,0,7,11,-2,0,6,-4
1511884727434031,18,-3,0,-6,-1,0,-8,6
1511884727440043,-29,1,1,0,-1,-12,3,-11
1511884727440043,4,-1,0,2,2,6,2,5
1511884727455103,-1,1,4,5,3,0,4,-1
1511884727455103,-6,2,6,9,3,-1,3,-3
1511884727462121,3,-2,-1,0,2,5,1,3
1511884727462121,-1,-1,-4,-4,-4,-5,-7,-5
1511884727471125,-1,0,1,5,1,4,7,-3
1511884727471125,-2,-1,-4,-3,-1,-3,-6,2
1511884727485190,0,-3,-3,-8,-12,3,2,-2
1511884727485190,0,-1,-9,-8,-1,-2,-5,5
1511884727494188,-1,-1,-3,-2,-1,0,0,-1
1511884727494188,1,2,3,6,4,-5,-8,1
1511884727500250,1,1,11,10,7,0,-2,-3
1511884727500250,3,3,-3,3,-2,-1,-1,-4
1511884727515257,-5,-7,-9,-24,-7,1,0,5
1511884727515257,-7,10,-3,-5,-3,-4,2,-5
1511884727522384,-12,-22,0,2,3,-4,1,-21
1511884727522384,-13,-3,-3,3,-1,13,-16,-10
1511884727531335,33,-2,-3,2,-2,-4,6,21
1511884727531335,-12,6,5,-3,-2,-6,-8,7
1511884727545451,-2,-5,1,0,2,7,32,-12
1511884727545451,-5,6,-4,-5,-4,-20,-33,-6
1511884727554351,-4,-12,-3,3,8,6,0,3
1511884727554351,-8,-25,-3,3,0,-10,-4,11
1511884727560432,-16,4,-1,-4,-3,6,2,-28
1511884727560432,29,11,3,2,-2,-20,-12,49
1511884727574588,-25,-8,5,2,2,7,0,-4
1511884727574588,14,13,6,-4,-6,-14,-9,-3
1511884727582806,-18,-33,-12,0,5,4,-2,20
1511884727582806,2,-3,1,0,0,-2,-3,-11
1511884727591629,-3,6,-8,-6,-8,-4,6,-8
1511884727591629,-15,-19,-5,-3,-5,-1,-4,-9
1511884727605884,31,21,7,2,5,5,-5,19
1511884727605884,-15,-2,0,-3,-3,-4,2,-22
1511884727613807,5,0,-2,-2,0,-3,14,18
1511884727613807,9,9,12,20,1,-16,-29,-7
1511884727620012,18,20,4,-2,25,46,18,14
1511884727620012,-14,-27,-7,-10,-10,-2,20,-1
1511884727634869,-11,-2,-16,-26,-23,-17,-13,-26
1511884727634869,4,-1,-9,-4,13,25,20,11
1511884727642890,2,8,7,13,-14,-21,-16,8
1511884727642890,-1,4,8,13,27,28,18,3
1511884727651910,8,5,13,8,-4,2,21,1
1511884727651910,-1,-6,-4,6,2,3,4,-3
1511884727664947,-2,-4,-7,-5,-3,4,-7,7
1511884727664947,10,4,-1,-7,-8,-8,4,2
1511884727673966,-10,-4,-5,0,-3,-18,-25,-14
1511884727673966,-1,3,-4,-9,-2,13,3,-4
1511884727679986,-3,9,9,12,8,19,7,-9
1511884727679986,15,-1,6,3,-44,-44,-10,14
1511884727695149,-1,2,-4,7,37,6,12,6
1511884727695149,-5,-3,-9,-21,-2,9,-19,-8
1511884727702154,-4,-3,-6,-4,3,-4,-18,12
1511884727702154,3,1,0,0,-2,12,-8,-8
1511884727717319,-1,2,13,10,-2,0,-2,-14
1511884727717319,29,8,9,9,-3,-11,-7,25
1511884727725294,-10,-5,-6,-10,-18,-30,-7,-8
1511884727725294,-9,-4,-12,-10,10,11,-9,-2
1511884727740327,11,1,1,5,-1,1,0,6
1511884727740327,-12,1,5,4,10,0,5,-14
1511884727741292,-2,-7,-10,-11,-12,-15,-2,-9
1511884727741292,1,7,4,5,10,19,10,-9
1511884727755370,-2,2,0,1,0,-2,-8,-16
1511884727755370,-3,1,-3,-4,-10,-7,12,18
1511884727762387,18,-2,-6,-20,-10,-1,-4,-3
1511884727762387,-4,-3,-4,-2,5,0,5,-10
1511884727777387,-7,6,4,4,5,-12,-4,8
1511884727777387,-7,1,5,10,7,29,30,-22
1511884727785406,5,1,3,4,-7,-27,-7,22
1511884727785406,-1,-8,-6,-8,5,14,11,17
1511884727800709,-3,1,-1,1,-7,9,33,1
1511884727800709,7,-4,-3,-1,-6,-30,-28,3
1511884727801518,-8,0,-1,3,6,13,6,-21
1511884727801518,16,8,2,-3,-1,-11,6,32
1511884727838898,-27,-23,-8,0,0,10,-10,-2
1511884727838898,-3,0,-2,-2,-4,-1,13,-17
1511884727840768,10,2,-1,0,1,4,3,32
1511884727840768,-8,4,4,3,1,-3,-14,-24
1511884727861860,-4,1,0,-4,0,8,16,-9
1511884727861860,-1,-3,-2,-1,-1,1,-1,11
1511884727862826,5,-6,-3,-2,-3,-10,-23,-10
1511884727862826,13,8,2,3,2,1,8,28
1511884727867840,-5,-8,-2,-3,-1,-2,-5,-2
1511884727867840,-10,-1,-4,-4,-4,-6,-16,-13
1511884727875864,0,2,2,-1,3,18,20,-4
1511884727875864,-12,-3,-1,2,4,1,0,-21
1511884727876869,13,10,3,0,-2,11,-7,6
1511884727876869,2,-5,-4,-7,-5,1,12,11
1511884727882989,-10,1,2,6,8,-6,-18,-5
1511884727882989,-5,-5,-6,-6,-5,-1,1,-5
1511884727897940,5,2,-2,-3,0,0,4,-6
1511884727897940,-10,-3,2,4,-2,-4,-19,-5
1511884727905064,2,2,-1,3,-1,-6,12,7
1511884727905064,-10,-6,-5,-6,-4,-5,-6,-12
1511884727921098,6,-1,-4,-7,-8,-9,-20,5
1511884727921098,2,-2,1,2,0,-6,-12,-1
1511884727921098,-1,5,4,6,10,6,20,-12
1511884727921098,-4,-4,-4,-4,0,-8,-11,-3
1511884727935198,3,1,-1,0,4,12,-4,2
1511884727935198,-8,-2,1,2,1,12,16,-10
1511884727942187,10,2,1,-1,-6,-19,-12,8
1511884727942187,11,1,-1,2,0,7,11,31
1511884727957240,-10,0,-1,0,-2,-16,-1,9
1511884727957240,0,3,1,-2,5,12,23,-5
1511884727965277,5,-3,-1,1,-3,-6,-15,13
1511884727965277,-10,-1,0,-2,-3,-8,-8,-13
1511884727980322,-2,10,5,3,4,7,0,-18
1511884727980322,36,-4,-2,0,-3,-9,-3,15
1511884727981292,-20,-5,3,-2,2,5,6,-11
1511884727981292,-14,-11,6,6,3,-1,-3,-11
1511884727995325,-1,-8,-5,-1,-1,-2,-9,2
1511884727995325,-12,2,0,3,5,5,8,-17
1511884728002344,6,5,5,5,-1,0,2,1
1511884728002344,7,2,-1,0,1,1,2,-16
1511884728018388,3,-3,-15,-23,-15,-1,-3,7
1511884728018388,0,0,5,9,3,-7,-1,11
1511884728025409,12,0,-3,3,4,-4,-9,23
1511884728025409,-6,-1,-8,-4,-8,3,-19,-5
1511884728040572,3,-4,-10,-14,-3,-11,-9,0
1511884728040572,-5,-1,-2,-3,-6,-8,-11,-8
1511884728041472,-2,1,5,3,18,13,10,-6
1511884728041472,-7,1,7,11,1,-1,6,-20
1511884728054486,20,-1,9,11,-4,-7,-17,22
1511884728054486,-5,0,2,3,0,-1,14,-12
1511884728062504,-13,1,1,-5,-10,-2,-10,-5
1511884728062504,6,-2,-12,-15,-3,-2,-2,4
1511884728077547,-4,-1,-3,-2,-4,5,19,-18
1511884728077547,-18,-5,-4,-4,1,-1,1,12
1511884728084670,-2,5,3,0,-2,2,3,-27
1511884728084670,2,-13,-7,-5,0,7,18,12
1511884728099791,38,8,11,10,6,-3,-19,-9
1511884728099791,-6,-7,-6,-2,-2,-3,4,-8
1511884728107801,-12,-2,3,-3,-4,-2,-2,3
1511884728107801,3,5,4,2,-3,-5,1,12
1511884728114827,-16,-1,0,2,4,4,10,-13
1511884728114827,6,0,-7,-11,-5,0,1,3
1511884728122773,10,0,-14,-11,-7,-2,1,0
1511884728122773,-3,-3,5,-2,0,-2,1,3
1511884728137993,-6,-1,3,7,1,-12,-15,0
1511884728137993,1,5,6,3,-4,-3,-9,3
1511884728144832,0,0,4,10,3,6,13,4
1511884728144832,0,0,-1,-2,4,-5,-12,-5
1511884728159873,-9,-5,-9,-14,-6,6,4,-2
1511884728159873,3,-3,-4,-2,-2,-3,-8,2
1511884728167890,0,0,-4,-2,-4,-1,-2,2
1511884728167890,3,3,4,7,7,3,6,-6
1511884728174909,-2,1,4,-3,-5,8,10,12
1511884728174909,0,1,-3,-6,-10,-27,-28,-4
1511884728181930,-1,-3,-4,-3,3,11,2,-3
1511884728181930,-2,-3,-2,-5,-4,10,2,-2
1511884728231291,-2,2,-1,1,0,8,-2,7
1511884728231291,2,0,11,20,28,1,0,-2
1511884728232218,-1,-1,-1,-2,-10,-8,-3,-6
1511884728232218,-1,0,-3,-2,-3,-6,2,-4
1511884728267296,-7,0,-3,-5,-2,4,-7,0
1511884728267296,0,-1,0,2,1,8,9,0
1511884728269285,1,0,8,9,3,-4,-5,-8
1511884728269285,0,-2,-6,7,4,8,8,5
1511884728296362,-6,-6,-4,-7,-7,-5,7,-10
1511884728296362,0,-3,-15,-21,-3,16,1,5
1511884728305383,-4,-1,-6,-14,-4,-7,-7,-7
1511884728305383,3,3,-3,-2,-6,-3,2,4
1511884728326440,3,4,10,17,9,2,1,8
1511884728326440,1,3,6,1,0,-1,-4,-1
1511884728328461,-2,-1,3,-7,4,-6,1,-4
1511884728328461,-2,-6,-3,8,0,2,-4,0
1511884728333479,0,3,5,10,-8,-18,-4,-6
1511884728333479,0,0,2,-4,12,15,1,3
1511884728341517,2,-2,-2,3,-5,-7,-2,2
1511884728341517,-2,1,-2,-5,2,1,2,-3
1511884728342501,-1,-5,-5,-12,-2,-3,-1,1
1511884728342501,1,5,6,6,-9,10,23,1
1511884728342501,-3,-5,0,-1,-2,-9,-9,2
1511884728342501,0,2,2,-8,-4,0,-15,-1
1511884728348619,-2,-1,-4,6,16,1,3,-9
1511884728348619,-2,-4,-12,-21,-17,17,3,0
1511884728356549,-2,-4,-1,6,10,12,33,4
1511884728356549,2,5,6,-2,-9,-7,-6,-2
1511884728356549,4,4,8,9,3,7,9,3
1511884728356549,-5,-12,-1,5,-6,-7,7,0
1511884728357541,2,4,-20,-20,-3,-9,-5,-2
1511884728357541,-4,-2,3,4,5,-4,-5,-4
1511884728363681,-1,1,5,8,0,-4,1,-1
1511884728363681,1,1,-4,-10,-3,7,3,-2
1511884728363681,-5,-2,3,4,-14,-14,-15,-6
1511884728363681,-4,-7,-1,-4,4,5,8,0
1511884728377707,-3,0,-3,-10,-3,-6,-20,-13
1511884728377707,-5,0,-3,2,-11,-24,-16,-1
1511884728384637,2,-1,5,8,6,23,14,-1
1511884728384637,2,8,-2,-2,-4,-7,0,4
1511884728399883,-4,-13,-7,-6,-2,1,3,0
1511884728399883,-4,0,-2,-3,3,-13,-21,-7
1511884728407826,-4,-4,-4,-9,-8,-1,2,0
1511884728407826,1,-1,4,3,3,10,-2,2
1511884728422986,0,2,6,6,-4,-11,0,9
1511884728422986,5,5,-2,1,3,8,-6,-5
1511884728423875,-7,-14,-4,-4,0,-8,-12,-3
1511884728423875,-1,1,3,11,6,-15,-4,-2
1511884728437989,4,1,-3,-9,-8,-12,-6,5
1511884728437989,-3,-4,-12,4,22,-1,6,4
1511884728445023,4,3,2,-10,-26,4,15,6
1511884728445023,-3,1,-5,-3,0,0,7,-4
1511884728460017,-2,-6,-1,-2,-1,1,0,1
1511884728460017,1,0,9,11,-1,-3,5,5
1511884728468060,-1,3,1,3,13,-6,-9,-6
1511884728468060,4,4,-2,-3,-4,7,11,10
1511884728499165,1,-2,2,5,4,6,5,-9
1511884728499165,-4,-1,-2,-7,-7,-7,-6,-8
1511884728500127,4,2,-2,3,3,-1,-4,-10
1511884728500127,-11,-4,-1,-5,0,-1,2,-4
1511884728520217,-1,5,-1,-1,-2,2,1,-5
1511884728520217,0,-4,3,3,-2,2,7,5
1511884728527193,-1,-4,-6,-3,-3,4,-8,0
1511884728527193,1,-1,2,2,0,-13,-23,-5
1511884728552443,-4,1,-3,-2,4,11,6,1
1511884728552443,0,2,4,0,-7,-15,-11,-9
1511884728553367,2,2,2,11,10,1,18,13
1511884728553367,-2,-4,6,4,-4,2,-3,-8
1511884728574318,-2,-6,-16,-15,-9,-2,-9,2
1511884728574318,1,2,-9,-16,-5,3,6,1
1511884728575321,-2,0,1,-1,-1,-1,-15,-2
1511884728575321,-2,-3,-4,-3,-2,-3,0,-3
1511884728595485,-4,-5,7,10,4,12,6,-2
1511884728595485,2,2,2,6,0,-2,2,5
1511884728603536,-2,2,3,-6,-1,-9,-11,-5
1511884728603536,-1,-10,-3,-2,-3,4,8,-1
1511884728626495,2,9,6,10,10,6,4,-1
1511884728626495,-2,-7,4,5,1,-5,-16,-11
1511884728627499,-10,-5,-7,-4,-4,4,8,-3
1511884728627499,7,8,3,-1,2,0,-13,5
1511884728648624,-3,-2,-3,-2,-2,-13,-6,-3
1511884728648624,1,-2,-1,-1,-2,4,5,-7
1511884728656739,7,3,9,4,-3,0,5,17
1511884728656739,-4,-5,-6,-5,-1,11,-4,-10
1511884728679096,-1,0,-8,-15,-6,0,7,3
1511884728679096,3,5,3,8,6,-2,5,-1
1511884728680953,0,3,0,3,9,9,4,2
1511884728680953,0,1,-3,-12,-6,-3,7,-1
1511884728701019,2,0,5,5,-1,-4,-9,2
1511884728701019,2,0,-2,2,1,2,2,7
1511884728707015,-2,1,0,-3,-6,-4,-7,-9
1511884728707015,-2,-4,-8,-10,-5,-4,5,8
1511884728732133,-1,1,2,-4,-3,-1,-2,-1
1511884728732133,-3,1,0,9,3,-3,2,1
1511884728734118,1,-1,-3,-13,-6,4,-1,-4
1511884728734118,1,3,3,6,2,6,9,-3
1511884728753331,1,-1,-1,2,-2,-7,-16,5
1511884728753331,-1,3,2,-3,-7,-6,2,1
1511884728761283,0,-4,1,10,6,8,-2,-4
1511884728761283,-3,2,2,-5,-6,-15,3,3
1511884728762159,0,-2,-6,-4,0,-2,1,-4
1511884728762159,-3,0,0,2,10,-3,-18,1
1511884728763277,-2,-2,-6,-7,-11,-7,-6,-3
1511884728763277,-3,-3,0,-3,1,5,0,-5
1511884728767289,-2,3,6,7,3,-7,-4,0
1511884728767289,1,-3,3,0,-4,9,7,4
1511884728778256,-2,-4,-3,3,1,-7,-11,-2
1511884728778256,-2,-1,-5,-9,-7,3,3,1
1511884728778256,1,1,0,-4,6,5,9,4
1511884728778256,-1,1,-7,-5,3,0,-1,-3
1511884728779262,1,-3,2,4,-4,-5,2,4
1511884728779262,-1,-3,-4,4,6,4,8,2
1511884728783294,-2,0,4,-1,-3,1,1,-10
1511884728783294,0,-1,2,-3,-9,0,1,11
1511884728784385,-1,1,8,12,14,1,2,0
1511884728784385,1,-1,1,0,-5,-7,-14,-6
1511884728791296,3,0,-1,0,-3,-5,1,11
1511884728791296,-6,-4,-1,3,3,1,6,-3
1511884728793302,-2,-1,-12,-18,-4,-6,-7,-8
1511884728793302,-3,-2,-9,-7,-8,-6,0,5
1511884728797312,2,1,4,11,5,2,8,2
1511884728797312,1,0,3,-2,0,5,3,-1
1511884728805526,1,0,2,10,-1,-7,-13,7
1511884728805526,-3,-2,-1,-2,2,2,-3,-7
1511884728820397,-1,-3,-9,-14,1,4,6,-3
1511884728820397,1,1,1,3,0,-8,-6,0
1511884728827392,0,-1,2,-2,4,2,0,-3
1511884728827392,1,-1,2,-1,-5,-4,-10,-4
1511884728843529,0,-1,1,4,-14,15,26,2
1511884728843529,3,-3,-4,2,28,12,7,3
1511884728844435,1,2,5,5,0,-9,-5,0
1511884728844435,-2,-4,3,16,4,2,-3,-5
1511884728857652,-4,0,-12,-18,-8,-8,-6,0
1511884728857652,-5,-7,-10,-14,-11,1,3,-8
1511884728864491,1,3,3,6,2,0,7,1
1511884728864491,1,1,2,-1,2,6,-4,-2
1511884728879592,-4,-2,2,-4,-3,-9,-20,-7
1511884728879592,-2,0,-1,7,-5,-11,-14,-1
1511884728887724,-3,-5,-7,-10,-3,6,-2,-1
1511884728887724,2,4,1,0,-3,-7,0,-1
1511884728902737,2,-1,0,2,5,3,-3,6
1511884728902737,-1,3,3,-4,-2,6,4,-5
1511884728903654,-1,-1,4,5,-1,-7,-6,-2
1511884728903654,5,1,1,-1,1,7,26,4
1511884728917703,-7,-2,-1,2,4,-1,-2,-5
1511884728917703,-1,-2,-2,-7,-10,-7,-3,3
1511884728924862,1,0,-5,-3,-4,-1,2,0
1511884728924862,1,-2,0,0,-1,1,4,1
1511884728939905,2,-1,-2,0,0,3,1,-6
1511884728939905,-2,-1,4,5,-5,-12,-18,-5
1511884728947969,-3,-1,-2,3,9,20,24,-2
1511884728947969,-3,0,-5,-14,-10,-7,-8,-3
1511884728962963,4,-3,-4,-5,2,-9,4,3
1511884728962963,-1,-2,1,-6,-8,-8,-6,-1
1511884728963966,1,0,-3,-8,-2,10,3,-2
1511884728963966,2,2,10,23,10,-10,-16,1
1511884728977000,0,2,4,8,-1,7,9,-1
1511884728977000,-3,-5,-3,-7,-8,-3,1,-4
1511884728985023,0,-3,-11,-13,-6,-12,-5,2
1511884728985023,-2,-1,0,-2,0,8,1,1
1511884729000062,2,3,3,3,5,-8,-7,4
1511884729000062,1,2,5,9,4,3,5,4
1511884729008083,-2,2,9,8,0,8,3,-4
1511884729008083,1,-1,-5,-3,2,-11,-10,-2
1511884729023146,-1,-4,-5,-2,1,6,12,10
1511884729023146,0,1,-7,-9,-7,-2,-2,-1
1511884729031229,0,0,0,0,-1,0,0,1
1511884729031229,-2,0,5,5,3,1,-4,-1
1511884729037353,-1,-1,-2,1,-1,-8,-5,-6
1511884729037353,0,1,-2,-7,-3,-5,-5,3
1511884729045184,-3,-4,-4,-8,-6,-1,0,1
1511884729045184,-1,0,6,2,2,1,8,1
1511884729060235,0,-1,2,11,8,4,-12,-5
1511884729060235,1,-1,0,2,3,2,7,-4
1511884729068250,2,3,-6,-6,-2,-1,1,3
1511884729068250,-4,-4,-11,-10,-3,-3,3,-1
1511884729082284,-2,-2,0,0,-10,3,-1,-4
1511884729082284,3,1,5,8,4,-4,-3,5
1511884729090304,0,-2,-2,5,0,-10,-8,-7
1511884729090304,1,0,-4,-4,3,4,1,1
1511884729097324,1,-1,1,-3,-4,-8,-16,-5
1511884729097324,-5,-3,3,2,0,0,5,-2
1511884729105542,1,1,5,5,-1,-2,0,-1
1511884729105542,-1,0,-2,-5,-4,3,0,2
1511884729121595,-1,-2,-10,-6,-3,-1,1,-1
1511884729121595,-4,-2,-6,-10,-4,6,13,-4
1511884729127614,-2,2,2,0,1,-11,-19,-1
1511884729127614,1,0,3,10,3,-2,6,7
1511884729142771,0,5,8,7,4,9,-3,-4
1511884729142771,1,0,-3,1,-1,-7,6,1
1511884729150796,-1,-1,-3,-1,-2,8,7,4
1511884729150796,1,2,2,1,2,-2,-9,-3
1511884729157936,-2,-4,-10,-12,-7,-3,2,1
1511884729157936,-3,-1,-7,-7,-3,-2,-5,-1
1511884729165151,1,1,4,-3,-4,-10,-4,4
1511884729165151,-2,-2,0,5,2,21,11,-4
1511884729189019,1,-3,2,4,7,-2,-2,-4
1511884729189019,0,0,1,4,-4,10,-2,-4
1511884729189019,-1,-1,2,0,1,-4,5,3
1511884729189019,-1,0,-2,-1,-5,-14,-10,-5
1511884729202052,-1,-4,-7,-8,0,6,0,2
1511884729202052,0,3,9,8,3,7,2,-1
1511884729211080,1,-2,2,1,0,-2,-4,0
1511884729211080,-4,-5,-9,-8,-7,-5,-5,-5
1511884729226116,0,2,-2,-5,-3,-4,0,-2
1511884729226116,-2,-1,-2,-5,-1,-6,-7,1
1511884729226116,-1,-1,-3,-1,-2,8,6,2
1511884729226116,3,4,8,5,3,-8,3,0
1511884729240154,0,-1,9,12,1,-7,-7,3
1511884729240154,0,-2,-8,-13,-5,4,-3,-3
1511884729248366,-1,-1,-11,-7,2,1,0,-2
1511884729248366,-2,-2,1,3,-4,1,-2,-3
1511884729262215,-1,2,2,0,1,-1,7,3
1511884729262215,-1,-3,1,-1,-5,-12,-7,0
1511884729270237,-1,-3,-1,3,8,1,-1,-3
1511884729270237,-1,-2,-4,-13,-5,0,1,-1
1511884729285432,1,2,4,5,-1,1,3,0
1511884729285432,1,2,0,6,3,0,-4,-3
1511884729286277,-1,-1,0,-1,2,2,4,-1
1511884729286277,-1,-3,-5,-3,-4,-2,-2,-1
1511884729300389,-1,0,-4,-7,-3,-3,-4,-2
1511884729300389,1,-3,-5,-9,-4,3,10,1
1511884729308536,-2,1,2,2,-3,1,-5,-1
1511884729308536,-2,3,3,8,4,-9,-4,-3
1511884729322796,-1,1,1,-1,-2,-1,-10,-1
1511884729322796,-1,-4,-7,-7,-1,0,3,0
1511884729330904,1,-1,3,2,-2,1,3,2
1511884729330904,1,-1,2,0,2,0,-13,0
1511884729345847,2,2,8,9,6,-2,7,1
1511884729345847,1,-1,5,16,2,-2,3,-1
1511884729346757,-4,-6,-18,-22,-10,-5,2,-2
1511884729346757,-1,-1,-9,-19,-8,6,3,5
1511884729359796,-2,1,1,1,-2,4,1,-1
1511884729359796,-1,1,4,6,6,-3,-16,-4
1511884729367817,3,0,6,10,5,0,3,1
1511884729367817,1,7,10,15,-1,-4,1,-2
1511884729382870,2,-9,-6,-5,-3,-2,3,0
1511884729382870,-1,-2,-10,-13,-3,0,0,-1
1511884729390877,-4,0,-7,-9,-2,-1,-2,2
1511884729390877,-1,-2,0,1,2,-1,-8,-1
1511884729405931,-1,2,-1,-5,-2,1,13,-3
1511884729405931,0,-3,-3,3,-2,1,1,-4
1511884729405931,3,1,1,-4,-4,-1,-4,1
1511884729405931,1,2,4,1,1,5,6,2
1511884729420081,-3,2,3,4,0,-1,-5,-7
1511884729420081,-2,-1,-1,-1,0,2,4,3
1511884729427974,1,2,3,6,0,0,2,1
1511884729427974,0,-2,3,9,7,-2,-5,-4
1511884729442147,-4,-3,-7,-9,-4,-2,-5,-7
1511884729442147,-2,1,-5,-12,0,10,3,0
1511884729451220,1,-1,2,2,1,6,4,-1
1511884729451220,0,-2,-1,1,-2,1,0,2
1511884729466260,-2,-2,-1,-3,-2,-11,-17,1
1511884729466260,-2,-2,1,-1,-2,12,8,0
1511884729466260,0,1,0,3,0,-2,-1,-2
1511884729466260,-2,-1,2,4,3,-1,4,-1
1511884729480294,1,-2,-6,-2,1,-1,1,3
1511884729480294,-2,0,-1,-1,-7,0,3,0
1511884729488274,-1,-1,-3,-4,-7,-4,-10,-5
1511884729488274,-2,-4,-10,-8,0,4,27,2
1511884729502313,0,2,2,-1,-2,0,-3,-1
1511884729502313,1,1,7,7,5,0,-3,0
1511884729510377,-4,-4,6,5,-6,-17,-13,-4
1511884729510377,-2,-4,-6,-2,1,4,-7,1
1511884729525373,-2,-3,-5,-10,-2,6,8,-1
1511884729525373,2,1,-1,0,5,-5,6,4
1511884729526375,-2,0,-1,4,2,0,-8,-5
1511884729526375,-2,2,7,3,-1,-8,-4,2
1511884729540443,0,-4,-4,0,-4,4,-4,-1
1511884729540443,0,-1,-3,-2,-1,-3,-6,0
1511884729547471,0,1,4,5,6,6,6,0
1511884729547471,0,-1,-1,-1,0,1,-1,-4
1511884729562470,-1,-1,-4,-11,-3,-2,-2,2
1511884729562470,-1,1,-1,0,-4,-1,-1,-3
1511884729570686,-1,-1,3,2,4,3,15,0
1511884729570686,3,-2,3,2,-4,-9,-10,-6
1511884729585712,0,-3,1,-2,1,0,21,2
1511884729585712,-1,-2,-8,-2,2,-1,1,2
1511884729586532,-2,-2,-6,-11,-4,0,-2,-4
1511884729586532,1,3,0,-4,-3,6,10,2
1511884729599659,3,2,16,27,9,-7,-16,2
1511884729599659,-3,-5,-1,-7,-8,-11,-8,-3
1511884729607665,-1,-4,-15,-16,-10,-5,-6,-1
1511884729607665,-2,-4,-8,-9,-4,3,6,0
1511884729622727,-2,0,-1,-2,0,4,-5,-2
1511884729622727,-1,3,8,12,9,2,-1,-3
1511884729630777,0,3,12,16,5,-5,-4,0
1511884729630777,2,-2,-4,-2,-6,-2,0,6
1511884729645694,-3,-4,-10,-15,0,12,8,-1
1511884729645694,-1,-3,-6,-10,-9,-9,-6,-5
1511884729646693,2,0,2,2,4,4,3,0
1511884729646693,0,2,10,11,8,4,-1,-1
1511884729659748,2,0,-1,11,-1,-2,-2,1
1511884729659748,-1,-2,-3,-5,-4,-2,1,5
1511884729675773,-3,-3,-9,-17,-7,2,-2,-3
1511884729675773,-1,-2,-4,-1,-1,-6,-1,-1
1511884729682787,-2,0,5,3,1,-4,-7,-3
1511884729682787,-1,1,6,12,4,6,-3,-5
1511884729690937,-2,-2,-4,-5,-7,2,4,3
1511884729690937,0,-2,-4,-11,-4,-7,-7,0
1511884729705898,0,0,-4,-2,-3,-1,-2,1
1511884729705898,1,1,3,1,2,-6,-13,-3
1511884729706855,3,1,2,8,8,17,13,9
1511884729706855,1,3,2,1,-2,-7,-2,1
1511884729719889,-1,-2,-3,4,3,-2,-2,-2
1511884729719889,0,-2,-7,-16,-9,-6,-2,-1
1511884729727941,-2,-1,3,2,1,-3,-2,-3
1511884729727941,-1,-3,-6,-2,0,6,1,0
1511884729742948,-2,3,7,7,-1,-5,1,1
1511884729742948,0,-2,0,-2,2,3,6,4
1511884729751008,-4,-6,-14,-13,-6,-9,-11,-6
1511884729751008,-1,-1,1,-1,1,-1,0,-2
1511884729766033,-1,1,7,-2,-5,0,4,-1
1511884729766033,1,-2,-1,10,3,5,4,-1
1511884729766033,3,2,2,-3,-2,-4,-1,0
1511884729766033,0,0,-3,-1,-4,-4,-5,-4
1511884729780049,-3,-2,-4,-4,-3,-8,-3,-2
1511884729780049,2,0,0,-6,1,5,2,2
1511884729787262,2,0,3,4,0,-12,-12,-1
1511884729787262,-2,1,-1,4,4,10,15,1
1511884729802497,0,-3,-3,-2,-3,-2,11,4
1511884729802497,1,0,-6,-5,-2,1,9,2
1511884729810362,-2,-2,-4,1,0,0,-11,-1
1511884729810362,-2,-1,-1,-2,0,-4,-1,-2
1511884729825402,0,2,5,3,0,3,-3,-3
1511884729825402,0,1,4,5,0,0,-1,-1
1511884729826400,-2,-3,-1,8,7,2,5,-2
1511884729826400,-2,-1,-6,-11,-7,-5,-3,-8
1511884729839515,2,-2,-1,5,7,1,-8,6
1511884729839515,-2,-2,-5,-8,-8,-8,-4,-3
1511884729847538,0,-1,4,6,2,5,4,-3
1511884729847538,0,-3,3,-5,0,3,-3,-2
1511884729862900,1,0,-9,-7,-3,-2,-2,10
1511884729862900,-2,2,5,5,2,-2,-1,1
1511884729870790,0,1,3,3,2,5,1,-1
1511884729870790,1,-1,0,5,0,0,-3,1
1511884729885802,2,2,0,-6,-1,-4,4,-2
1511884729885802,-3,-7,-9,-3,1,1,-1,2
1511884729886802,-1,-2,-2,-9,-6,-3,-1,-3
1511884729886802,2,0,-2,-3,-1,6,5,2
1511884729899839,-2,-1,-4,-4,1,-7,-11,-8
1511884729899839,-1,4,6,6,0,8,25,2
1511884729907858,1,-1,0,0,-4,-5,-2,-2
1511884729907858,0,-1,-2,4,4,-13,-16,-1
1511884729922336,-2,-4,2,3,-2,2,7,-6
1511884729922336,-1,-2,-4,-5,-6,2,-3,3
1511884729931232,1,-4,-3,-2,3,-1,4,2
1511884729931232,-3,0,3,3,0,9,3,-4
1511884729954323,0,-4,-7,-9,-8,-1,-3,4
1511884729954323,-2,1,-3,6,9,1,-9,-1
1511884729954323,-3,-1,-2,-9,-10,-6,-3,-2
1511884729954323,2,0,3,3,2,-6,-3,0
1511884729960353,0,-1,4,4,2,5,1,-2
1511884729960353,0,-2,-7,-12,-8,-6,-12,-6
1511884729967331,0,-2,-6,-6,1,2,2,2
1511884729967331,-1,0,0,3,2,-2,-1,0
1511884729982696,1,0,4,1,-1,1,0,0
1511884729982696,1,-1,5,5,3,-3,-1,1
1511884729990532,-1,1,1,8,2,3,3,-1
1511884729990532,-2,-4,-8,-16,-9,-8,-5,-2
1511884730005572,-2,0,-6,-4,-3,-3,4,-3
1511884730005572,-1,1,3,3,4,9,-12,-2
1511884730013599,2,1,1,1,-1,-3,-3,-6
1511884730013599,1,1,3,5,1,-3,6,14
1511884730019710,-2,-3,-5,-9,-6,7,-4,-4
1511884730019710,0,1,0,3,2,-8,4,-1
1511884730027757,0,1,0,-1,0,5,-1,0
1511884730027757,0,-1,2,3,2,6,10,2
1511884730042852,-2,2,-1,1,-1,-4,-8,-5
1511884730042852,1,-1,-1,-2,-4,-3,-2,1
1511884730050734,-1,0,-2,-5,-2,0,0,2
1511884730050734,0,0,-3,-3,0,0,-4,-1
1511884730073846,-1,-3,3,7,6,6,2,-2
1511884730073846,-1,2,3,1,-4,-6,2,-4
1511884730074756,-4,-5,-13,-12,-2,-4,0,-1
1511884730074756,0,-2,-8,-3,-1,0,-4,-3
1511884730079768,-2,-4,-4,-12,-7,-2,0,-2
1511884730079768,-1,2,4,5,4,4,3,0
1511884730087930,2,4,10,15,3,-8,-14,-1
1511884730087930,-1,2,5,5,1,3,1,-2
1511884730102101,-1,-1,-5,-1,1,0,0,0
1511884730102101,-4,-10,-7,-8,-5,-12,-10,-6
1511884730110354,-1,0,1,-2,-4,-5,3,3
1511884730110354,0,-2,-2,-2,1,4,5,0
1511884730125393,3,1,6,7,6,-5,-8,1
1511884730125393,-2,0,-1,0,-1,5,8,-1
1511884730133635,0,1,2,0,0,6,-1,-1
1511884730133635,-3,-2,-1,8,0,-6,-11,-1
1511884730139652,-4,-3,-2,-1,1,-3,1,0
1511884730139652,-1,0,-3,-16,-10,-3,4,-1
1511884730147767,0,-2,-4,-1,-2,-4,-7,-4
1511884730147767,-1,0,1,-2,1,2,5,0
1511884730162839,1,0,-1,5,2,2,0,2
1511884730162839,-1,-2,-6,-5,1,4,-2,0
1511884730170826,-1,0,3,2,5,-1,0,-2
1511884730170826,-1,-1,-5,-6,-5,2,2,-3
1511884730193714,-2,-4,-5,-8,-4,-2,2,-2
1511884730193714,2,2,6,10,1,2,-4,1
1511884730194713,-3,0,5,7,1,4,4,0
1511884730194713,-2,0,-5,-4,1,-4,-7,-1
1511884730207750,1,2,-1,2,0,1,-6,0
1511884730207750,-3,-1,0,-6,-3,-5,-1,-1
1511884730208752,0,-3,-3,-1,4,6,4,2
1511884730208752,-1,0,4,4,0,0,-4,0
1511884730222943,-3,0,-6,-7,-8,-9,-2,-3
1511884730222943,-2,-5,-2,-2,1,5,-5,-1
1511884730231020,0,2,-1,0,-4,-9,-7,0
1511884730231020,-1,0,4,4,4,-3,3,0
1511884730245058,3,2,4,7,1,2,2,1
1511884730245058,1,1,-6,0,2,-6,-1,-3
1511884730253224,-1,0,0,-10,-1,6,1,1
1511884730253224,-3,-6,-12,-13,-7,-4,2,-1
1511884730268156,-2,0,7,6,8,3,-1,1
1511884730268156,3,3,10,8,0,-3,-8,-2
1511884730269160,0,-3,-7,3,-4,-7,0,3
1511884730269160,4,0,5,-4,0,3,2,3
1511884730282243,-3,-3,-10,-13,-4,5,-2,-5
1511884730282243,-1,0,0,4,3,0,0,0
1511884730290335,-1,0,1,-4,-2,0,3,1
1511884730290335,-1,-1,6,6,-6,-6,2,1
1511884730305378,-2,-3,-2,0,-1,-8,-12,-2
1511884730305378,1,2,3,1,-1,6,3,1
1511884730313429,0,-1,-2,0,0,-7,-2,-2
1511884730313429,-2,-2,-4,-6,-3,4,-6,1
1511884730328453,1,2,2,1,3,1,0,1
1511884730328453,-1,-1,-5,-8,-3,-5,3,2
1511884730328453,0,-2,1,3,-1,5,7,1
1511884730328453,0,-1,2,0,-2,-5,-8,-5
1511884730342646,1,1,1,4,-3,-1,0,-3
1511884730342646,-1,-3,-1,-4,0,1,4,1
1511884730350758,-1,0,5,8,3,3,3,2
1511884730350758,-2,-3,-9,-4,-1,-1,-2,0
1511884730364945,-1,0,-5,-9,-6,-1,5,1
1511884730364945,-1,-1,1,1,-2,-2,-3,-2
1511884730373029,0,-3,-8,-10,-4,-2,-4,-2
1511884730373029,-1,2,4,8,1,0,-5,-7
1511884730395945,3,0,-1,1,-1,2,1,3
1511884730395945,-1,-1,-2,-3,0,-12,11,0
1511884730396905,0,0,-1,1,0,3,-4,-1
1511884730396905,0,0,-1,-1,1,1,-1,-1
1511884730401925,-2,-1,3,1,-2,-3,5,-2
1511884730401925,1,0,3,3,3,1,-11,-1
1511884730410983,-1,1,2,3,2,2,3,5
1511884730410983,-3,-3,-6,-5,-7,-5,-5,-1
1511884730425025,0,2,-2,-6,0,-2,-2,0
1511884730425025,-3,-4,-2,5,5,6,11,-3
1511884730433048,1,0,-2,-7,-3,4,-15,-4
1511884730433048,0,-1,-1,-1,-3,-4,-2,-1
1511884730448088,1,-1,4,6,0,1,3,1
1511884730448088,0,0,0,5,3,5,3,1
1511884730449067,-1,-1,-3,-3,-1,-6,-3,-5
1511884730449067,0,2,4,2,2,12,9,0
1511884730471329,-2,-4,-6,-8,1,-5,-10,-4
1511884730471329,-1,-1,-10,-8,-6,-4,-10,4
1511884730472203,0,-1,7,6,4,-7,1,-1
1511884730472203,1,-1,0,2,-1,-2,-3,-2
1511884730485351,0,0,-1,4,5,2,4,-1
1511884730485351,1,1,2,-3,-6,-1,-4,1
1511884730493263,0,-1,0,1,-1,-1,2,-2
1511884730493263,1,-2,1,-1,6,0,-3,0
1511884730508300,1,-1,7,11,3,1,2,-1
1511884730508300,-2,-3,0,3,-1,2,-5,1
1511884730509307,-2,-3,-10,-19,-9,0,3,-1
1511884730509307,-1,2,-5,-7,-3,1,7,-3
1511884730522340,1,2,3,2,3,-5,-1,3
1511884730522340,0,0,6,9,-1,3,4,1
1511884730530361,-2,-2,-6,-7,-7,1,0,-2
1511884730530361,-2,-4,-3,-6,-2,-3,-3,0
1511884730545407,-3,2,-4,-3,0,4,5,0
1511884730545407,-1,-1,1,8,8,2,7,0
1511884730553422,2,2,5,10,6,3,-1,-2
1511884730553422,0,-1,2,1,-5,0,12,8
1511884730568605,-1,-1,-4,-6,-8,0,5,-2
1511884730568605,-1,-3,-3,-5,-1,-2,-6,-1
1511884730569468,0,1,-7,0,5,10,8,1
1511884730569468,1,0,0,-1,-4,-2,-4,-1
1511884730582499,1,-1,1,3,5,4,-1,0
1511884730582499,-1,1,-1,-6,-9,-4,-2,-6
1511884730590519,-3,-3,-1,0,0,-2,0,-1
1511884730590519,-3,2,5,12,5,-5,-3,-4
1511884730604740,-1,-2,9,16,3,-5,-4,1
1511884730604740,-4,-5,-21,-35,-9,2,-4,0
1511884730613582,-1,-3,-2,-3,-2,-6,-1,-2
1511884730613582,0,-1,-2,-4,-7,-5,-8,-1
1511884730627620,1,0,1,8,14,7,6,2
1511884730627620,-2,0,8,14,1,-1,0,-3
1511884730628619,0,3,12,12,3,1,-1,-2
1511884730628619,1,-1,-5,-2,3,-7,-9,2
1511884730642839,-2,-4,-11,-13,-5,-2,-4,-2
1511884730642839,0,1,-5,-2,-7,1,-3,-2
1511884730650862,1,-3,-5,-15,-12,-2,1,1
1511884730650862,-1,1,4,7,9,-1,1,-1
1511884730664859,0,1,6,6,-6,3,0,2
1511884730664859,1,2,4,17,11,-2,-2,-1
1511884730672882,-5,-4,-16,-25,-14,-4,-3,-3
1511884730672882,0,1,3,2,0,6,1,-2
1511884730688042,1,-3,-5,-14,-12,-8,1,-1
1511884730688042,-1,-4,0,3,10,8,0,0
1511884730688923,3,2,10,17,11,3,6,9
1511884730688923,-1,-2,-3,-4,3,4,1,-1
1511884730701955,-1,-1,3,0,-6,-2,-3,-3
1511884730701955,0,1,7,5,-1,-2,2,0
1511884730711103,1,-1,-8,-6,-14,-1,-1,4
1511884730711103,-3,-5,-11,-11,5,3,-4,-5
1511884730725021,-2,0,0,-5,-5,-7,0,0
1511884730725021,-2,2,4,7,5,11,-2,1
1511884730733172,0,4,11,18,16,-1,1,-5
1511884730733172,-2,-1,-7,-9,-11,-1,2,0
1511884730749090,-5,-3,-16,-22,-8,4,-1,-4
1511884730749090,-1,-3,-7,-8,-12,-9,-12,0
1511884730749090,-2,2,2,8,11,5,-4,-2
1511884730749090,4,0,3,1,-2,-3,-8,3
1511884730762241,-2,-2,7,11,-1,5,11,-5
1511884730762241,4,1,2,5,7,-10,-7,3
1511884730771144,-1,-1,-2,1,0,-5,-7,-6
1511884730771144,1,-2,0,6,8,13,18,1
1511884730785210,-1,-2,-3,-4,-1,-6,-18,-3
1511884730785210,-3,-2,-4,-9,-20,-6,2,-3
1511884730793243,-3,-3,-3,-1,16,0,10,-3
1511884730793243,2,4,14,24,22,8,14,2
1511884730808241,3,0,-1,-15,-28,-4,-8,3
1511884730808241,0,-1,-7,-4,-10,4,5,1
1511884730809244,-3,0,0,6,16,5,-12,-7
1511884730809244,1,-3,-2,-5,-1,-6,23,5
1511884730822530,2,6,9,19,16,-7,-17,-1
1511884730822530,-1,1,0,6,12,-2,13,-2
1511884730830428,-1,-6,-5,-16,-19,22,-12,-1
1511884730830428,-3,-3,-13,-11,3,-11,-20,-7
1511884730844464,-2,-3,-12,-13,-5,1,22,2
1511884730844464,0,3,3,-7,-6,-11,-4,-1
1511884730853673,0,2,8,12,-1,-4,-3,3
1511884730853673,-3,-1,3,10,-7,1,-7,-3
1511884730868630,0,-3,-1,-1,0,-10,-3,-2
1511884730868630,1,1,2,3,4,-1,-6,-2
1511884730868630,3,4,0,-2,-3,-10,2,4
1511884730868630,-2,-1,3,-1,3,21,10,-3
1511884730882697,2,5,4,8,2,-11,-24,-2
1511884730882697,-2,-5,-7,-1,-2,1,9,-1
1511884730890587,-4,-5,-4,-13,11,34,-11,0
1511884730890587,3,-3,-4,-13,-45,-37,-6,1
1511884730904809,-3,-1,1,5,32,34,-2,-3
1511884730904809,0,2,4,-5,-15,-31,-18,-2
1511884730912647,-1,-1,-2,-2,-8,-2,22,0
1511884730912647,-4,-6,-8,-3,8,-1,-20,-5
1511884730927687,2,3,5,7,-2,10,11,2
1511884730927687,0,-3,-4,-9,6,10,13,-2
1511884730936024,-4,-8,-15,-16,-31,-21,-2,-2
1511884730936024,-1,4,7,4,11,4,0,1
1511884730942855,-3,1,9,8,-1,-7,-4,1
1511884730942855,-3,-11,-16,-5,2,15,20,4
1511884730951071,3,4,2,2,11,-13,-16,2
1511884730951071,6,0,1,6,-11,0,10,4
1511884730965266,1,-1,-3,-4,1,-4,13,4
1511884730965266,-3,1,-1,-12,-4,-7,-15,-11
1511884730973264,3,-1,2,3,-3,8,19,9
1511884730973264,-6,-1,-1,-3,-8,-13,-30,3
1511884730987285,-2,-2,0,3,5,14,28,-1
1511884730987285,0,0,7,12,6,-1,-6,1
1511884730995221,4,-1,-2,-2,-12,-25,-2,-3
1511884730995221,4,2,2,-2,3,17,11,-1
1511884731002528,1,-3,-3,2,10,5,-4,3
1511884731002528,-3,2,-5,-18,-14,-4,2,-5
1511884731010517,-4,0,3,6,5,0,-9,-8
1511884731010517,-2,-2,-4,-2,-2,-9,-7,-3
1511884731025423,1,0,-3,-5,-5,-5,-8,3
1511884731025423,-2,-2,-1,3,7,6,-14,-5
1511884731033636,-2,-1,0,2,-7,-12,-8,9
1511884731033636,-10,-6,-4,-5,3,16,-1,1
1511884731047803,13,2,-5,-7,-14,-8,14,19
1511884731047803,-13,1,3,4,-2,-17,-26,8
1511884731055811,-3,-10,-3,-1,2,12,3,5
1511884731055811,3,1,-3,2,-1,-5,15,12
1511884731062951,-11,-6,-5,-6,-4,-5,-29,-37
1511884731062951,0,7,4,2,2,5,11,17
1511884731078954,19,6,0,3,4,2,11,-10
1511884731078954,3,-5,-2,-5,0,9,3,4
1511884731085093,-12,-2,-4,-3,-6,-13,-5,-14
1511884731085093,9,-4,-3,0,2,0,-1,24
1511884731094121,-17,0,3,3,0,-3,-9,-30
1511884731094121,3,1,0,-3,-5,-13,5,8
1511884731107276,3,-1,-2,-1,5,19,7,-3
1511884731107276,6,-1,0,4,2,4,-5,-10
1511884731116181,-13,-1,0,-4,-3,-4,29,2
1511884731116181,1,-2,-3,-1,-2,-5,-36,-3
1511884731130338,-8,-5,-1,-4,-6,-9,4,-3
1511884731130338,6,-4,-1,-1,-4,-8,-3,20
1511884731139240,9,4,3,2,1,13,3,-3
1511884731139240,-12,1,0,-1,2,-13,11,-18
1511884731145284,11,2,-2,2,-3,-23,-45,13
1511884731145284,-5,-1,0,1,1,18,24,-17
1511884731154277,-3,0,-2,0,-3,-11,-7,-9
1511884731154277,4,1,2,0,0,-4,-1,7
1511884731167518,6,-2,-5,-6,1,6,4,10
1511884731167518,-1,1,3,1,3,-4,7,-5
1511884731176336,-9,1,1,-1,-3,-10,-14,-17
1511884731176336,-3,-3,-3,3,9,20,23,-2
1511884731189546,-2,4,4,2,-1,-4,13,9
1511884731189546,6,0,2,4,2,-4,-39,-8
1511884731199416,0,0,0,2,2,5,16,15
1511884731199416,-4,-1,-3,-4,-10,-11,-22,-15
1511884731205412,4,-3,-2,0,0,6,8,4
1511884731205412,-5,2,0,-1,-1,4,16,-10
1511884731213474,4,3,1,2,2,-13,-7,-1
1511884731213474,1,-1,-1,-1,-2,9,6,-5
1511884731227511,-4,-4,-4,-10,-5,4,1,-5
1511884731227511,0,1,2,7,12,4,-5,-5
1511884731236601,-1,-1,5,4,-9,-7,-5,9
1511884731236601,7,2,1,3,-4,4,11,3
1511884731249794,-3,-4,-11,-9,0,-7,-14,-2
1511884731249794,-2,-3,-18,-21,-12,1,4,-5
1511884731258818,2,1,0,-1,7,11,12,5
1511884731258818,-2,0,3,11,3,-2,-4,4
1511884731264842,3,3,9,16,7,3,3,0
1511884731264842,4,9,19,14,5,-1,-1,-5
1511884731281844,1,0,-10,-1,2,6,10,8
1511884731281844,-6,-4,-23,-43,-21,-11,-14,-13
1511884731287890,3,8,16,2,-6,-1,6,7
1511884731287890,-8,-37,-28,12,13,5,22,6
1511884731296885,6,6,3,-5,2,7,1,7
1511884731296885,-1,13,19,17,2,-2,-3,-6
1511884731309916,2,-18,-16,-23,-8,-2,-2,-4
1511884731309916,4,13,-2,-22,-12,-3,2,1
1511884731318944,-3,-1,1,0,-8,-5,-15,-3
1511884731318944,-1,-18,0,4,16,3,1,-1
1511884731324958,-3,11,20,26,1,-5,0,0
1511884731324958,-3,-3,-6,-7,-14,1,-3,-4
1511884731333978,-1,-9,-16,-14,-2,-9,-1,3
1511884731333978,3,9,-4,-21,-13,6,0,-6
1511884731348064,-2,4,10,21,16,10,16,-12
1511884731348064,-5,0,2,-1,19,11,16,-4
1511884731356137,14,7,8,6,-10,-37,-12,6
1511884731356137,-8,-12,9,19,13,35,30,8
1511884731370076,-1,4,-9,4,11,3,8,-10
1511884731370076,7,2,-1,-2,-9,0,-13,22
1511884731379100,-25,-19,-7,-15,-14,-28,-48,-8
1511884731379100,39,16,6,12,8,-3,34,18
1511884731385118,-14,-4,-13,-17,1,25,-20,-14
1511884731385118,-10,8,8,1,-13,-14,22,-7
1511884731394140,-2,5,6,6,1,1,-37,-5
1511884731394140,-23,-28,-14,-4,9,11,-7,-3
1511884731407219,22,-5,-7,-14,-22,-32,-13,36
1511884731407219,-2,7,5,2,13,24,7,-17
1511884731416232,-8,-5,-2,1,-3,4,18,-27
1511884731416232,4,-1,2,1,-3,-10,-12,12
1511884731430238,3,17,1,-6,6,11,5,-15
1511884731430238,-2,-41,-10,1,-5,-18,-14,-2
1511884731439264,-1,12,4,2,3,14,18,7
1511884731439264,3,15,-5,-5,-1,0,-3,-2
1511884731445278,-14,-26,-8,-3,-8,-19,-29,15
1511884731445278,4,18,6,2,-7,-13,13,7
1511884731454300,-8,-8,-5,0,9,2,-36,-4
1511884731454300,-5,5,2,1,-1,-5,-7,-23
1511884731467463,3,0,-3,-6,-9,-9,7,-12
1511884731467463,12,11,6,1,0,-2,-3,21
1511884731476357,2,-33,-11,-6,1,19,8,-2
1511884731476357,-27,-8,1,-2,-9,-20,-23,9
1511884731489690,1,17,4,9,12,11,24,-21
1511884731489690,0,5,4,-10,-14,-5,-17,-3
1511884731499539,0,-1,-1,9,9,13,22,4
1511884731499539,12,3,-7,-12,-8,-12,-2,3
1511884731504580,-17,-15,-7,-7,-4,1,2,4
1511884731504580,5,-13,-9,-3,0,2,-10,-1
1511884731513618,6,20,12,9,11,12,36,22
1511884731513618,5,0,12,5,-5,-12,-7,-3
1511884731527616,-1,-2,-6,2,0,-4,0,5
1511884731527616,-11,-1,2,5,15,21,17,-8
1511884731536666,9,15,-3,-7,-3,-6,-2,3
1511884731536666,-6,-39,-13,-7,3,2,-16,-6
1511884731549705,2,36,9,-1,0,10,23,-12
1511884731549705,9,-23,4,5,-6,2,18,10
1511884731558701,4,18,12,9,1,-3,-17,6
1511884731558701,-12,23,9,9,5,3,19,-2
1511884731564755,-7,-33,-16,-17,-14,-6,4,-2
1511884731564755,7,-3,-1,16,9,-14,-31,-13
1511884731573826,1,-1,-4,-8,-7,16,15,-9
1511884731573826,5,8,-10,-32,-21,-17,-30,-3
1511884731587897,-5,-11,17,23,-9,-35,-39,-9
1511884731587897,-9,2,-19,-19,9,30,1,4
1511884731596895,-1,-19,-8,-15,4,-7,-4,4
1511884731596895,7,13,27,42,15,1,12,0
1511884731610128,-4,-4,-8,0,-13,1,8,19
1511884731610128,-3,7,-9,-23,-1,-11,-14,-12
1511884731619024,-7,1,2,-3,-14,10,30,-16
1511884731619024,5,0,-8,-6,12,-30,-54,3
1511884731625218,8,8,17,19,6,-6,-5,5
1511884731625218,1,6,11,18,-1,6,8,13
1511884731634119,-1,-3,-1,-8,-7,-7,13,-2
1511884731634119,-7,-10,-9,-2,8,27,6,-14
1511884731647156,1,-9,5,8,21,13,13,-8
1511884731647156,-7,4,-13,-22,-30,-18,-26,-13
1511884731656177,0,0,-8,-8,-3,0,-6,2
1511884731656177,-2,5,1,-10,-8,-3,22,-4
1511884731670328,9,-4,4,1,-5,3,-25,26
1511884731670328,1,5,12,6,13,5,30,7
1511884731679257,0,-2,-6,2,10,9,0,-7
1511884731679257,-2,-2,-2,2,-13,-1,7,10
1511884731685368,-8,-1,-11,-12,2,4,6,-13
1511884731685368,7,6,8,0,-7,-4,-3,0
1511884731694282,-1,-6,2,9,-10,-37,-24,-4
1511884731694282,-3,-3,-15,-19,-3,19,-5,7
1511884731707498,2,2,8,8,-1,-2,25,-8
1511884731707498,0,-5,-6,0,3,-14,-25,-3
1511884731716339,-6,-3,-6,0,7,3,-6,-14
1511884731716339,15,12,5,-1,-2,16,14,11
1511884731730375,-22,1,3,-2,5,10,3,-16
1511884731730375,16,10,3,0,-2,-11,-5,-10
1511884731738556,-14,-24,-7,0,0,10,-3,0
1511884731738556,10,9,6,6,-2,-18,-2,1
1511884731744415,9,10,-7,-10,-5,-4,-4,24
1511884731744415,2,-2,2,-1,3,-2,-4,11
1511884731753611,-10,3,9,6,3,13,5,-20
1511884731753611,-24,-26,-13,-4,-1,-9,-5,15
1511884731767586,4,2,-5,-9,-2,-3,-4,5
1511884731767586,-2,3,3,5,0,6,7,3
1511884731776498,8,5,4,3,3,-4,-2,8
1511884731776498,-5,0,2,3,-4,6,12,-15
1511884731806781,8,0,-3,-7,4,17,26,4
1511884731806781,-7,-5,2,10,9,-2,8,28
1511884731807723,7,-1,-6,-17,-24,-13,1,6
1511884731807723,2,3,3,10,15,10,-9,-5
1511884731827774,1,-4,-1,-1,0,-2,-12,1
1511884731827774,-3,-3,1,3,1,7,13,-18
1511884731837800,-8,0,-2,0,2,-2,6,-2
1511884731837800,6,6,4,1,0,-12,-21,7
1511884731842812,-3,-6,1,-1,-2,-1,-3,-15
1511884731842812,-7,3,0,3,4,-6,-10,8
1511884731850880,4,0,3,3,0,-4,8,5
1511884731850880,-2,-6,-7,-7,-11,-5,8,-7
1511884731850880,-20,-4,-1,0,-1,1,0,-36
1511884731850880,-8,-3,-6,-7,-4,0,-7,20
1511884731858856,29,12,5,1,-2,-10,-13,13
1511884731858856,1,-6,-2,1,0,7,14,1
1511884731865013,14,2,2,-4,1,2,1,-31
1511884731865013,-22,-9,-6,-3,-7,2,6,-29
1511884731873985,-7,-5,-5,2,2,4,-10,12
1511884731873985,-1,4,4,2,1,5,-2,-6
1511884731887114,13,1,-5,-9,-6,-14,-24,20
1511884731887114,-38,-14,-7,-12,-10,-4,0,-48
1511884731896061,26,13,6,9,11,9,2,39
1511884731896061,-2,-1,2,1,2,1,3,-7
1511884731910215,9,0,0,0,-2,9,29,22
1511884731910215,-5,0,-1,1,-2,-2,0,-4
1511884731919199,-12,-2,-2,-2,1,-4,1,-12
1511884731919199,-1,0,1,-2,-5,-1,5,0
1511884731925217,-1,-11,-8,1,0,-1,-10,11
1511884731925217,4,-2,-1,-2,-3,-4,-7,-7
1511884731934240,16,6,0,2,-2,0,7,2
1511884731934240,-17,-20,-4,1,-2,1,0,0
1511884731947284,-10,2,1,-2,5,3,4,-3
1511884731947284,6,1,1,2,1,-1,-4,6
1511884731956297,4,3,2,1,1,3,-2,7
1511884731956297,0,5,2,7,0,-3,3,-8
1511884731970486,-11,-4,-8,-14,-10,-6,10,0
1511884731970486,8,2,3,-3,-1,8,-18,4
1511884731979361,-11,-4,-4,-1,0,3,-7,-11
1511884731979361,4,5,-9,-9,2,1,7,-5
1511884731984371,-3,2,12,16,5,-6,-15,-3
1511884731984371,11,6,2,3,-2,-4,4,8
1511884731994421,-11,-12,-3,-7,-6,-1,0,-5
1511884731994421,1,-1,-7,-7,-3,1,1,9
1511884732007592,-2,1,-4,-3,-4,-8,-24,-19
1511884732007592,28,15,9,3,1,-1,5,42
1511884732016632,-14,-22,4,14,14,1,2,-13
1511884732016632,-18,0,14,18,7,-1,-1,-4
1511884732029661,3,5,-3,5,-2,-2,-2,2
1511884732029661,-5,-10,-28,-32,-2,8,18,-6
1511884732038704,1,1,-2,-8,-3,-13,-3,-1
1511884732038704,9,-2,-6,-17,-12,5,-4,10
1511884732044691,6,7,14,19,14,0,-16,-1
1511884732044691,-5,-3,11,14,-8,-9,21,-13
1511884732053853,-2,1,-14,-15,-10,20,-1,-3
1511884732053853,1,3,6,8,10,-15,-6,-9
1511884732067889,0,0,-1,1,1,7,6,8
1511884732067889,2,0,4,5,3,2,-2,-2
1511884732076913,-10,-2,-4,-4,-11,-14,-2,-14
1511884732076913,3,-1,-14,-27,-16,0,1,5
1511884732089947,-5,-3,-4,-1,-14,8,6,1
1511884732089947,-5,0,3,-2,36,7,-9,0
1511884732098995,11,18,28,32,-8,-5,-4,-1
1511884732098995,-3,-14,2,13,-7,0,12,-1
1511884732114058,-9,-10,-24,-32,1,-6,-7,1
1511884732114058,-1,-5,-6,-6,-22,2,-4,-8
1511884732115049,-2,6,-3,-15,-1,-15,-21,7
1511884732115049,-2,-2,-4,-1,1,-3,7,1
1511884732127045,2,0,7,8,12,-4,-4,-3
1511884732127045,3,4,29,47,9,1,6,-1
1511884732136072,-8,-10,-27,-32,1,10,-5,-4
1511884732136072,5,4,-10,-24,-17,-19,-10,-1
1511884732150307,1,-1,4,8,28,17,15,13
1511884732150307,1,9,3,-7,-12,-1,-5,-5
1511884732159130,-1,-6,15,23,8,9,20,7
1511884732159130,-8,-1,10,18,0,-1,-13,-9
1511884732173482,2,-5,-16,-24,4,-4,-4,14
1511884732173482,4,-2,-4,-4,-23,-14,6,-6
1511884732175312,-1,-6,-16,-17,2,3,12,8
1511884732175312,-4,5,3,5,7,-13,-10,-9
1511884732187650,-1,1,10,-2,-13,1,4,1
1511884732187650,4,2,0,4,4,0,-6,0
1511884732196518,-21,-22,-17,-13,-20,-13,-11,-6
1511884732196518,1,3,-4,-9,2,4,-14,-6
1511884732209653,2,4,5,3,-4,3,4,-12
1511884732209653,3,-7,-7,-6,2,-2,-2,19
1511884732218576,-2,14,11,15,7,-3,-10,-3
1511884732218576,7,3,1,5,10,12,7,-1
1511884732233873,-2,-1,-1,4,1,-4,3,-5
1511884732233873,3,3,-6,-8,-12,5,1,1
1511884732235802,4,-1,4,8,16,4,-11,-5
1511884732235802,-2,-9,2,1,2,5,7,18
1511884732247877,4,4,-1,5,-12,1,10,-1
1511884732247877,-5,2,-11,-8,-12,-39,-21,-6
1511884732256105,3,3,-1,-4,20,33,20,1
1511884732256105,-3,-1,2,5,2,2,0,-7
1511884732270250,3,-4,2,0,-8,-2,3,9
1511884732270250,-7,-3,1,3,17,2,-12,-20
1511884732279193,5,2,-7,-11,-9,-8,16,10
1511884732279193,5,1,0,-2,-4,5,11,6
1511884732294232,-7,-4,-1,1,-8,2,-5,2
1511884732294232,1,4,3,-3,2,13,9,-5
1511884732295233,-4,-5,3,4,-8,-14,-9,-6
1511884732295233,2,10,7,5,6,7,5,3
1511884732322615,-8,-18,-15,-10,-11,-4,4,7
1511884732322615,-3,0,-4,-3,1,7,4,-3
1511884732331469,2,5,5,-1,6,2,-2,0
1511884732331469,-6,-6,-3,5,3,1,-3,-3
1511884732338561,4,10,5,2,-1,-1,-15,-7
1511884732338561,-3,-8,8,9,7,-6,-8,-1
1511884732340492,-3,-1,0,4,-10,1,5,-9
1511884732340492,0,-3,-9,-12,-1,-3,-7,-3
1511884732353710,-1,0,-6,-4,-6,-9,-8,-4
1511884732353710,-2,-5,-9,-14,1,11,6,5
1511884732355533,-1,2,-2,-8,-6,-3,-4,-1
1511884732355533,8,3,-2,-3,-4,-6,-7,18
1511884732367648,2,2,7,9,0,14,22,1
1511884732367648,-4,2,5,9,7,6,14,-6
1511884732376728,6,3,14,17,7,13,-7,11
1511884732376728,-3,-3,-7,-8,-10,-16,-9,-8
1511884732389944,-1,-4,-3,-7,-2,-10,-8,4
1511884732389944,4,4,-4,3,4,5,17,5
1511884732398783,3,-1,-8,-12,-5,14,1,7
1511884732398783,-2,-5,1,2,-2,-4,3,-10
1511884732414079,-2,5,-2,-5,0,-2,-4,-1
1511884732414079,-3,-3,5,3,-1,-2,-7,4
1511884732415061,2,0,4,5,-8,-9,0,-4
1511884732415061,-4,1,-6,3,19,2,1,-7
1511884732427204,-1,-2,-6,-8,-1,0,1,2
1511884732427204,-2,-5,-7,-5,1,0,-7,2
1511884732436217,5,7,12,15,-3,-7,8,1
1511884732436217,4,-1,-3,-8,-9,3,5,2
1511884732450350,-6,-11,-5,-7,1,-1,-2,-9
1511884732450350,-7,-11,-16,-18,-10,-5,-5,1
1511884732459273,-2,-1,2,6,12,-4,-8,-6
1511884732459273,3,8,15,16,0,-3,-5,-2
1511884732474318,0,-3,-1,2,-2,7,-4,0
1511884732474318,6,1,-1,-5,-8,-12,-4,5
1511884732475290,14,0,-6,-7,-5,-2,4,16
1511884732475290,-26,-5,3,5,6,4,-11,-9
1511884732487442,-2,2,3,5,-4,-11,-14,-1
1511884732487442,2,3,2,2,0,11,3,-3
1511884732496342,-5,1,-2,-8,-7,-12,-10,-13
1511884732496342,6,-7,-2,-3,1,13,13,-3
1511884732510379,-1,6,6,12,1,-2,0,9
1511884732510379,-6,3,0,-6,1,-4,-14,-16
1511884732519403,-4,-7,-8,0,0,-8,-11,-1
1511884732519403,1,3,-1,-6,-3,1,2,-6
1511884732548483,-1,-15,-9,-9,8,12,22,2
1511884732548483,3,3,3,-1,-5,-14,-18,-3
1511884732550486,-6,-1,-5,-4,-1,2,3,-4
1511884732550486,6,5,9,13,5,8,4,6
1511884732570785,-3,2,5,8,2,-11,-11,-10
1511884732570785,5,4,3,4,3,5,3,2
1511884732578698,-8,-11,-10,-9,-9,-13,-11,-8
1511884732578698,3,8,-9,-10,0,-5,7,6
1511884732601770,1,2,2,1,1,0,5,1
1511884732601770,7,0,8,9,7,5,5,13
1511884732602770,-6,-3,6,1,-7,-7,-6,-3
1511884732602770,4,-1,-2,0,-3,-4,-6,1
1511884732623822,1,0,-2,-1,1,5,5,-1
1511884732623822,-7,-5,-1,-8,-14,-7,-5,3
1511884732625825,5,4,-3,4,12,11,11,-2
1511884732625825,-3,-9,-9,-15,-2,6,2,1
1511884732645009,2,4,6,7,-3,-5,-6,-5
1511884732645009,2,4,1,15,8,2,8,-3
1511884732654091,-2,2,1,3,2,-3,-3,-3
1511884732654091,-2,-7,-19,-30,-12,3,5,0
1511884732677172,0,1,-3,-7,-3,10,10,-2
1511884732677172,-2,1,7,6,-1,3,-4,-6
1511884732679125,-2,3,10,5,-3,1,5,0
1511884732679125,4,0,10,24,23,4,2,9
1511884732699273,0,2,-4,-11,-12,-10,-8,-6
1511884732699273,-4,-7,-14,-13,-5,-5,4,-2
1511884732700276,-2,0,3,3,8,12,-1,-8
1511884732700276,1,1,7,8,-10,-14,-4,-5
1511884732720457,4,5,-6,-7,-1,-1,0,4
1511884732720457,-11,-8,-3,4,-1,-3,-4,-2
1511884732727350,-2,1,-8,-13,-1,-4,-6,-4
1511884732727350,-2,3,5,1,-10,-11,-2,5
1511884732742388,1,-4,4,9,7,-5,2,9
1511884732742388,1,-2,-4,-9,-7,-2,1,-1
1511884732751511,-1,-5,0,3,0,-2,-3,-1
1511884732751511,0,2,3,2,3,7,-6,-7
1511884732774749,-3,0,2,5,1,-2,7,-1
1511884732774749,-1,-2,-4,-6,0,3,-5,2
1511884732775751,-1,3,4,2,0,9,5,0
1511884732775751,1,0,-2,1,-3,-12,-8,-4
1511884732796807,-2,-4,-6,-9,-7,0,-7,-3
1511884732796807,2,1,4,9,8,10,7,-1
1511884732797828,-2,1,-1,-2,-7,-10,4,2
1511884732797828,0,-1,1,5,3,5,6,2
1511884732816985,-2,-1,-2,-2,0,3,-5,0
1511884732816985,0,4,2,6,3,-5,-2,-2
1511884732825969,3,0,3,4,5,22,12,-1
1511884732825969,-4,-3,-5,-8,-14,-14,-10,3
1511884732849155,-4,-1,-15,-13,-3,1,-2,-2
1511884732849155,-2,-4,-2,-8,0,1,4,1
1511884732850183,-1,-5,9,11,-2,-8,3,3
1511884732850183,-4,0,-2,-1,4,14,5,-6
1511884732871254,5,3,11,6,-3,-15,-17,-9
1511884732871254,0,-3,-8,6,13,3,3,4
1511884732873217,-4,-1,-4,-9,-7,0,2,0
1511884732873217,2,1,4,4,1,0,-3,1
1511884732879266,2,1,4,10,3,5,8,6
1511884732879266,-4,-7,-7,-21,-15,-24,-12,-10
1511884732880241,1,1,-4,-11,-7,-2,-10,6
1511884732880241,2,-1,-3,-2,-1,-3,1,1
1511884732885250,-3,0,1,8,5,7,3,-7
1511884732885250,2,2,8,10,-2,-9,-9,-2
1511884732886252,-2,0,-1,5,5,2,13,4
1511884732886252,-1,-1,-4,-9,-2,2,-5,-5
1511884732893275,-2,-3,-6,-2,-3,-8,7,7
1511884732893275,-1,-2,-7,-7,-5,5,-5,-1
1511884732894278,3,-1,-6,-10,-3,3,18,2
1511884732894278,-1,0,7,13,6,0,3,-1
1511884732901293,-2,2,8,1,-2,2,-7,-6
1511884732901293,-2,-6,-13,-11,-1,1,10,-2
1511884732903303,2,-2,-3,3,-1,0,-10,1
1511884732903303,-2,0,-1,0,-1,-1,-7,-8
1511884732908318,-2,-3,-3,-3,1,2,2,-1
1511884732908318,-3,1,3,-2,-7,-3,-3,-9
1511884732909313,1,-1,-4,-5,5,-5,-1,0
1511884732909313,1,1,3,4,5,13,13,2
1511884732916450,-2,-2,1,0,-9,-8,-15,-4
1511884732916450,5,5,10,24,25,9,10,2
1511884732918339,-2,-2,-3,-7,0,-1,-5,-2
1511884732918339,0,-2,-6,-2,-8,-10,-1,3
1511884732930368,0,-1,-3,-7,-5,-6,2,2
1511884732930368,-1,0,-2,-7,-8,4,0,0
1511884732938588,2,-1,3,7,2,-6,-2,-3
1511884732938588,-2,-1,0,-1,1,-5,-3,-2
1511884732953542,1,2,10,12,4,3,8,5
1511884732953542,0,-1,-9,-8,2,-5,-8,-1
1511884732959618,-4,-3,-7,-8,-5,-6,-8,-5
1511884732959618,3,-4,-9,-14,-8,-3,-6,0
1511884732967791,-3,-2,-1,0,1,1,0,-4
1511884732967791,-2,3,15,13,1,7,19,-1
1511884732976655,0,2,-2,-1,-3,-5,-18,-9
1511884732976655,-3,-4,-4,-1,-3,-9,-12,2
1511884732989766,0,0,2,3,5,2,-2,-3
1511884732989766,0,-3,-5,-5,-6,8,4,1
1511884732998691,1,-1,-1,3,2,-6,6,-2
1511884732998691,-2,2,8,-2,-9,-13,-2,1
1511884733012975,1,2,-3,-1,4,9,-9,-2
1511884733012975,-3,-2,-6,1,0,-2,-3,1
1511884733019971,-1,0,0,-7,-7,-7,-3,0
1511884733019971,3,0,-5,0,13,14,13,5
1511884733036103,-2,-4,-5,-13,-14,-9,-3,-1
1511884733036103,0,1,-3,0,1,6,9,2
1511884733037916,-2,0,9,11,-2,-6,-10,-3
1511884733037916,-1,1,-4,1,-1,7,5,-2
1511884733050134,-2,-3,-8,-10,3,2,-6,-7
1511884733050134,0,-2,0,-2,-7,0,-6,0
1511884733058971,-1,-4,-4,1,0,-1,-6,-1
1511884733058971,-2,-2,-1,-9,-1,7,-1,-5
1511884733073193,2,2,8,11,4,1,6,2
1511884733073193,0,-1,-3,-5,1,2,2,3
1511884733080027,-4,-3,-8,-15,-10,-11,-22,-1
1511884733080027,2,1,2,7,-3,-8,7,2
1511884733096196,-2,-1,-6,-8,0,6,1,0
1511884733096196,1,2,4,3,2,-5,-3,-2
1511884733098188,-1,1,4,4,2,15,9,-3
1511884733098188,0,-1,4,4,1,3,0,-1
1511884733110211,1,2,1,3,1,-9,-10,-2
1511884733110211,-2,-1,1,3,-7,0,5,-4
1511884733119130,1,-1,0,6,12,6,2,2
1511884733119130,-3,-4,-4,-2,-3,0,-13,-3
1511884733133293,0,-4,-6,-14,-4,-1,10,0
1511884733133293,-2,-4,-9,-14,1,-1,-9,-3
1511884733140186,1,2,0,-7,-14,-14,2,3
1511884733140186,2,4,9,9,8,3,3,0
1511884733156335,2,6,12,22,5,8,-3,0
1511884733156335,-1,-6,-3,-3,-7,-9,-12,6
1511884733158239,-5,-4,-17,-20,-4,7,17,-3
1511884733158239,-2,-2,-6,-5,-3,-4,-6,-1
1511884733170407,-2,-2,2,3,-2,-3,5,-2
1511884733170407,0,4,3,4,2,3,3,1
1511884733179433,-2,-3,2,4,3,-2,-1,2
1511884733179433,1,-1,-1,-1,-2,-1,4,1
1511884733193596,0,-2,-3,-6,-1,5,5,3
1511884733193596,2,1,7,7,0,-13,-9,-1
1511884733199600,-1,-1,4,9,2,10,1,-3
1511884733199600,-2,-1,-11,-5,-1,-9,-7,-3
1511884733216646,0,-4,-7,-11,-4,5,2,2
1511884733216646,-2,1,0,1,-3,0,3,1
1511884733217578,1,-1,0,-1,-5,-9,-7,-3
1511884733217578,-1,-1,5,6,4,4,3,0
1511884733229635,-1,2,-3,0,-3,-13,-25,-5
1511884733229635,-3,-4,-11,-20,-11,0,1,-1
1511884733238591,-1,-3,2,9,1,-7,-1,1
1511884733238591,-3,-2,-6,-7,-2,10,9,0
1511884733253630,2,0,-2,-1,9,-3,-8,2
1511884733253630,1,5,15,19,1,4,2,-1
1511884733259744,-3,-3,-5,-1,13,3,-1,2
1511884733259744,-4,-4,-9,-19,-15,-13,-19,-5
1511884733275746,-4,-6,-16,-13,-10,-3,2,-5
1511884733275746,1,1,5,-1,2,5,2,-2
1511884733277694,4,0,7,6,-1,2,0,4
1511884733277694,2,2,14,14,4,7,11,2
1511884733289762,2,2,1,4,5,-7,-1,0
1511884733289762,-4,-1,-7,-9,1,12,8,-4
1511884733298755,-1,2,-6,-6,-2,11,10,-6
1511884733298755,-1,-1,-1,-1,3,-6,-1,4
1511884733312831,-2,-1,5,5,-8,-13,-9,-2
1511884733312831,-2,-2,3,2,4,2,3,3
1511884733319830,1,2,-3,-4,0,7,13,1
1511884733319830,0,0,-1,1,-2,1,-2,-3
1511884733336855,-2,-1,-1,-2,-5,1,6,0
1511884733336855,3,0,-1,1,0,4,7,2
1511884733337855,0,2,5,6,10,-4,-7,1
1511884733337855,-2,-3,-1,2,-2,-1,4,1
1511884733349938,-1,-1,-1,3,-3,-2,2,1
1511884733349938,-1,-3,-9,-8,1,-7,-7,-1
1511884733358914,-1,-2,-4,-10,-11,11,0,-2
1511884733358914,0,1,2,0,-1,-3,-7,-2
1511884733373000,-1,-1,-1,4,1,0,0,-1
1511884733373000,1,-1,-2,-1,10,-3,-8,-2
1511884733379965,0,-1,-5,0,-2,-3,0,-2
1511884733379965,1,-3,-1,-8,-7,-3,-2,1
1511884733396013,0,-1,2,0,3,5,6,-2
1511884733396013,0,0,6,11,0,-6,-13,4
1511884733398015,3,2,-3,0,2,-8,-12,-2
1511884733398015,1,0,-2,-2,-3,0,1,5
1511884733410167,-2,-1,4,7,0,-1,0,-6
1511884733410167,-3,-3,-3,-5,-2,-5,-1,-3
1511884733419183,-3,-4,1,-4,-2,1,-4,-3
1511884733419183,-2,2,-2,-1,-2,-3,2,-1
1511884733433231,2,-5,-7,-13,-3,1,7,3
1511884733433231,-1,-2,-4,1,-2,17,0,-2
1511884733440208,-4,-1,5,6,-3,-7,-5,1
1511884733440208,-3,-2,0,7,5,1,-6,-5
1511884733456300,-2,0,8,6,2,-2,-3,2
1511884733456300,0,1,-3,-5,-3,-8,2,-1
1511884733458254,0,2,-5,-10,-3,-1,14,-1
1511884733458254,-1,-3,-2,-4,-6,2,-5,-3
1511884733470407,2,2,-2,1,9,1,8,5
1511884733470407,0,-2,-3,-6,-5,-11,-16,0
1511884733478609,-2,-2,4,10,6,7,1,1
1511884733478609,-1,0,-4,-3,-2,-15,-6,-2
1511884733492730,-1,-3,-5,-5,-2,16,10,3
1511884733492730,0,3,4,-4,-7,-3,6,0
1511884733499789,0,0,3,7,6,-4,-5,-1
1511884733499789,1,0,4,7,-1,2,-1,1
1511884733516790,-3,-4,-5,-4,-1,0,1,-2
1511884733516790,-2,-2,-3,2,1,-3,1,-4
1511884733517795,-1,-4,-13,-19,-13,-4,-3,1
1511884733517795,-2,0,1,-4,4,5,1,2
1511884733529875,2,4,9,15,5,3,5,-1
1511884733529875,-3,-1,-2,-3,-3,-7,-6,-3
1511884733538849,-2,0,3,5,3,10,18,1
1511884733538849,-1,-1,-2,4,2,-11,-19,-4
1511884733552929,0,-3,-9,-15,1,0,3,0
1511884733552929,1,-2,0,4,-2,10,9,-3
1511884733560044,0,2,5,3,-1,0,-2,2
1511884733560044,0,0,-2,1,3,4,-1,5
1511884733576040,0,-1,1,-5,-9,-6,-10,-2
1511884733576040,3,0,2,10,7,11,4,2
1511884733578066,-1,0,-4,-6,-10,-11,-9,-5
1511884733578066,1,1,2,-4,-2,0,10,-1
1511884733590074,-2,-2,-4,-5,-1,1,-5,-1
1511884733590074,0,-4,5,9,3,2,15,2
1511884733599098,1,-1,-2,-1,-2,-5,-14,-1
1511884733599098,-1,1,-6,-5,5,6,7,0
1511884733613138,-2,-1,3,-1,-3,-3,-4,0
1511884733613138,-3,-2,0,-4,-2,-6,-8,-7
1511884733620158,-1,1,8,8,-4,-2,-10,-1
1511884733620158,3,1,-2,3,7,-4,-4,0
1511884733636394,-4,-3,-5,-6,-3,-1,-6,-3
1511884733636394,-3,-4,-3,-1,-1,-3,-6,0
1511884733638204,0,-2,6,5,0,-3,3,-4
1511884733638204,-2,-1,0,-6,-6,2,0,-3
1511884733650444,0,0,2,-1,5,3,1,-1
1511884733650444,3,-1,1,-1,-5,-4,-3,2
1511884733659289,-2,-3,-10,-5,0,-3,2,-1
1511884733659289,-2,-1,4,2,0,2,0,-6
1511884733673421,-1,-3,-1,1,-2,-1,2,2
1511884733673421,-4,1,-5,-3,-7,0,5,-1
1511884733679468,1,-1,-6,-12,-5,4,5,2
1511884733679468,-3,-3,-3,7,7,-5,-8,-6
1511884733696486,-1,3,0,-9,-5,-2,3,0
1511884733696486,1,3,4,9,5,-1,-11,0
1511884733697493,-1,0,-1,1,0,-6,-6,-2
1511884733697493,-3,-5,-7,-2,-9,-3,2,5
1511884733709525,1,-2,-2,0,3,-3,-4,-4
1511884733709525,0,-1,2,0,-3,-9,-2,-1
1511884733718665,1,3,1,3,4,8,8,2
1511884733718665,-2,-1,1,-6,-1,-4,-4,-4
1511884733733612,1,1,-4,0,-2,1,-1,1
1511884733733612,-3,0,-2,-1,3,-2,0,-3
1511884733747869,0,-2,5,1,2,2,-1,-1
1511884733747869,0,0,-5,-4,-2,2,3,0
1511884733756092,-3,-1,-3,-1,-4,-1,-3,0
1511884733756092,0,1,-6,-11,-5,2,1,-5
1511884733761929,1,-2,4,5,3,-2,2,3
1511884733761929,1,0,6,2,1,14,6,-1
1511884733770106,1,-1,-5,3,0,-3,-2,0
1511884733770106,-4,-4,-4,-13,-5,-3,-4,-7
1511884733778953,-3,1,0,8,8,2,6,0
1511884733778953,2,1,1,-7,-12,-11,-3,2
1511884733793150,-1,-5,-1,-1,-8,-16,-12,-6
1511884733793150,0,-3,-12,-14,0,5,3,3
1511884733800266,-2,-1,0,-3,-5,7,1,-2
1511884733800266,1,2,5,2,13,-1,2,3
1511884733816210,-1,2,6,13,5,3,4,-1
1511884733816210,0,-2,4,5,-2,1,5,2
1511884733822312,-1,-4,-11,-16,-3,0,-10,-2
1511884733822312,1,-2,4,12,1,1,7,6
1511884733830307,-2,-3,-5,-1,2,3,1,-3
1511884733830307,-1,-1,1,-4,-5,-5,-2,-2
1511884733839255,-3,-2,-4,-2,4,0,-3,-5
1511884733839255,1,3,0,-3,-8,0,-2,1
1511884733853418,2,1,3,2,5,-1,5,6
1511884733853418,1,2,2,1,-6,-1,0,0
1511884733860366,1,-2,0,-2,7,-3,7,4
1511884733860366,0,2,-4,-2,1,-1,-7,-5
1511884733875355,-1,-4,-2,6,2,4,21,3
1511884733875355,-2,-3,-3,0,-6,5,8,0
1511884733882510,-3,0,0,-5,-4,-15,-18,-5
1511884733882510,-4,-8,-8,-6,0,0,0,-2
1511884733890525,-1,2,-1,-6,-5,-1,-4,-3
1511884733890525,4,3,14,19,5,7,11,4
1511884733898523,-2,-2,-7,-6,-3,-6,-5,-3
1511884733898523,-3,-2,-7,-14,2,2,2,-2
1511884733912700,-1,-1,2,5,1,-1,-8,-4
1511884733912700,2,1,2,-5,3,-3,0,1
1511884733919703,2,2,5,1,-15,-2,4,4
1511884733919703,-2,1,1,3,-3,-2,-5,-1
1511884733935728,-2,-2,-4,-7,12,2,4,1
1511884733935728,-2,1,-1,6,7,15,-1,1
1511884733942741,2,-2,4,4,-2,-1,6,-3
1511884733942741,0,-1,-3,-1,-3,2,6,-2
1511884733958783,-1,-4,-8,-4,-10,0,-3,0
1511884733958783,-1,0,-4,-14,-1,-9,-17,-1
1511884733960786,0,-2,-2,2,3,10,7,-3
1511884733960786,3,0,7,5,0,2,9,-2
1511884733973031,0,4,7,8,0,-2,-3,7
1511884733973031,-1,-1,0,2,4,4,3,-2
1511884733980058,0,1,-7,-9,-2,-10,-3,0
1511884733980058,-2,-2,-5,2,1,-3,-4,-4
1511884733995969,1,1,6,-1,-5,-1,-2,-6
1511884733995969,-1,-1,0,1,1,6,7,2
1511884734002105,0,1,-3,1,7,-1,-2,2
1511884734002105,0,1,-2,-8,2,13,4,0
1511884734019038,-1,-4,-3,-9,-14,-14,-5,-2
1511884734019038,0,2,-2,0,0,-9,-5,1
1511884734020031,-2,-1,0,4,-5,5,5,0
1511884734020031,1,-1,1,1,-5,-9,-2,-1
1511884734032107,1,1,0,1,7,6,-5,4
1511884734032107,0,-2,5,5,-3,-9,-9,-4
1511884734041185,0,0,0,6,10,3,-2,-1
1511884734041185,-2,-3,-7,-8,-7,-4,-6,1
1511884734055416,-1,-2,-3,-8,-3,2,-1,-3
1511884734055416,-2,-3,-7,-1,-2,-10,-2,-4
1511884734062245,0,1,3,2,-1,3,-2,1
1511884734062245,-2,2,7,13,1,-3,2,1
1511884734078415,-1,-1,2,-2,0,-1,-2,-1
1511884734078415,-1,-2,-7,-2,-1,1,6,1
1511884734080417,-1,-2,0,-3,-7,-13,-12,-5
1511884734080417,-2,-1,-1,-7,-2,-1,-4,-5
1511884734092591,3,-1,-1,1,4,-2,-5,3
1511884734092591,-1,-1,-2,-1,-3,-2,3,2
1511884734101616,0,1,0,2,3,0,2,1
1511884734101616,-1,0,4,5,-4,-5,-13,-1
1511884734115898,-1,-1,5,7,3,5,2,-1
1511884734115898,0,-4,-14,-21,-9,0,-7,-2
1511884734122812,-1,0,0,6,3,-4,-3,-4
1511884734122812,1,1,-5,-7,3,4,10,2
1511884734138979,1,2,1,-2,-8,5,3,-5
1511884734138979,0,0,5,6,5,-3,-8,1
1511884734140858,-2,-2,-7,-7,-7,1,3,0
1511884734140858,0,-2,1,2,1,1,0,-2
1511884734152928,-1,3,5,12,5,-7,-1,1
1511884734152928,-2,-1,-2,-2,6,5,8,4
1511884734160917,-4,-5,-6,-14,-16,-1,-9,-6
1511884734160917,4,1,3,3,5,-2,1,3
1511884734175953,0,0,0,4,7,0,-10,-2
1511884734175953,1,0,2,1,0,7,6,0
1511884734182008,0,-2,-3,0,4,-1,0,5
1511884734182008,-1,-1,5,7,1,-3,-6,-2
1511884734199102,-2,1,7,10,-4,2,2,-4
1511884734199102,3,-2,-10,-7,-4,-6,1,4
1511884734200130,-3,-3,-13,-25,-9,-3,6,0
1511884734200130,1,-3,-2,-5,-6,1,-11,0
1511884734212135,0,3,9,5,8,-2,-7,-6
1511884734212135,0,1,6,21,-2,-1,-3,-2
1511884734221156,-2,0,-6,-4,8,3,2,-6
1511884734221156,-3,-4,-4,-8,-11,2,4,-1
1511884734236196,2,2,1,-6,-5,-3,5,0
1511884734236196,-3,-1,3,7,10,12,2,-1
1511884734242217,1,-2,-2,-10,-14,-14,-6,5
1511884734242217,-4,-3,-5,-3,6,-3,-11,-6
1511884734266476,-1,-2,-10,-8,-5,-4,2,3
1511884734266476,-1,2,-2,-8,-6,-3,3,-6
1511884734268282,4,4,16,24,14,7,-7,4
1511884734268282,-1,0,3,4,-6,-3,0,1
1511884734272545,0,-6,-11,-10,-11,-11,-6,-2
1511884734272545,-4,-5,-12,-16,8,6,3,0
1511884734281571,0,2,4,3,-3,2,3,1
1511884734281571,3,3,3,9,8,-8,6,1
1511884734295611,-2,1,5,2,-6,9,2,1
1511884734295611,-1,-3,1,6,-5,-9,-9,0
1511884734302818,0,-3,-7,-4,11,-2,0,-2
1511884734302818,-2,-3,-4,-3,-3,3,0,2
1511884734318708,2,-2,-8,-8,1,2,-3,0
1511884734318708,-1,1,7,9,-1,-9,7,-1
1511884734320680,0,-2,0,-6,-8,21,8,3
1511884734320680,0,2,3,1,1,-4,2,-1
1511884734332906,-1,-3,-2,1,6,7,13,1
1511884734332906,-1,1,1,-1,2,2,-2,-5
1511884734340898,-1,-1,4,9,-6,-3,4,-2
1511884734340898,-2,-4,-1,-1,3,7,3,-2
1511884734356036,0,1,-1,-2,3,6,5,5
1511884734356036,-3,-1,-2,-9,-17,-16,-3,-3
1511884734361956,-1,2,6,17,24,12,-6,-5
1511884734361956,-1,-1,-5,-18,-20,-9,4,2
1511884734379040,0,-4,-6,-9,3,-1,-7,-1
1511884734379040,-3,1,0,5,3,12,18,-4
1511884734380033,1,-3,-2,0,-6,-20,-42,13
1511884734380033,-1,-1,3,3,0,-4,-1,-2
1511884734392035,-2,0,-1,0,-3,3,1,-4
1511884734392035,0,0,-3,-3,1,4,-1,0
1511884734401073,2,-1,3,3,-3,2,18,-1
1511884734401073,1,-1,0,6,6,9,-10,3
1511884734415115,-2,-2,-3,-5,-10,-22,-6,1
1511884734415115,3,-1,2,-3,-1,-5,-21,4
1511884734422113,-3,0,0,1,1,-10,4,-3
1511884734422113,-1,-2,-2,-5,-1,7,-8,-4
1511884734439299,-1,0,-1,1,-1,3,6,-4
1511884734439299,2,0,-2,-4,0,4,6,5
1511884734440302,-2,-1,2,4,0,-2,-5,-8
1511884734440302,1,0,-3,-2,0,0,4,1
1511884734452333,-1,-1,-2,-1,0,-9,-4,5
1511884734452333,-4,-5,-3,-1,-3,4,-7,0
1511884734461355,4,2,2,0,-7,-8,14,3
1511884734461355,-2,0,-2,2,2,-2,-7,-12
1511884734475397,0,-2,-2,-2,-6,-4,-9,0
1511884734475397,2,0,-2,0,6,-2,2,-2
1511884734482539,-4,-2,-2,-2,3,5,-14,-3
1511884734482539,0,-1,-1,-2,-5,1,-5,-1
1511884734498526,-1,0,1,1,6,3,4,0
1511884734498526,-1,-1,-1,-1,-8,-13,-6,-3
1511884734500460,0,3,1,-1,-2,2,-6,-4
1511884734500460,-1,0,0,2,4,4,16,-7
1511884734512491,-3,-5,-5,-6,-6,-8,-19,22
1511884734512491,4,-1,1,1,1,-7,-23,3
1511884734521515,0,0,-1,-1,0,0,2,5
1511884734521515,-3,-1,-1,0,-2,-5,5,-7
1511884734535630,-5,-2,-1,0,2,9,9,-3
1511884734535630,4,1,3,3,0,8,9,-5
1511884734542575,-5,-4,-6,-4,-1,1,12,2
1511884734542575,0,2,-2,-3,-5,-13,-3,-1
1511884734558617,0,1,1,4,4,14,24,-8
1511884734558617,-8,-3,-2,-3,11,31,14,-15
1511884734560623,4,-1,0,-2,-8,-7,7,8
1511884734560623,-2,0,0,2,2,6,0,4
1511884734572778,0,1,1,-1,0,11,-2,-3
1511884734572778,-2,3,1,3,-3,-15,-6,-3
1511884734581676,-4,-1,-3,-4,1,0,-8,-5
1511884734581676,0,-1,-1,1,2,-7,-16,5
1511884734595790,2,1,0,2,1,-13,-18,-2
1511884734595790,3,0,-1,0,1,4,5,10
1511884734601912,-5,0,-4,-7,-4,-5,-7,-12
1511884734601912,2,-1,-4,-8,-6,-6,4,10
1511884734619206,-1,-1,2,-1,2,0,0,-3
1511884734619206,1,2,3,2,3,5,2,-6
1511884734620096,-1,0,0,2,-9,-15,-5,2
1511884734620096,2,-1,1,2,4,8,11,7
1511884734632240,-2,1,-1,0,-2,1,4,-13
1511884734632240,10,1,2,0,2,-6,15,31
1511884734641320,1,0,1,5,5,4,0,-6
1511884734641320,2,-1,-8,-11,-5,-3,3,3
1511884734655543,-1,-2,-2,-3,-2,-6,-15,-8
1511884734655543,12,0,-2,-1,-6,-5,4,18
1511884734662503,-23,0,2,0,1,8,6,-25
1511884734662503,0,1,4,6,3,-13,-9,5
1511884734678443,1,-1,0,2,-1,1,6,1
1511884734678443,-5,-3,-2,-2,-1,-3,3,-23
1511884734680425,7,-3,-3,-4,-2,10,6,6
1511884734680425,-5,-3,-1,-1,0,1,-7,-3
1511884734692678,-4,-1,-2,0,-6,-14,-14,-5
1511884734692678,-1,5,4,1,-2,-5,-8,-1
1511884734701700,-2,-6,-6,-6,-3,3,1,4
1511884734701700,-2,0,2,3,1,-3,-1,-6
1511884734716132,6,-1,3,4,6,18,21,11
1511884734716132,-5,1,4,6,2,-2,-7,-6
1511884734722103,2,-2,-13,-12,-4,-8,-5,3
1511884734722103,-2,-2,-13,-25,-15,-5,-8,-8
1511884734738083,-2,-2,1,-4,0,-7,5,0
1511884734738083,-7,-3,8,19,6,-11,-25,-9
1511884734745059,1,0,2,1,-5,0,13,3
1511884734745059,-1,-2,5,11,8,7,10,1
1511884734752106,-1,-3,0,4,-4,3,-14,-2
1511884734752106,-3,-10,-16,-21,-11,-5,2,4
1511884734761186,5,2,-9,-18,0,-5,-16,6
1511884734761186,-3,4,-1,3,-3,-5,-1,-3
1511884734775228,-2,3,10,12,11,6,10,3
1511884734775228,-1,2,11,17,3,-4,-5,2
1511884734782415,7,3,-5,-8,-2,4,4,0
1511884734782415,4,5,-5,-5,-1,3,-3,0
1511884734798500,-15,-22,-7,-7,-7,-8,-14,-13
1511884734798500,1,3,6,8,5,3,10,4
1511884734804674,-5,-10,-4,1,1,5,5,0
1511884734804674,-5,4,-1,-5,-8,-3,-11,-7
1511884734812794,10,6,-6,-2,-3,-4,4,3
1511884734812794,-1,-6,-6,-13,-5,3,-2,-1
1511884734821819,10,-9,4,12,7,5,1,-1
1511884734821819,-8,4,3,12,12,9,3,0
1511884734836062,3,4,-9,-9,-3,-2,-8,-4
1511884734836062,-3,1,0,-9,-3,-5,-13,-11
1511884734841877,4,13,11,22,9,-1,21,-5
1511884734841877,-10,-22,-16,-34,-21,13,1,-12
1511884734858014,8,9,2,-3,-2,-19,-8,13
1511884734858014,-1,1,-4,1,10,30,32,21
1511884734864938,5,3,5,10,7,-14,-14,12
1511884734864938,0,-3,6,17,18,-3,-23,12
1511884734871956,-14,1,-2,-1,-3,-7,11,-14
1511884734871956,21,4,-8,-12,-12,10,30,21
1511884734881150,-6,0,1,3,-21,-30,-46,-23
1511884734881150,10,1,5,4,18,14,4,20
1511884734895144,-6,-2,-5,-5,-4,-1,-33,-15
1511884734895144,-27,-14,-4,1,-7,32,34,-30
1511884734902188,1,6,-4,-9,11,5,5,6
1511884734902188,15,14,10,1,-28,-38,-3,-21
1511884734918201,9,12,2,9,38,33,8,-2
1511884734918201,-22,-17,-5,-1,2,-4,-7,0
1511884734925224,-2,3,1,-10,-12,1,6,-15
1511884734925224,-7,-2,-3,8,11,22,42,15
1511884734941263,9,-1,4,0,-8,-2,-4,18
1511884734941263,15,12,6,3,-5,-37,-27,-10
1511884734943268,-17,3,7,2,-1,16,12,1
1511884734943268,14,-8,-5,-4,-4,-12,-17,-11
1511884734955422,-9,-6,-8,-4,-4,4,15,-2
1511884734955422,-12,-12,-8,4,10,2,-20,-9
1511884734962438,12,4,0,-9,-9,-2,24,6
1511884734962438,-10,2,10,12,6,-6,1,0
1511884734978565,0,-6,-8,-1,3,12,6,5
1511884734978565,13,13,-9,-13,-9,-9,-8,0
1511884734984551,-10,-11,-16,-17,-8,-12,-19,-8
1511884734984551,-4,0,7,11,2,18,26,6
1511884735001595,4,3,10,5,6,1,27,10
1511884735001595,4,3,6,1,-10,-10,-21,-8
1511884735002595,-8,-5,2,11,12,9,7,-5
1511884735002595,-1,-6,-8,-9,-4,-1,-15,14
1511884735015760,6,-9,-5,-5,-16,-11,-16,-1
1511884735015760,3,2,-6,-9,0,5,17,15
1511884735022650,-4,-1,-8,-4,0,3,-4,-12
1511884735022650,10,19,8,4,3,2,-3,2
1511884735037691,-8,-15,7,9,0,-7,-6,1
1511884735037691,-1,-3,3,1,-3,-3,9,4
1511884735044709,8,6,5,1,-6,2,-12,2
1511884735044709,5,-3,-6,-2,10,-5,-24,3
1511884735061751,0,-2,-9,-10,-13,-7,10,-9
1511884735061751,4,15,9,1,-4,-12,-1,2
1511884735062754,-8,-20,1,2,-13,-8,-20,22
1511884735062754,-6,-3,-12,3,34,27,9,-2
1511884735074792,0,7,-1,-13,-6,2,-8,-4
1511884735074792,4,1,-4,-4,15,-10,-29,-8
1511884735083818,-4,-8,14,20,-2,3,11,8
1511884735083818,3,-2,0,5,-7,-14,-13,-7
1511884735097891,-7,-9,-2,9,1,27,14,0
1511884735097891,-4,0,-5,-14,-6,-33,-36,-6
1511884735104909,13,12,9,13,5,-6,11,8
1511884735104909,-4,-6,-6,-7,-6,15,3,-4
1511884735120950,-1,3,3,0,6,-1,11,-2
1511884735120950,-8,-13,-20,-19,-7,10,7,-18
1511884735122948,-2,6,-13,-10,22,28,3,-8
1511884735122948,-9,-10,14,8,-38,-48,-16,-13
1511884735134949,16,3,-10,-16,16,-5,-4,34
1511884735134949,2,-2,5,12,-19,0,1,2
1511884735144057,-2,1,-3,-16,-12,12,47,-9
1511884735144057,0,5,3,10,21,15,2,0
1511884735158098,-1,7,9,1,-12,-7,-1,-7
1511884735158098,6,1,0,16,29,20,-9,7
1511884735165235,-16,-22,-5,8,-4,1,-11,-4
1511884735165235,0,-1,-5,-13,-4,-11,7,3
1511884735181199,-1,4,0,-1,-4,-2,-3,-25
1511884735181199,4,0,-2,-1,-8,2,5,11
1511884735183164,10,4,5,1,2,-3,-1,26
1511884735183164,-1,-6,-8,-8,-10,-10,4,12
1511884735228284,-5,2,-2,-1,3,3,-16,-22
1511884735228284,-5,-4,-1,-3,-16,-16,0,-2
1511884735232341,0,6,3,4,4,4,11,1
1511884735232341,7,0,0,-4,0,-5,-12,-12
1511884735266406,4,6,1,1,-3,0,-5,9
1511884735266406,-10,-13,-2,0,-1,1,4,-8
1511884735270433,-2,-2,-6,-5,0,0,-7,-1
1511884735270433,0,4,0,-3,4,24,7,-2
1511884735284603,-5,-6,-2,8,-6,-13,6,-6
1511884735284603,-1,0,2,-4,0,13,3,-6
1511884735293458,5,0,1,6,11,-12,-20,-4
1511884735293458,-4,0,-3,-10,-3,8,36,10
1511884735315515,-3,-1,5,5,3,5,7,-3
1511884735315515,-1,3,2,2,-6,-5,-4,-10
1511884735325639,4,-3,-7,-9,-5,-14,13,23
1511884735325639,-4,-1,1,3,-4,4,-13,-22
1511884735326541,-23,-4,-6,-5,-9,-7,-8,-9
1511884735326541,1,3,1,0,5,9,24,20
1511884735326541,20,15,6,2,0,3,-10,-25
1511884735326541,6,2,3,3,4,0,10,-3
1511884735330555,11,8,2,-2,-5,-3,0,39
1511884735330555,-22,-28,-10,0,0,1,-4,-16
1511884735331558,-21,-13,-2,-3,-2,-3,-16,-8
1511884735331558,-5,-1,-1,0,-1,-8,-16,-12
1511884735338577,24,6,5,4,1,-7,-9,21
1511884735338577,-10,4,-3,2,4,2,5,9
1511884735340579,-4,-2,-1,-4,-5,10,5,-24
1511884735340579,-2,-6,-3,-2,-7,-17,-1,0
1511884735345595,-2,-2,-2,-2,0,14,3,-4
1511884735345595,3,3,5,2,0,-12,-10,-5
1511884735346598,10,1,0,-1,0,-17,-46,12
1511884735346598,-3,2,-3,-4,-5,5,31,6
1511884735361672,-3,-3,-3,2,5,-1,-22,-3
1511884735361672,14,8,4,1,-2,-18,-14,-9
1511884735362638,8,3,0,-2,-4,5,13,-18
1511884735362638,-33,-6,0,0,-1,1,-19,-10
1511884735374804,13,-1,0,-1,-3,-13,-16,33
1511884735374804,-6,-2,-1,1,4,14,26,-2
1511884735383867,23,5,1,3,3,3,9,18
1511884735383867,11,11,10,6,3,10,16,-11
1511884735397915,-36,7,-8,-4,-5,-3,2,-23
1511884735397915,14,6,4,-1,0,12,-8,35
1511884735405043,-7,-3,0,0,-4,-11,-3,-2
1511884735405043,1,-4,1,0,1,-6,-18,7
1511884735421074,3,3,3,1,-1,3,3,-5
1511884735421074,12,14,2,4,1,-4,-7,-11
1511884735423037,-20,-2,-2,-4,-2,3,10,-23
1511884735423037,-2,-15,-13,-7,-4,7,-1,15
1511884735435068,7,-2,1,-1,1,7,17,-9
1511884735435068,-5,-14,-5,-1,2,-4,8,5
1511884735444234,-15,3,-2,-2,-2,-11,-29,-15
1511884735444234,3,6,3,4,1,1,9,-17
1511884735458274,-3,-12,-2,-2,0,-3,-7,-13
1511884735458274,-14,-7,-6,-7,-7,-2,8,-1
1511884735465299,17,4,2,-1,1,-11,-12,10
1511884735465299,-4,-2,-2,1,-2,-3,-15,-9
1511884735481554,0,-1,7,3,-4,-3,0,1
1511884735481554,4,14,2,1,1,-5,-5,0
1511884735482615,-9,-16,-6,-1,-5,-19,-10,4
1511884735482615,0,6,-6,-5,7,13,12,-6
1511884735494592,9,0,2,7,15,9,9,-5
1511884735494592,-1,4,2,-6,-4,-3,-15,10
1511884735503648,-6,-6,-1,-3,-19,-4,9,0
1511884735503648,5,2,0,-4,2,8,7,8
1511884735517871,-2,3,10,10,5,-16,-3,12
1511884735517871,6,1,-7,-1,12,3,0,-15
1511884735525035,-1,5,0,-8,-4,16,4,8
1511884735525035,-1,-4,-3,1,-11,0,6,4
1511884735541070,-4,-9,-9,-13,-6,-1,0,-6
1511884735541070,-4,-2,1,3,2,18,4,-17
1511884735542974,2,0,4,2,-8,-13,-22,3
1511884735542974,8,0,-3,-6,-2,-22,1,31
1511884735587096,-6,-5,2,0,-1,10,17,-7
1511884735587096,-3,-4,0,3,-5,-14,-16,-13
1511884735594110,-5,-13,-8,-2,15,27,14,7
1511884735594110,11,1,0,2,-2,-10,-4,6
1511884735624189,-24,-13,-8,-13,-11,-5,-2,-25
1511884735624189,-1,-7,-3,7,9,-7,-1,9
1511884735631341,0,2,1,-6,-6,-4,20,1
1511884735631341,2,3,18,29,25,25,-24,3
1511884735640366,4,-9,-19,-15,-15,0,15,7
1511884735640366,0,6,5,-2,-10,15,-4,-10
1511884735640366,4,-9,-19,-15,-15,0,15,7
1511884735640366,0,6,5,-2,-10,15,-4,-10
1511884735641368,-15,-19,-17,-5,11,-17,4,-8
1511884735641368,-2,-3,-12,-15,-12,-1,-5,3
1511884735642371,7,-2,1,-1,1,7,17,-9
1511884735642371,-5,-14,-5,-1,2,-4,8,5
1511884735647388,-15,3,-2,-2,-2,-11,-29,-15
1511884735647388,3,6,3,4,1,1,9,-17
1511884735663430,-24,-13,-8,-13,-11,-5,-2,-25
1511884735663430,-1,-7,-3,7,9,-7,-1,9
1511884735669479,0,2,1,-6,-6,-4,20,1
1511884735669479,2,3,18,29,25,25,-24,3
1511884735670482,4,-9,-19,-15,-15,0,15,7
1511884735670482,0,6,5,-2,-10,15,-4,-10
1511884735670482,-15,-19,-17,-5,11,-17,4,-8
1511884735670482,-2,-3,-12,-15,-12,-1,-5,3
1511884735671486,8,9,7,0,-17,-26,-21,9
1511884735671486,-8,-5,-4,5,27,16,-1,-8
1511884735674645,1,-1,-1,-7,12,21,0,5
1511884735674645,-3,-2,0,-2,5,-11,17,6
1511884735683648,7,3,4,4,-7,-3,0,13
1511884735683648,-1,-3,-14,-17,-2,0,4,1
1511884735697689,0,4,6,5,-6,-17,-6,-3
1511884735697689,1,-2,-3,-2,6,10,11,2
1511884735704831,1,7,7,4,-6,4,9,-3
1511884735704831,-2,-6,-5,-6,0,-10,-9,0
1511884735720933,-7,-12,-8,0,6,8,-6,-10
1511884735720933,4,3,1,-7,-16,-1,6,0
1511884735727770,0,5,6,8,7,-3,1,-2
1511884735727770,-2,-3,-1,3,6,6,-16,-16
1511884735734786,0,2,0,-2,-12,-10,6,2
1511884735734786,0,-1,-3,2,14,10,3,0
1511884735743967,-10,-15,-7,-4,-4,-6,-5,3
1511884735743967,14,12,2,0,3,10,-11,7
1511884735758044,-6,-3,10,15,-4,5,13,-8
1511884735758044,0,1,-2,-12,-4,-5,-12,-3
1511884735765060,-3,-1,-15,-15,-16,-7,-17,-8
1511884735765060,-1,-2,0,7,10,2,8,-1
1511884735781096,4,-2,-9,-15,-1,13,3,11
1511884735781096,4,7,8,10,5,-7,18,8
1511884735795102,2,3,10,10,3,9,10,2
1511884735795102,0,3,9,5,-7,-10,-4,-1
1511884735828187,-1,-4,-13,-13,-4,-6,-11,-2
1511884735828187,-6,-10,-9,-11,-6,-3,-2,-4
1511884735832344,0,2,-4,-11,-10,1,6,-1
1511884735832344,1,-1,8,13,1,-14,22,8
1511884735865525,1,-2,-1,8,28,12,-2,0
1511884735865525,2,4,4,3,-14,0,1,3
1511884735869493,-2,0,1,3,-2,2,-6,-5
1511884735869493,-11,-13,-16,-19,-6,-2,-6,-6
1511884735903587,4,3,0,0,-9,-8,-17,-4
1511884735903587,-5,-6,-4,-5,2,-4,-7,-2
1511884735907595,6,3,8,8,6,3,9,5
1511884735907595,1,3,0,0,3,4,5,2
1511884735940685,-7,-7,-5,-7,-7,-11,-5,-7
1511884735940685,10,3,-4,-5,-10,-6,-14,9
1511884735944820,-8,-1,5,7,4,-1,9,15
1511884735944820,-1,2,1,-2,1,-1,-12,-8
1511884735977823,2,3,-1,1,2,0,-2,6
1511884735977823,5,4,3,3,-3,-5,3,-5
1511884735979787,2,-2,-5,-5,1,-3,-7,-2
1511884735979787,-1,0,-1,-1,11,5,31,3
1511884736006865,-1,-9,0,5,-6,-1,8,-2
1511884736006865,-6,-5,-7,-4,-4,-9,-13,-6
1511884736013879,2,3,1,-1,1,9,-9,-5
1511884736013879,-5,-2,8,1,-7,-4,-3,-7
1511884736020902,3,5,6,13,5,3,-5,1
1511884736020902,-7,-6,-8,-19,-10,-6,9,-6
1511884736022908,-1,-10,-15,-8,11,4,3,-2
1511884736022908,2,2,-3,-7,-2,-5,-15,2
1511884736027959,-1,2,8,9,2,1,5,-1
1511884736027959,1,5,10,13,-1,3,0,-2
1511884736028917,1,4,0,2,-1,-5,1,-2
1511884736028917,-1,-3,-9,-14,-4,4,-15,-8
1511884736035942,-1,0,-15,-9,-8,-9,1,9
1511884736035942,-5,-5,0,-1,-2,4,7,-3
1511884736035942,0,4,7,2,5,6,2,0
1511884736035942,6,1,4,4,4,0,-9,2
1511884736044001,-1,4,6,5,2,10,12,1
1511884736044001,2,5,3,3,-1,-12,3,0
1511884736044960,-4,-14,-9,-13,-6,7,3,7
1511884736044960,-3,-6,-8,-4,-12,-16,-5,-1
1511884736050976,0,0,3,2,15,11,12,-2
1511884736050976,1,0,-2,-4,-4,11,3,1
1511884736050976,-1,2,4,11,-3,-11,-11,-9
1511884736050976,-4,-1,-1,-4,0,-1,-1,-6
1511884736059038,1,-2,2,-1,-14,2,0,3
1511884736059038,-1,-4,-2,-8,-2,-2,-5,0
1511884736060001,-3,-3,-14,-14,1,-1,1,-3
1511884736060001,-2,1,4,8,3,2,1,-1
1511884736081098,3,3,5,6,2,-7,-5,-1
1511884736081098,-1,-2,2,1,-9,-1,-6,-3
1511884736083066,-1,1,-3,1,3,4,4,4
1511884736083066,-3,0,-10,-12,-4,3,3,-3
1511884736088078,1,1,1,0,0,-5,-12,1
1511884736088078,2,6,5,5,5,2,2,-2
1511884736096095,6,3,10,7,0,1,6,-1
1511884736096095,-3,-7,-4,9,5,-7,-2,-4
1511884736097113,0,-1,-13,-23,-13,-22,-31,-8
1511884736097113,1,1,-5,-6,-3,-6,17,8
1511884736098104,-1,2,5,11,-1,5,-1,-2
1511884736098104,-4,-2,4,-8,-7,-6,-2,-3
1511884736103251,-2,-2,-6,-1,5,3,4,-3
1511884736103251,-2,-2,-6,0,8,8,-3,2
1511884736105254,1,3,10,11,7,-4,-1,-1
1511884736105254,1,-2,1,2,-8,-8,-4,3
1511884736118310,-1,-3,-2,-5,-8,-1,6,-2
1511884736118310,-2,-2,-6,-9,-3,9,0,0
1511884736125312,1,1,-4,-5,-10,-8,-2,-2
1511884736125312,0,2,0,-4,5,9,-1,-4
1511884736140350,-3,-3,-5,-5,-1,2,6,2
1511884736140350,-3,1,5,9,6,-1,-1,0
1511884736155421,3,2,0,1,-1,-5,-3,-1
1511884736155421,0,3,0,2,3,3,2,-5
1511884736163526,-5,-7,4,-1,-1,-6,-6,1
1511884736163526,-4,-3,-5,3,1,10,-8,-7
1511884736165414,1,5,3,-1,9,3,19,4
1511884736165414,1,-2,7,10,1,4,2,3
1511884736178461,0,-1,-6,-2,-3,-1,-1,-3
1511884736178461,1,-2,-1,-5,-4,-2,-1,-3
1511884736184554,-5,-4,-11,-13,-6,-9,-12,-2
1511884736184554,-7,-1,1,2,-1,-4,-4,0
1511884736200621,19,14,11,8,1,10,8,2
1511884736200621,0,0,0,6,9,-4,-2,1
1511884736207668,1,-1,0,-2,0,-5,-15,-5
1511884736207668,-2,-5,-1,0,2,-3,0,2
1511884736223708,-4,-3,-5,-7,-9,1,0,-1
1511884736223708,1,-1,-4,3,-4,2,-3,3
1511884736225713,-3,-4,-7,-13,2,-3,4,-2
1511884736225713,-1,2,-2,7,10,2,-8,-1
1511884736237863,-2,0,6,8,-8,2,2,-3
1511884736237863,1,0,4,0,4,1,4,0
1511884736244765,-6,-9,-7,4,-4,8,4,-3
1511884736244765,1,0,-2,-13,-5,-2,-1,-1
1511884736260945,1,0,-4,-1,4,12,20,4
1511884736260945,-1,-1,0,3,-3,-3,1,1
1511884736284016,2,0,3,2,1,4,-2,-1
1511884736284016,2,2,-1,10,-3,13,11,3
1511884736284970,-5,-1,-3,-9,5,-6,-11,-3
1511884736284970,-4,-2,-4,0,-1,-7,-4,-3
1511884736287011,0,2,9,1,-1,3,4,-4
1511884736287011,4,-3,-6,-1,-4,-1,7,6
1511884736298042,-2,-2,2,5,2,1,-8,-4
1511884736298042,0,1,-7,-9,-2,-9,-4,1
1511884736305100,2,-1,-4,-6,-6,6,8,3
1511884736305100,-2,1,4,2,-3,-4,-6,-6
1511884736320183,-5,-1,3,8,4,-4,-7,-7
1511884736320183,0,1,1,3,2,0,3,0
1511884736327164,0,0,0,-1,-8,-3,-4,1
1511884736327164,-2,-2,-5,-12,-7,3,4,-4
1511884736344204,-2,0,0,8,17,5,6,2
1511884736344204,-1,1,3,6,-2,0,-3,-4
1511884736345210,1,0,-4,-4,0,-9,-17,-2
1511884736345210,0,0,0,0,-4,2,-1,1
1511884736357239,0,-1,-8,-14,-10,-4,-4,1
1511884736357239,0,-1,0,3,7,2,-3,0
1511884736366287,-1,-3,-1,3,1,-2,0,1
1511884736366287,-1,4,6,-1,-5,-1,5,-4
1511884736380345,0,-3,-6,-7,-2,-1,-6,-4
1511884736380345,1,0,2,1,0,2,4,5
1511884736387361,-1,-2,-3,2,2,-7,1,-5
1511884736387361,3,0,0,1,2,-8,-7,-1
1511884736403486,-3,0,10,8,-3,-2,2,-5
1511884736403486,-1,0,-10,-10,-5,2,1,-2
1511884736405365,1,-1,3,-1,-2,6,6,5
1511884736405365,-3,-5,-11,-4,10,3,1,-8
1511884736417593,0,-2,1,-8,-19,-8,-1,1
1511884736417593,0,1,4,-1,3,-6,-5,1
1511884736433532,-1,-1,2,6,-2,-4,-1,-1
1511884736433532,3,2,10,9,2,11,23,16
1511884736440556,-1,-1,-13,-11,5,4,5,-3
1511884736440556,0,-2,-3,-3,-5,-4,-2,-1
1511884736447481,-3,-1,1,-3,-8,-5,0,0
1511884736447481,0,0,5,3,1,0,-5,-3
1511884736463523,-1,-1,4,6,3,-3,0,1
1511884736463523,1,-3,0,2,-3,3,6,-2
1511884736465530,-3,-3,-12,-17,0,-9,-14,-2
1511884736465530,-2,-4,0,0,0,5,-5,-1
1511884736477693,0,-2,0,3,1,-1,-3,5
1511884736477693,-1,1,0,2,2,-2,-2,-3
1511884736486719,0,4,2,4,-3,5,3,-3
1511884736486719,0,-6,-16,-11,-2,-4,-6,0
1511884736500884,-3,-2,0,-8,-4,-4,0,-1
1511884736500884,-1,-1,4,3,4,3,-2,1
1511884736507862,0,6,6,3,2,1,2,-5
1511884736507862,-2,-4,-2,-3,-6,-10,-9,-3
1511884736523854,1,-1,-1,3,-6,-4,-2,3
1511884736523854,0,-1,1,-5,2,-2,-1,4
1511884736525827,1,0,1,5,1,4,0,-4
1511884736525827,-2,2,-2,-2,1,-1,-1,-3
1511884736537857,-1,-1,-3,1,3,-8,-5,0
1511884736537857,-1,0,4,2,-4,12,1,-3
1511884736553899,0,-1,-4,1,1,4,5,6
1511884736553899,-1,0,-2,0,-1,-5,-6,-5
1511884736560914,-4,-2,-7,-13,-11,-4,-6,-7
1511884736560914,0,0,-4,-1,-1,-6,-2,7
1511884736567962,0,0,3,2,5,6,8,0
1511884736567962,-2,0,-2,2,-2,1,2,1
1511884736583976,1,-1,-3,-1,1,4,3,1
1511884736583976,0,0,-2,-3,-2,-4,2,-5
1511884736584979,-1,-2,3,1,0,2,-2,-2
1511884736584979,-2,2,3,4,-3,-16,-11,2
1511884736597357,-1,-1,-2,1,6,10,3,0
1511884736597357,-1,-4,-3,-4,-4,-1,-1,-3
1511884736606233,0,0,-4,-4,-3,-7,5,0
1511884736606233,0,-1,7,2,0,5,-10,-1
1511884736620455,2,0,-3,-4,0,7,11,3
1511884736620455,-1,-1,-3,0,-2,6,8,0
1511884736627291,-1,0,0,3,2,-4,-12,-5
1511884736627291,0,-1,-6,-19,-14,2,2,-1
1511884736643334,3,2,8,14,16,13,3,7
1511884736643334,-2,-3,-6,-7,-4,-1,7,-5
1511884736650362,-1,-3,-3,-5,-3,-5,-9,2
1511884736650362,-2,1,3,16,8,4,5,-4
1511884736657384,-4,-4,-4,-12,-11,-3,-1,-3
1511884736657384,0,0,-4,2,7,-4,-2,-1
1511884736666407,-2,-3,-6,-11,-8,1,-2,3
1511884736666407,-1,-1,0,-1,-1,-5,-4,-2
1511884736680448,1,1,6,8,3,-5,-3,-2
1511884736680448,-1,2,11,12,1,-3,-4,-2
1511884736687466,-1,-4,-10,-5,3,-1,-2,-4
1511884736687466,2,0,-2,-5,-4,-1,6,14
1511884736711602,-3,-5,-9,-4,2,-2,-2,-8
1511884736711602,0,-3,0,-4,-6,-6,-4,-4
1511884736712537,2,-1,6,9,5,5,-5,4
1511884736712537,-2,0,2,-1,2,3,9,-1
1511884736717641,-1,1,-1,4,-1,-1,1,1
1511884736717641,0,0,-4,-13,-11,-5,-1,3
1511884736726719,-1,-3,-5,3,2,5,-2,-5
1511884736726719,-1,0,2,0,2,-9,-5,-3
1511884736740753,0,0,5,2,-3,3,3,3
1511884736740753,0,0,-1,3,1,6,5,-2
1511884736747796,-1,-1,-6,-7,-5,0,5,1
1511884736747796,0,-1,5,0,6,3,-3,-1
1511884736762815,-1,-1,-12,-1,-9,-12,-7,-5
1511884736762815,-3,-4,-3,-15,-3,2,-6,0
1511884736769834,-2,1,2,1,-7,-12,-4,-1
1511884736769834,1,-1,5,1,3,4,8,0
1511884736785882,0,2,7,4,-1,-8,-7,0
1511884736785882,-1,-2,-5,-1,-1,-4,-1,-2
1511884736787881,0,-1,3,4,2,-1,1,-2
1511884736787881,1,-1,-2,6,1,5,24,4
1511884736801030,-4,-2,2,-7,-7,-1,-13,-9
1511884736801030,2,-2,0,4,13,-3,-4,13
1511884736807937,1,-1,-3,-4,-3,8,9,0
1511884736807937,1,2,-2,-1,-1,-7,-6,-3
1511884736831118,-1,-2,2,4,-2,-5,-4,-1
1511884736831118,1,-2,-5,-4,-3,-12,-9,-2
1511884736833000,-1,1,3,1,-2,4,3,0
1511884736833000,0,-6,-2,1,1,-3,-9,-1
1511884736846037,-1,-1,-1,3,-1,0,2,1
1511884736846037,-3,-2,3,8,3,1,-1,-6
1511884736848039,-1,0,-8,-11,-2,-8,0,1
1511884736848039,-2,-1,-8,-11,-7,-1,-6,-4
1511884736861076,2,2,3,0,5,2,1,3
1511884736861076,0,-1,9,6,-9,-11,-9,-1
1511884736868095,-1,-2,-4,2,5,-2,-8,-2
1511884736868095,-1,-1,-5,-1,-1,12,31,4
1511884736883236,-2,-1,-3,-9,-4,-1,-5,1
1511884736883236,-3,-2,0,-3,1,3,0,-1
1511884736890281,-2,-2,2,7,-2,-11,-10,-5
1511884736890281,0,-1,3,4,5,5,-6,-2
1511884736906223,-2,-6,-3,-4,-10,-12,-3,-1
1511884736906223,2,3,-3,-4,-1,7,13,-1
1511884736908199,0,0,3,-3,0,0,0,-3
1511884736908199,-2,-1,-2,0,1,-3,-7,8
1511884736920347,1,3,5,5,4,6,5,-2
1511884736920347,1,-1,1,1,0,-2,-5,0
1511884736927545,-1,-3,-3,-4,-4,1,5,4
1511884736927545,1,2,-6,-3,-6,-8,-11,-4
1511884736943462,0,0,1,4,7,4,2,0
1511884736943462,-2,-1,4,10,-1,2,-1,-1
1511884736949481,-1,-3,-13,-16,-4,-3,-2,-5
1511884736949481,-3,-3,-2,-9,-5,9,2,-5
1511884736966637,0,-2,-9,-7,-4,2,1,2
1511884736966637,-3,-3,0,-4,-1,3,8,-1
1511884736967525,1,4,8,12,6,-3,-6,1
1511884736967525,-1,1,4,3,-8,-15,-15,0
1511884736980613,2,1,-2,0,6,8,19,1
1511884736980613,0,-1,1,6,3,-8,-17,1
1511884736987895,0,-4,-5,-8,-5,4,13,3
1511884736987895,-1,0,-2,-3,-3,-4,-12,-6
1511884737003084,-1,-2,2,2,2,2,-5,-2
1511884737003084,-1,0,-4,-1,4,1,9,2
1511884737010000,0,-1,3,3,-2,-1,-3,-7
1511884737010000,-1,1,1,1,0,-4,-3,-4
1511884737026043,-1,-1,-3,0,-3,-2,0,9
1511884737026043,-3,0,-1,-4,-4,3,0,-4
1511884737028048,0,-4,-3,-6,0,2,-2,2
1511884737028048,-1,1,-1,3,2,-3,0,-5
1511884737040260,0,-2,2,-1,-3,-4,-4,-5
1511884737040260,-1,-1,-7,-9,-3,0,5,-1
1511884737047285,0,1,-4,-5,-8,-3,-2,3
1511884737047285,2,-1,4,-2,2,3,-9,9
1511884737063278,0,0,2,9,3,-1,-1,-7
1511884737063278,0,-2,2,-2,3,-1,-3,-3
1511884737070293,-3,-3,-1,1,-2,8,10,-1
1511884737070293,-1,-2,1,2,0,-4,-1,-1
1511884737086379,0,1,0,2,-3,1,6,3
1511884737086379,-1,0,0,-3,-3,-5,-3,-6
1511884737088343,1,-2,-3,-1,0,0,2,0
1511884737088343,-3,-3,-5,-7,-3,10,10,1
1511884737109432,1,0,0,2,5,-9,-11,2
1511884737109432,-1,-1,-1,1,-5,2,4,3
1511884737110403,-2,3,2,2,10,0,-8,-3
1511884737110403,1,-3,3,0,-3,-3,0,-2
1511884737122433,-1,-4,-5,-5,-3,-1,-15,-4
1511884737122433,-1,0,-3,-4,-4,-9,-10,2
1511884737129503,-2,-2,1,2,2,-2,0,-2
1511884737129503,3,3,5,6,6,3,9,12
1511884737145540,1,0,-4,3,5,2,-2,-3
1511884737145540,-3,-6,-10,-16,-19,-9,-7,-3
1511884737146496,-2,0,-5,-9,2,4,2,2
1511884737146496,-1,0,-2,-2,-3,-3,-3,-6
1511884737161535,1,2,6,5,5,1,6,1
1511884737161535,0,2,10,16,12,16,-1,2
1511884737167816,1,0,7,5,-5,-6,1,-4
1511884737167816,-2,-4,-10,-4,-1,0,6,3
1511884737183721,-2,-3,-5,-9,-3,4,0,0
1511884737183721,0,0,-2,-4,-4,-19,-7,-3
1511884737189738,-2,0,1,4,1,1,-3,-2
1511884737189738,-2,-1,1,4,2,6,4,-1
1511884737205908,-1,-3,-2,-2,-3,-4,4,2
1511884737205908,0,0,-1,-2,-1,3,6,1
1511884737206788,1,1,2,4,2,1,-10,2
1511884737206788,-2,-2,-2,-1,-6,-3,-2,-4
1511884737229848,-2,0,4,1,3,4,3,-5
1511884737229848,1,-2,2,-1,0,3,7,4
1511884737230850,0,-3,-15,-13,-4,-2,-1,-2
1511884737230850,-1,-3,-6,-10,-7,-5,-13,-4
1511884737243981,-1,-3,-1,-9,-5,-2,3,-1
1511884737243981,2,1,2,2,1,7,-6,1
1511884737250032,1,-1,6,9,2,-10,-2,1
1511884737250032,-1,3,3,4,4,-3,2,-1
1511884737266031,0,3,5,6,2,-8,-8,1
1511884737266031,1,-2,-2,6,3,5,8,0
1511884737266031,-5,-3,0,-4,-6,-6,-6,0
1511884737266031,-2,-1,-14,-13,-2,0,1,-2
1511884737281068,5,2,1,-1,0,5,1,5
1511884737281068,0,3,1,4,3,3,6,-2
1511884737287087,1,-1,7,8,-2,1,14,0
1511884737287087,-2,-3,2,-5,0,-2,-22,-4
1511884737304156,-4,-4,-10,-12,-8,-11,11,1
1511884737304156,0,-3,-4,-2,5,3,-9,-4
1511884737310149,1,1,3,2,1,3,3,1
1511884737310149,-1,3,13,20,10,5,3,-2
1511884737325191,-2,0,-6,-4,-5,1,6,1
1511884737325191,-2,-2,-6,-22,-11,-5,-2,-2
1511884737326190,-3,-5,-10,-7,-3,-2,-5,-2
1511884737326190,-2,-2,0,-1,3,-3,4,1
1511884737341255,1,1,4,7,-1,12,0,2
1511884737341255,-1,1,2,7,1,-7,-10,2
1511884737347287,-1,-5,-4,-11,-6,3,-1,3
1511884737347287,2,1,3,8,14,-2,3,-7
1511884737364291,1,-3,3,4,2,0,-4,0
1511884737364291,-6,0,-5,-6,-5,0,2,1
1511884737370340,-1,2,2,-3,-3,-2,1,-8
1511884737370340,3,0,0,2,-4,0,3,16
1511884737387386,-1,-1,3,7,3,4,3,-3
1511884737387386,-1,-1,-4,-3,-3,-21,-29,-4
1511884737387386,2,0,0,0,-1,0,7,1
1511884737387386,-1,-4,-5,-8,-4,4,5,-2
1511884737401406,-2,2,1,-1,-2,0,0,-2
1511884737401406,-1,-2,2,1,0,-12,-18,-2
1511884737407405,0,0,-3,-3,3,7,1,0
1511884737407405,0,0,-5,-9,-5,-3,3,-2
1511884737423450,-3,-3,1,-6,-3,-9,-6,-3
1511884737423450,2,0,9,13,5,8,9,-1
1511884737429590,1,1,1,4,2,-1,3,2
1511884737429590,-3,-1,-1,2,-7,-8,-15,-5
1511884737445788,1,1,-5,-4,0,1,1,2
1511884737445788,-2,2,1,2,1,3,4,-3
1511884737446795,-1,1,4,6,0,-3,-5,0
1511884737446795,-1,2,0,-3,0,-2,4,0
1511884737460860,-2,-2,1,1,-4,6,-1,-2
1511884737460860,0,-4,-8,-6,-1,1,2,-5
1511884737467921,-3,-4,-6,-11,1,9,10,1
1511884737467921,0,-1,-6,-7,-3,-13,-8,-3
1511884737483922,-2,1,10,11,7,0,9,0
1511884737483922,1,0,-3,-5,-9,-2,6,-1
1511884737489940,0,0,4,4,1,5,0,-6
1511884737489940,-2,-4,-5,-5,-4,-4,1,-5
1511884737506984,2,0,-2,1,2,0,-13,0
1511884737506984,-1,-3,3,4,5,13,15,0
1511884737508007,-1,2,1,2,-2,-7,-5,1
1511884737508007,-3,-1,3,7,5,3,8,2
1511884737528039,1,-3,-3,-3,-2,10,4,0
1511884737528039,-2,-1,-3,-10,-3,1,0,-2
1511884737529042,2,-1,-5,-3,-1,-4,-8,2
1511884737529042,-1,0,1,-1,-1,5,5,0
1511884737544208,-1,-1,1,4,2,-7,-3,0
1511884737544208,-1,2,1,-2,-1,-1,4,-1
1511884737550225,-1,-2,3,3,-4,-4,-4,1
1511884737550225,0,-2,-5,-3,0,-2,-8,-3
1511884737565345,-1,-3,-5,-9,0,0,-3,-2
1511884737565345,3,1,13,15,5,5,10,4
1511884737572402,-2,-2,1,6,0,-4,-5,-5
1511884737572402,-3,-3,-16,-16,-9,-1,-1,-1
1511884737588322,-5,-4,-11,-14,-3,-7,-6,-2
1511884737588322,2,1,3,0,-1,5,8,3
1511884737589324,1,3,12,11,-1,0,0,2
1511884737589324,0,2,12,14,2,-10,19,1
1511884737603558,1,-4,-5,-1,3,-8,-23,-9
1511884737603558,-1,-2,-5,-5,-3,-1,-1,10
1511884737609381,0,1,-2,-4,-4,0,8,3
1511884737609381,-1,1,-4,-6,-6,3,-5,0
1511884737632543,-1,0,3,2,4,4,6,-7
1511884737632543,-1,-2,1,10,7,-8,-5,-4
1511884737633546,-1,-5,-20,-20,-10,-4,-5,-2
1511884737633546,0,-3,-2,-8,-2,11,-2,0
1511884737647587,0,1,2,6,0,-7,-2,5
1511884737647587,0,-1,2,3,3,4,-1,0
1511884737648586,-1,1,7,5,3,-7,-7,-2
1511884737648586,-3,1,5,6,-7,-4,-3,-3
1511884737663626,2,-1,-11,-10,0,1,1,2
1511884737663626,-4,-1,-5,-2,-6,-3,-7,-2
1511884737669645,0,-1,0,2,5,4,1,-4
1511884737669645,0,-2,-2,-6,1,4,0,-1
1511884737684686,-2,-3,4,-1,-6,-5,-10,3
1511884737684686,0,2,-2,1,3,-1,7,-4
1511884737692753,-1,-1,2,1,-2,1,-7,-1
1511884737692753,1,3,6,8,-4,-19,-16,-1
1511884737707749,0,-1,5,5,3,10,7,-1
1511884737707749,1,-4,-7,-6,-4,-1,-6,2
1511884737708747,-2,-1,-3,-2,1,3,0,2
1511884737708747,-2,-2,-6,-7,0,-5,-8,-7
1511884737723790,-1,0,-5,-8,-6,-1,7,1
1511884737723790,2,1,8,8,5,0,-3,1
1511884737729848,0,-1,12,8,-4,-2,-2,0
1511884737729848,0,-6,-10,-2,-6,1,1,0
1511884737744845,0,-2,-17,-19,-4,-4,1,2
1511884737744845,-2,-2,-2,-3,0,9,3,-3
1511884737752945,-2,-1,-4,-4,-1,-2,-3,1
1511884737752945,3,2,13,13,11,5,2,1
1511884737767904,0,1,10,13,-1,-4,0,-5
1511884737767904,-3,-4,-8,-7,-7,-9,-12,-2
1511884737768907,-4,-1,-2,-6,1,-5,-1,-1
1511884737768907,-1,0,-1,0,1,5,-16,0
1511884737783947,0,0,2,2,-4,-6,-7,3
1511884737783947,-1,0,0,-1,0,5,4,-4
1511884737789963,1,-4,7,11,5,-17,-12,-4
1511884737789963,0,0,-3,0,3,11,13,-1
1511884737805127,-2,-2,-1,-13,-1,-1,11,1
1511884737805127,-3,-2,-5,-6,-15,-12,-18,-5
1511884737812163,1,-3,-6,-9,1,9,12,0
1511884737812163,1,0,1,11,7,-2,7,4
1511884737828280,3,1,4,4,-2,3,-2,0
1511884737828280,-1,1,3,3,2,3,9,2
1511884737829156,0,1,0,2,-8,1,3,-3
1511884737829156,-3,-3,-1,-7,-1,-3,-6,-3
1511884737844196,-3,-3,-8,-3,0,2,4,-1
1511884737844196,0,-2,-2,-4,2,-2,-3,2
1511884737850254,1,1,-3,-5,-3,-7,-4,0
1511884737850254,0,0,6,4,3,7,8,1
1511884737865269,0,0,4,6,-4,-5,-9,-4
1511884737865269,0,1,3,8,8,3,7,0
1511884737872272,-3,-1,3,3,2,3,-12,-1
1511884737872272,1,1,-8,-4,-3,2,-1,-1
1511884737888352,-1,-2,-3,-10,-7,3,10,2
1511884737888352,-1,0,-11,-5,-2,8,12,10
1511884737888352,-2,0,1,0,0,-6,-16,-4
1511884737888352,-4,-3,2,-3,-1,-10,-6,-3
1511884737904355,-1,2,3,5,7,6,-4,-3
1511884737904355,0,1,6,10,2,-2,-3,-3
1511884737909371,-3,-5,-13,-9,-4,-5,5,-3
1511884737909371,1,-4,-10,-15,-5,-7,-11,4
1511884737924413,0,1,5,7,-1,-1,-1,2
1511884737924413,0,-1,1,-3,-2,-3,0,-3
1511884737932478,0,-2,-4,-10,2,5,6,2
1511884737932478,0,-1,2,6,1,-1,3,-4
1511884737948506,-2,1,4,-1,-5,0,1,0
1511884737948506,0,0,6,11,10,-6,-8,-4
1511884737948506,1,-1,-3,0,-6,0,4,2
1511884737948506,-1,0,-6,-7,0,5,1,-1
1511884737963606,0,-1,-2,3,6,-1,-3,1
1511884737963606,-1,0,1,-8,-7,-4,4,-1
1511884737969655,0,0,-6,-3,-2,-4,-16,-3
1511884737969655,3,0,5,-2,-2,6,10,4
1511884737984664,0,-2,-4,-4,4,3,2,-4
1511884737984664,-1,-1,11,18,5,-4,-7,-4
1511884737992731,-1,-1,-3,-5,-4,0,3,-2
1511884737992731,-4,-5,-21,-16,-9,-5,-5,-5
1511884738007756,-1,3,-2,-1,-3,4,5,2
1511884738007756,3,-1,1,-1,3,0,5,-2
1511884738008728,3,3,23,29,9,3,2,6
1511884738008728,-3,-1,3,-1,0,0,1,-11
1511884738023769,-3,-7,-10,-13,-3,5,7,4
1511884738023769,-3,-3,-22,-21,-8,-3,-5,-6
1511884738029825,-1,-2,-10,-22,-7,-8,1,-2
1511884738029825,0,4,16,17,5,-5,-5,-2
1511884738044823,0,0,10,9,-1,-12,-5,4
1511884738044823,-1,-2,4,3,-5,-3,-4,-1
1511884738052104,1,2,5,8,8,4,-1,-1
1511884738052104,-1,-1,-3,-3,-1,-1,1,4
1511884738068023,-1,-2,0,3,1,-8,-9,-7
1511884738068023,0,0,6,-4,-3,-1,-1,3
1511884738069050,-4,-6,-18,-12,-10,6,4,-5
1511884738069050,-3,-1,-8,-20,-5,-6,0,0
1511884738084066,2,3,9,20,11,2,-3,1
1511884738084066,-2,0,-8,-9,-8,1,-2,-2
1511884738090208,-1,-1,2,3,8,2,0,3
1511884738090208,0,0,3,2,-7,-2,1,-3
1511884738105219,-2,-3,-6,-5,-10,-3,-1,8
1511884738105219,-4,1,1,5,16,2,-19,-8
1511884738112140,2,0,-6,-15,-9,3,23,4
1511884738112140,0,0,4,14,5,-2,3,-1
1511884738128310,1,1,2,-3,-5,-10,-14,-4
1511884738128310,-1,-2,-2,-6,-6,-4,1,4
1511884738129357,1,0,3,2,5,-1,-1,-1
1511884738129357,1,0,-2,1,-2,-3,-5,1
1511884738143478,2,2,3,-3,-4,2,10,-1
1511884738143478,-1,-2,-2,0,5,-2,0,-1
1511884738149496,-2,-1,1,2,-6,-3,-3,-2
1511884738149496,1,1,2,8,15,6,5,7
1511884738164647,-6,-6,-13,-28,-24,-8,-8,-6
1511884738164647,-1,-2,-8,-1,-8,-5,5,1
1511884738172651,0,1,8,5,24,18,4,0
1511884738172651,1,-1,11,14,-5,-4,-10,-1
1511884738189599,3,1,-1,5,4,-2,-12,-2
1511884738189599,-1,-4,7,8,5,1,1,-4
1511884738190603,-5,-8,-27,-23,-13,-20,-7,-2
1511884738190603,3,1,8,-6,-4,23,6,1
1511884738203638,-3,2,16,27,22,5,1,-8
1511884738203638,4,0,-9,2,-12,6,13,18
1511884738209653,-1,-2,-8,-7,10,-6,-9,-5
1511884738209653,0,-3,-5,-6,-4,-6,-6,4
1511884738224698,-1,-1,5,9,4,5,11,-1
1511884738224698,0,4,5,-15,-8,6,-3,-6
1511884738232837,-4,-2,9,28,-2,-9,-6,-2
1511884738232837,-5,-10,-37,-38,-5,-9,-7,-4
1511884738271825,2,2,4,5,0,-1,-1,4
1511884738271825,3,1,7,-3,5,-7,-7,-1
1511884738272830,1,2,1,-6,-1,7,4,1
1511884738272830,-1,2,18,29,7,-4,-2,-3
1511884738284860,-3,-3,-16,-13,-8,-5,-2,-7
1511884738284860,-2,-3,-1,0,-17,1,-1,-2
1511884738293879,0,1,-3,-20,-18,-3,4,-3
1511884738293879,4,4,6,14,10,11,-11,5
1511884738308960,0,-2,-7,-19,-2,-6,1,3
1511884738308960,-1,-1,4,5,9,17,7,-2
1511884738309921,4,5,11,17,1,-17,-5,1
1511884738309921,-4,-1,7,10,-4,1,-1,-3
1511884738324000,-6,-5,-20,-6,5,1,-5,-4
1511884738324000,-5,-3,-16,-31,-13,-9,-11,-7
1511884738324961,-4,0,-2,10,5,8,6,-2
1511884738324961,1,2,4,-10,-20,1,4,-2
1511884738337037,2,4,8,14,16,-7,2,3
1511884738337037,-1,1,4,11,1,9,11,1
1511884738346020,-1,-3,3,9,5,-7,-8,-6
1511884738346020,-3,-3,-7,-9,2,15,10,-2
1511884738361210,-3,-2,-7,-18,-6,4,-1,-5
1511884738361210,-1,-2,-3,4,-3,-13,-2,-3
1511884738363198,2,1,5,2,8,25,-8,2
1511884738363198,0,1,3,6,-3,-19,12,2
1511884738375209,-2,-4,-2,-1,-1,22,2,-1
1511884738375209,-4,0,-1,-2,5,-5,-3,-2
1511884738376233,1,0,-1,1,-6,5,1,-3
1511884738376233,-3,-3,-5,-7,-1,3,8,-3
1511884738384326,0,-1,1,4,2,-9,-18,-3
1511884738384326,0,1,-3,-2,6,-8,-1,-1
1511884738389389,-2,-1,-4,-5,-2,5,-3,-4
1511884738389389,-2,-1,-3,-3,-5,-8,-3,-8
1511884738405390,0,-1,0,-5,-10,-17,1,7
1511884738405390,0,2,-1,0,-2,23,2,-3
1511884738412399,-1,1,1,4,1,-5,4,2
1511884738412399,-1,-1,-1,-5,1,0,-9,-2
1511884738428445,0,-2,0,4,-4,-7,-6,-10
1511884738428445,2,0,0,-2,2,-2,9,6
1511884738428445,-2,0,-2,-6,-8,-7,1,3
1511884738428445,5,-1,2,2,4,1,-9,-2
1511884738443627,1,0,3,3,-5,22,32,-2
1511884738443627,1,-1,3,5,8,-14,-10,-2
1511884738449625,0,-5,-8,-8,-5,3,1,0
1511884738449625,4,2,0,-5,2,3,3,0
1511884738464570,-14,-2,-2,-2,-2,-6,-7,-12
1511884738464570,7,-4,0,-1,-1,1,2,16
1511884738472893,9,6,6,7,2,6,9,5
1511884738472893,-18,-2,-1,3,6,-6,-16,-23
1511884738487875,4,-1,1,-5,-7,-9,-8,5
1511884738487875,-8,-2,0,0,-3,2,0,0
1511884738494744,-1,-2,0,-3,-5,-12,-21,-10
1511884738494744,0,-1,-4,-2,-2,-2,4,2
1511884738503934,1,1,-1,0,1,-2,0,9
1511884738503934,-4,-1,-4,-1,-7,-20,-11,-6
1511884738509949,0,-2,2,0,2,4,7,1
1511884738509949,-3,0,1,1,-1,-12,-4,-3
1511884738524990,4,-4,-2,1,-7,-8,-23,16
1511884738524990,-1,-1,-4,-2,0,5,14,-14
1511884738532138,1,-1,1,1,3,-3,-18,10
1511884738532138,-1,0,-1,0,-2,-4,12,6
1511884738547049,-1,0,1,-2,2,28,35,-8
1511884738547049,-4,1,-3,-5,2,0,1,-8
1511884738555261,3,-1,0,1,-2,-15,-19,5
1511884738555261,-5,-2,0,2,-3,-5,-14,-10
1511884738564091,3,-1,-7,-5,-4,-10,15,19
1511884738564091,1,1,2,5,0,1,-27,5
1511884738570262,-6,1,-1,0,2,8,17,-4
1511884738570262,10,2,-1,-3,-4,-5,3,16
1511884738585355,-18,-2,1,5,0,-9,-15,-30
1511884738585355,-7,-2,-6,-10,-7,0,9,14
1511884738592327,5,0,1,1,1,-6,1,1
1511884738592327,-4,-2,0,1,2,11,10,11
1511884738607364,-6,9,3,5,8,-1,-6,-2
1511884738607364,15,-4,0,7,1,-4,6,-25
1511884738614497,-14,-13,-5,1,2,8,-16,-7
1511884738614497,-3,0,-3,-6,-7,-16,-36,11
1511884738623406,1,-4,0,0,-1,5,0,-13
1511884738623406,-5,8,6,6,5,14,47,7
1511884738629422,8,3,-1,-1,-9,-19,-7,-5
1511884738629422,1,-5,-5,-6,-1,4,5,-6
1511884738644610,0,3,4,3,4,-1,5,0
1511884738644610,-1,1,2,6,0,-21,-31,-5
1511884738652792,-6,-5,-13,-20,-8,28,38,2
1511884738652792,0,2,13,15,10,-5,3,1
1511884738667863,3,1,4,15,12,3,1,-2
1511884738667863,1,-7,-16,-18,-9,-7,-8,-1
1511884738674856,-2,0,-6,-22,-18,-4,2,5
1511884738674856,-3,-7,-2,-2,0,3,5,-6
1511884738691019,5,-1,-3,1,-5,-4,-17,-1
1511884738691019,-1,1,6,11,4,0,-3,3
1511884738691019,-3,1,6,9,6,2,-2,-4
1511884738691019,1,-2,-9,-3,-4,1,-2,-4
1511884738705136,6,10,2,-13,-6,1,-4,-7
1511884738705136,8,12,-3,-15,-5,-2,2,4
1511884738712079,-37,-63,-8,11,0,-2,-4,-11
1511884738712079,11,9,-4,-10,-2,5,7,5
1511884738726994,-8,-12,-9,-8,-5,-2,-10,2
1511884738726994,-4,4,3,3,1,3,-2,-25
1511884738735014,15,28,4,-7,1,-6,-1,16
1511884738735014,2,-1,10,17,9,7,6,2
1511884738750539,-10,-10,-4,3,-2,3,-5,-9
1511884738750539,-1,6,9,0,-3,-7,-8,8
1511884738751451,11,14,6,10,8,1,-1,-2
1511884738751451,-11,-19,-12,-9,-17,-1,-3,-8
1511884738764466,1,1,-8,-21,0,7,4,-5
1511884738764466,-3,-7,1,11,2,5,8,14
1511884738772660,8,15,7,1,2,-7,-4,-4
1511884738772660,2,0,2,-1,-11,1,7,-16
1511884738787701,-3,-5,7,6,12,-3,-29,6
1511884738787701,0,-3,1,6,16,15,27,5
1511884738794664,-3,-12,-2,-3,-10,-18,-51,18
1511884738794664,-6,-11,-9,-2,-1,-8,-10,-2
1511884738810588,1,0,1,4,-10,6,40,-9
1511884738810588,-10,2,-13,-15,-12,2,-9,-4
1511884738811592,15,4,-8,-8,5,4,21,32
1511884738811592,22,3,10,11,10,1,6,2
1511884738826628,-17,-12,-11,-6,2,16,26,-16
1511884738826628,17,13,5,0,2,6,20,10
1511884738832644,2,11,9,10,5,17,8,-8
1511884738832644,-9,5,2,-2,0,-4,-2,7
1511884738847683,1,-13,-4,-1,-1,-1,0,-2
1511884738847683,-21,-4,-1,-1,-1,0,-13,-36
1511884738854706,0,2,0,5,-6,-15,10,4
1511884738854706,2,-4,-2,-2,-1,-3,13,5
1511884738870748,10,18,6,3,-8,-19,-18,9
1511884738870748,-6,-12,-3,0,11,10,-21,-11
1511884738871752,-8,-2,0,1,1,2,0,-17
1511884738871752,-1,2,-12,-7,5,3,1,9
1511884738886084,-2,-2,1,-1,-7,-16,-7,2
1511884738886084,4,-15,-6,-1,-10,1,2,6
1511884738892253,7,23,13,13,-1,-5,4,-10
1511884738892253,-15,-13,1,3,4,-5,-10,1
1511884738907270,-2,3,-13,-22,-3,7,3,3
1511884738907270,0,-17,-9,-2,-10,-17,-13,0
1511884738915277,7,8,-1,-9,3,-5,1,2
1511884738915277,-19,13,23,16,9,17,-3,-19
1511884738930293,20,4,6,19,2,-6,9,23
1511884738930293,9,-14,-17,-24,-1,-3,-8,18
1511884738931208,7,5,-4,-6,-10,-7,4,-6
1511884738931208,-10,-7,-9,-17,-9,-6,-17,-31
1511884738946247,6,5,8,2,8,4,1,24
1511884738946247,-5,8,8,9,2,-6,1,3
1511884738952565,14,-1,6,18,14,4,16,-7
1511884738952565,-1,3,-3,1,2,6,7,9
1511884738967703,3,-6,-5,-4,-3,6,-5,-8
1511884738967703,0,5,-5,-9,-16,-8,-7,3
1511884738974521,-31,-26,-2,3,6,-2,9,-12
1511884738974521,4,4,-9,-14,-4,-2,-2,14
1511884738990564,3,3,4,9,19,0,-7,-1
1511884738990564,2,-2,-3,-4,-15,1,-6,13
1511884738991644,1,1,-2,-2,-10,-2,6,7
1511884738991644,9,6,1,2,13,23,7,5
1511884739006607,-6,-6,0,-4,-20,-7,5,-3
1511884739006607,2,4,2,7,22,-5,-12,-19
1511884739012696,-7,-2,-1,-1,10,6,-1,-13
1511884739012696,3,-1,8,13,3,-9,-6,-2
1511884739027665,6,7,1,4,-6,2,-5,21
1511884739027665,-7,-4,1,-2,5,3,-1,-7
1511884739034710,-3,-11,-19,-18,-26,-12,1,-9
1511884739034710,2,0,-9,-12,-7,12,-2,-1
1511884739050729,-9,-1,4,3,-2,4,16,-18
1511884739050729,6,6,15,12,6,-13,-6,18
1511884739051727,-2,0,0,4,4,18,4,10
1511884739051727,-5,-7,-20,-28,-22,-4,-14,-15
1511884739066775,3,3,0,-9,9,0,19,4
1511884739066775,-3,-7,-1,2,-7,-33,-2,-3
1511884739072787,-3,1,0,-10,-9,8,-25,-6
1511884739072787,-2,2,11,25,5,1,4,-2
1511884739102922,-4,1,0,-9,-6,3,-18,1
1511884739102922,-2,-3,-6,2,1,9,3,-16
1511884739110886,-2,-2,0,2,2,-13,-10,-3
1511884739110886,6,1,-1,-4,-7,-7,2,17
1511884739134216,6,1,0,3,1,-8,-5,-18
1511884739134216,6,-3,1,1,-4,7,9,0
1511884739135075,-28,-7,-8,-10,-4,3,-1,-20
1511884739135075,9,6,0,-1,2,-3,-2,29
1511884739155247,-11,-1,-1,1,-4,-14,-26,-3
1511884739155247,2,-14,-4,-2,-2,5,10,25
1511884739163274,2,-1,3,3,15,21,1,-12
1511884739163274,-10,-7,-3,-2,-11,-21,-8,1
1511884739186213,16,8,5,1,-1,-1,-5,8
1511884739186213,-2,6,0,-2,0,7,2,-12
1511884739188216,-3,-2,-5,-4,-4,-17,-10,5
1511884739188216,5,1,4,6,2,1,2,-1
1511884739208440,4,5,2,-3,-4,-12,6,-15
1511884739208440,-7,-4,-3,1,5,16,8,-17
1511884739216539,5,1,1,1,-3,-4,-7,1
1511884739216539,-4,0,-2,-8,-6,4,-3,-12
1511884739217467,-3,-5,-1,9,6,-16,-14,-5
1511884739217467,0,6,4,-8,-4,9,1,21
1511884739217467,2,0,-4,-1,2,-10,-9,-8
1511884739217467,8,-1,1,0,-4,-9,-5,8
1511884739223627,-12,-7,-1,3,7,13,3,-19
1511884739223627,8,4,2,1,-4,-7,-2,2
1511884739231468,-6,-6,-1,0,1,5,7,10
1511884739231468,1,5,2,6,8,1,14,-4
1511884739231468,-12,-10,-5,-4,0,6,5,-3
1511884739231468,2,4,-4,1,0,0,15,40
1511884739232468,-10,8,3,-1,-2,0,2,-1
1511884739232468,5,0,0,-2,4,-1,5,-36
1511884739246505,19,7,-2,-3,-3,-2,2,37
1511884739246505,-13,-20,-5,-6,-3,8,14,6
1511884739252525,-5,0,2,2,3,5,4,-12
1511884739252525,-2,-3,2,2,4,8,32,23
1511884739267902,-2,1,-3,-5,-5,13,-1,-10
1511884739267902,4,11,5,4,5,2,-10,-21
1511884739274722,17,2,-1,1,3,11,27,1
1511884739274722,-2,0,2,0,-5,-8,5,2
1511884739290942,-5,-7,-8,-4,-4,0,10,-9
1511884739290942,-1,1,4,4,9,1,-9,-11
1511884739291862,-3,-5,-2,-4,-3,-5,5,15
1511884739291862,2,1,2,-1,-1,6,4,23
1511884739306804,-5,-3,-2,-2,-4,-3,-3,3
1511884739306804,-5,2,1,1,0,-3,-3,-16
1511884739312824,1,6,2,1,-1,-3,-8,9
1511884739312824,-3,1,-2,1,3,1,-9,-17
1511884739327859,-12,-13,-2,0,1,-1,-3,-10
1511884739327859,-1,2,-3,-3,-4,-11,-33,-11
1511884739334879,-2,-4,-1,-2,0,4,8,4
1511884739334879,13,1,1,-1,-2,1,6,15
1511884739350954,-22,-9,-4,-3,1,8,0,-9
1511884739350954,0,2,-2,0,-4,8,32,8
1511884739350954,-1,1,0,1,2,2,-15,4
1511884739350954,-10,-2,-1,0,-3,-21,-8,-19
1511884739366116,18,6,5,4,4,2,-10,7
1511884739366116,-31,-7,-4,2,-5,-12,-18,-8
1511884739372238,4,-2,-5,-3,-3,3,8,9
1511884739372238,2,0,-1,-3,2,2,18,2
1511884739387356,4,3,-1,-4,-5,-5,-9,-1
1511884739387356,7,7,1,-5,-1,3,-7,-10
1511884739395206,7,-7,-6,1,-1,-4,-4,-17
1511884739395206,-7,-7,-8,-2,-1,9,3,16
1511884739410265,9,6,1,-6,-5,-4,29,13
1511884739410265,-5,-3,-1,0,-1,-4,-19,-6
1511884739411238,-2,-8,-7,-4,-3,0,-3,-5
1511884739411238,0,7,-2,-3,-8,-6,-15,-6
1511884739434298,-4,-9,-2,-2,3,-5,-7,3
1511884739434298,5,2,9,6,15,-5,8,5
1511884739435301,3,1,7,3,-9,-3,-1,5
1511884739435301,1,-2,2,3,6,-6,-32,-14
1511884739447446,0,0,-10,-2,-11,-6,-6,-8
1511884739447446,4,-1,15,16,1,7,2,2
1511884739455354,-7,-7,-5,1,-5,-20,-22,-6
1511884739455354,-4,-6,-22,-32,-11,2,5,-7
1511884739469606,-5,2,-2,-5,-1,8,-6,-1
1511884739469606,1,-5,-4,-9,-3,0,-6,-4
1511884739477594,1,1,-4,0,-9,-7,-25,-2
1511884739477594,-2,4,15,3,24,15,2,0
1511884739486517,5,11,19,29,2,2,10,-5
1511884739486517,4,-2,-10,-9,5,-4,0,13
1511884739492512,0,-2,-3,-16,-18,2,18,0
1511884739492512,6,8,-12,-2,5,13,17,0
1511884739507553,0,-2,-3,-16,14,12,-1,5
1511884739507553,1,4,4,23,2,8,14,-7
1511884739514567,1,2,10,7,-6,-12,-5,-2
1511884739514567,-5,-3,2,-1,6,-18,-18,-2
1511884739529610,-2,-7,-7,-3,2,-4,7,4
1511884739529610,-1,-3,-4,-3,-13,-5,3,5
1511884739537631,5,10,3,4,11,10,-2,2
1511884739537631,-6,-8,-6,-2,-8,-9,-10,-4
1511884739546656,-4,-15,-7,-8,-7,-6,-5,-8
1511884739546656,-1,5,-5,-5,-2,-7,-17,-9
1511884739552673,-7,-6,-4,-3,1,9,6,-8
1511884739552673,3,6,14,21,0,-15,-11,4
1511884739567833,8,6,-1,-4,2,26,34,7
1511884739567833,4,1,-7,-17,-8,-7,-9,14
1511884739574734,-1,0,4,5,3,9,2,-19
1511884739574734,-2,-4,10,15,17,6,6,0
1511884739589958,0,5,4,11,-21,-35,-12,-2
1511884739589958,1,-6,-14,-18,12,21,5,9
1511884739597898,3,4,-8,-17,-2,3,26,13
1511884739597898,-3,-3,-9,-10,-20,-17,-18,-2
1511884739612832,6,10,15,18,13,5,-18,3
1511884739612832,-3,-9,1,14,6,5,2,-14
1511884739613834,0,1,5,5,-2,2,-6,-7
1511884739613834,-1,-5,-4,-6,13,29,9,13
1511884739626871,-3,-3,-17,-17,-18,-22,-15,-1
1511884739626871,-1,3,2,-1,-5,6,5,-12
1511884739634982,6,1,7,5,5,-23,-6,14
1511884739634982,-3,1,6,14,0,-2,1,-3
1511884739650056,-4,-6,-7,-12,-18,-6,-2,8
1511884739650056,-2,-5,-8,-15,8,3,3,-5
1511884739657075,-2,-2,-1,8,9,5,2,-11
1511884739657075,2,1,-1,-4,-15,-10,3,0
1511884739673278,-22,-6,0,2,6,-2,-15,-18
1511884739673278,7,4,8,7,-6,-22,-21,8
1511884739674244,-6,-5,-7,-13,-13,11,19,4
1511884739674244,5,0,1,1,6,2,4,-3
1511884739687298,2,-1,0,-8,-9,-9,-9,-8
1511884739687298,-6,-2,1,-2,-6,2,2,-9
1511884739695137,0,1,-2,-3,4,-10,-8,3
1511884739695137,-5,-2,-4,6,8,12,19,-3
1511884739718201,7,4,8,9,14,8,6,6
1511884739718201,3,8,-5,-4,-26,4,16,3
1511884739719206,2,0,-5,0,13,5,1,0
1511884739719206,-8,-8,0,-8,-15,-1,9,-4
1511884739748357,3,0,0,4,8,5,-1,9
1511884739748357,4,4,3,8,3,-2,1,-2
1511884739750359,-10,0,-1,-11,-9,-6,-7,-2
1511884739750359,-4,-2,-7,-9,-6,8,0,-1
1511884739770416,-4,-5,0,6,8,5,1,-15
1511884739770416,-4,2,5,1,-4,-9,1,15
1511884739777435,0,-3,-1,8,6,3,0,6
1511884739777435,11,10,6,8,1,-11,-12,-1
1511884739792475,-5,0,-3,-2,-1,-1,4,-4
1511884739792475,4,2,7,9,8,8,12,3
1511884739801496,-7,-17,-11,-8,-4,-3,-3,0
1511884739801496,-3,-1,-12,-19,-15,-1,7,2
1511884739823554,-1,-1,-4,-2,-1,-13,1,7
1511884739823554,6,-1,-3,-11,0,11,-1,30
1511884739829573,1,2,11,9,-1,9,20,-1
1511884739829573,1,-2,6,11,7,-8,-27,-6
1511884739844613,1,-1,-3,-8,5,-5,-8,3
1511884739844613,-11,-14,-7,5,2,-6,3,-10
1511884739853663,-4,-2,1,4,2,2,-2,-8
1511884739853663,0,-2,-9,-10,-14,-10,-3,7
1511884739875696,3,-4,-8,-16,-12,2,9,4
1511884739875696,-7,2,2,6,5,0,-9,-25
1511884739877698,4,8,7,8,8,3,2,15
1511884739877698,-3,0,8,9,7,7,3,-18
1511884739897791,-1,4,9,11,-2,-2,1,16
1511884739897791,-6,-9,-10,-11,-3,16,7,-12
1511884739906005,1,-1,-11,0,2,-25,-20,-9
1511884739906005,-4,-3,4,-7,-8,-3,0,7
1511884739929032,-1,3,0,1,5,8,5,-4
1511884739929032,1,0,-7,-6,3,-11,3,1
1511884739930035,-1,2,0,-3,-14,-14,-19,0
1511884739930035,4,0,0,0,20,6,5,5
1511884739951138,0,1,2,0,-14,2,-3,-2
1511884739951138,3,1,6,14,9,-4,0,0
1511884739957108,-3,-5,-10,-11,2,2,-4,-4
1511884739957108,4,5,3,-1,-4,0,-2,0
1511884739981211,-2,-5,0,6,1,4,12,-1
1511884739981211,-4,0,-6,-10,-6,-8,-14,-6
1511884739983175,20,10,9,10,3,6,11,11
1511884739983175,-23,-14,0,2,-7,-6,-7,-20
1511884740004253,-2,-12,-20,-21,-3,3,-3,-8
1511884740004253,3,5,2,0,-5,-3,-4,1
1511884740007239,4,-1,-1,-10,-4,-7,-10,10
1511884740007239,-8,-5,-7,-2,-3,8,-15,-11
1511884740025392,2,2,4,4,4,3,16,4
1511884740025392,3,1,4,-2,-3,-14,3,-5
1511884740034314,-9,1,12,13,4,-4,-3,-14
1511884740034314,7,2,-1,8,3,-1,-6,6
1511884740056495,-2,1,4,-3,-8,1,-1,-5
1511884740056495,0,-3,-2,1,9,1,0,-1
1511884740057492,-3,-4,-9,-18,-9,1,15,20
1511884740057492,4,1,-4,-9,-7,-10,-2,1
1511884740078433,1,1,-1,3,7,0,-8,0
1511884740078433,-1,2,7,6,-9,-8,2,-1
1511884740086476,-2,-1,0,7,9,2,-14,-12
1511884740086476,-2,-7,-6,-2,-2,-1,7,4
1511884740108600,1,6,6,13,-1,-4,-1,4
1511884740108600,-8,-7,-10,-16,3,2,-9,-7
1511884740110517,-3,-2,-14,-13,-4,7,3,-3
1511884740110517,5,10,15,12,5,1,1,-5
1511884740130570,-2,-1,-4,3,3,-1,3,-3
1511884740130570,-1,-5,1,0,-3,-2,-6,-4
1511884740137585,-4,-1,-5,-8,-6,3,-4,-5
1511884740137585,7,3,-3,-1,1,4,21,7
1511884740152850,0,-1,6,4,6,12,-19,-2
1511884740152850,6,2,-1,5,-2,-11,-11,5
1511884740161653,-13,-5,9,4,8,6,2,-6
1511884740161653,4,5,2,5,4,16,10,3
1511884740184714,-2,-6,-9,-8,-12,-13,-3,2
1511884740184714,-3,0,-5,-9,-7,12,9,-6
1511884740186724,1,1,1,4,6,-6,-13,-5
1511884740186724,4,5,2,-6,-6,-4,3,8
1511884740205961,-1,2,3,11,0,-1,-2,2
1511884740205961,-4,3,1,3,2,6,4,-2
1511884740207772,2,-3,-6,-4,-3,-4,2,1
1511884740207772,-3,-4,-8,-9,-16,3,-7,-10
1511884740227825,7,5,-5,-6,13,-15,-11,14
1511884740227825,0,-2,7,0,-7,-4,7,4
1511884740236049,-3,5,10,13,9,14,8,-1
1511884740236049,-1,-2,-4,2,-2,3,-2,3
1511884740258953,2,-1,0,-10,-6,-1,5,-6
1511884740258953,-10,1,-3,-3,0,-3,2,-3
1511884740259946,6,0,3,6,-1,1,2,4
1511884740259946,-5,-7,-5,-11,-5,-7,-10,-9
1511884740282091,-3,-1,-3,-7,-1,6,3,-7
1511884740282091,13,3,3,1,0,5,-5,11
1511884740283976,-20,-7,-6,-5,-3,2,28,-14
1511884740283976,2,2,8,10,3,-5,-3,1
1511884740302026,-4,3,2,0,9,0,-2,-7
1511884740302026,-2,-4,-2,0,0,1,-7,0
1511884740311214,3,1,2,2,-4,-1,-1,-3
1511884740311214,-3,-1,0,3,4,-4,1,1
1511884740333267,-1,-3,0,2,-1,7,9,6
1511884740333267,-1,-2,2,2,-2,2,7,-5
1511884740335273,3,1,-4,0,11,-11,-18,4
1511884740335273,-3,-2,-5,-5,-12,-12,-5,3
1511884740356489,3,-1,-7,-14,-20,-11,-9,-3
1511884740356489,-1,1,-3,3,12,-1,-2,-1
1511884740357363,2,-3,7,7,-4,3,-1,10
1511884740357363,1,2,-1,-3,4,-4,-7,-5
1511884740378422,-5,-12,-7,-9,-3,4,-7,-3
1511884740378422,1,6,3,1,-7,-3,0,-1
1511884740380425,-2,-5,-1,-1,-1,-4,2,7
1511884740380425,-1,1,3,9,5,-2,-7,-1
1511884740408500,1,-1,0,0,0,2,0,1
1511884740408500,-8,1,-8,-3,-2,1,-2,-6
1511884740410508,4,0,-3,-6,-2,-5,-10,-4
1511884740410508,1,-2,7,4,-2,15,11,3
1511884740415518,-2,-2,-5,4,-1,-4,-5,-5
1511884740415518,0,-4,-5,-9,0,8,7,6
1511884740416524,4,4,4,8,4,4,8,1
1511884740416524,-2,-6,-10,-15,-11,-9,5,2
1511884740423791,2,4,6,4,-1,12,-3,0
1511884740423791,0,2,7,10,2,-20,-8,2
1511884740424686,2,-4,-4,-4,-1,21,6,2
1511884740424686,-3,-2,-6,-7,6,3,-16,-3
1511884740430704,-5,-2,-2,-5,-3,-6,3,0
1511884740430704,-2,0,4,-1,-9,-2,2,3
1511884740431704,2,7,4,-1,2,-9,-3,-5
1511884740431704,-2,-3,-3,2,4,-4,-9,-2
1511884740437830,2,0,4,2,1,2,3,-1
1511884740437830,-5,-5,-7,2,0,0,-2,-6
1511884740438723,0,5,1,-3,-5,0,-3,-1
1511884740438723,-6,-11,-14,-15,-5,3,0,-2
1511884740445930,-3,5,4,2,3,-15,-5,-2
1511884740445930,5,5,11,7,2,4,-1,-7
1511884740447935,-1,-4,2,11,0,0,-1,-3
1511884740447935,1,-2,-5,-11,-5,-3,12,3
1511884740452968,3,-3,-10,-11,0,17,10,-1
1511884740452968,-7,-1,2,-3,3,2,-10,-1
1511884740453951,2,3,-1,-7,-6,-21,-10,-1
1511884740453951,4,1,6,12,4,16,15,7
1511884740459965,-3,-7,-2,3,-10,-6,-4,-7
1511884740459965,4,-1,-11,-19,5,2,-1,3
1511884740460965,0,1,-3,-1,-7,14,13,3
1511884740460965,2,4,8,9,7,-16,-19,2
1511884740468987,3,3,10,16,9,1,6,10
1511884740468987,1,-3,-5,-5,-12,-2,1,-2
1511884740469991,-2,-2,-6,-10,-3,-3,-2,0
1511884740469991,-2,-1,-1,0,2,3,3,-3
1511884740476015,-2,-2,2,5,7,6,-2,-6
1511884740476015,-1,-3,2,6,-2,-12,-5,1
1511884740476015,0,-3,-2,-3,1,1,7,1
1511884740476015,0,1,1,0,-1,-2,7,1
1511884740484061,-1,0,-9,-8,-2,1,-2,-4
1511884740484061,-5,-4,-10,-11,-5,4,6,0
1511884740485034,1,0,2,5,1,2,1,1
1511884740485034,-2,3,7,3,-3,-14,-18,-11
1511884740490086,0,2,2,5,9,2,0,2
1511884740490086,0,-10,-3,3,-4,10,28,12
1511884740491052,0,-4,-7,-12,-4,-4,-12,-3
1511884740491052,1,1,-10,-9,-2,-6,-2,-4
1511884740498067,-4,-4,3,1,-3,-6,-4,-7
1511884740498067,4,4,12,13,1,-6,-3,4
1511884740499071,-2,-1,0,-8,-5,6,-2,0
1511884740499071,-1,-2,-4,-3,-1,-3,5,-2
1511884740512105,-1,-2,-1,-4,2,-13,-17,0
1511884740512105,-1,3,4,14,9,13,-2,-5
1511884740520126,-3,-2,1,1,-6,-5,-1,-1
1511884740520126,-4,-2,-7,-9,-9,3,2,0
1511884740535163,-2,0,-2,-7,0,-2,-6,1
1511884740535163,3,-2,-1,0,2,-5,-5,-2
1511884740536166,-3,-2,-2,3,0,-1,6,-5
1511884740536166,1,1,5,3,1,1,-2,0
1511884740550300,0,1,2,8,-3,1,4,2
1511884740550300,-2,-2,-5,-12,-2,-13,-8,-6
1511884740557427,5,4,3,3,5,-1,-3,1
1511884740557427,-1,-1,7,6,0,1,4,1
1511884740572365,3,0,3,-1,-3,-3,-6,-3
1511884740572365,0,0,-9,-9,-2,-3,-8,-5
1511884740580304,-4,0,-4,0,-4,-5,0,-2
1511884740580304,1,-1,-5,-4,2,-6,-11,1
1511884740595435,-2,-2,-2,1,0,-11,-24,-4
1511884740595435,0,3,6,1,-2,3,9,3
1511884740596325,3,0,1,6,5,-11,-3,1
1511884740596325,-2,4,9,9,6,19,9,-2
1511884740610362,-3,-1,2,0,-4,-6,3,1
1511884740610362,-1,-2,-12,-20,-12,-2,-9,-3
1511884740617790,-5,-7,-10,-5,-9,-12,-1,0
1511884740617790,2,3,3,1,6,-5,-4,2
1511884740632737,-2,-6,-2,-3,5,10,14,2
1511884740632737,1,1,5,7,0,-7,-7,1
1511884740640684,-1,3,4,-1,-3,1,-1,-5
1511884740640684,-2,-8,-2,7,-4,9,2,3
1511884740655901,-1,1,-5,-8,-4,-5,-4,-1
1511884740655901,-2,-2,-6,-8,-3,0,-2,-8
1511884740656867,0,2,7,4,5,3,-2,-1
1511884740656867,-1,0,0,6,1,-7,2,-2
1511884740669937,-1,-2,1,6,5,9,13,6
1511884740669937,-4,-2,-6,-5,-5,3,-1,-2
1511884740677806,-3,-4,-9,-15,-6,-2,-12,-2
1511884740677806,3,3,3,1,1,-4,18,1
1511884740692832,2,-1,0,1,0,-5,-12,0
1511884740692832,0,5,12,18,11,6,0,1
1511884740700895,0,-6,-7,-8,-9,2,11,4
1511884740700895,-2,0,-4,-17,2,1,3,2
1511884740715946,2,-2,-7,0,2,9,-1,1
1511884740715946,0,2,0,-4,-5,-2,0,0
1511884740715946,2,4,5,13,9,4,4,4
1511884740715946,0,-2,3,5,-2,-1,-2,0
1511884740730202,-1,-2,-1,2,-4,-7,0,-3
1511884740730202,-1,-3,-9,-13,-1,-1,-2,-1
1511884740737100,0,1,-2,1,-2,2,2,1
1511884740737100,-2,1,-5,-6,-3,3,-7,-2
1511884740752171,-2,-1,2,1,0,-2,7,-3
1511884740752171,3,0,8,13,3,9,4,3
1511884740760311,-1,-2,1,-3,2,-13,7,-1
1511884740760311,-2,-1,-4,-3,-4,-3,-9,-3
1511884740775312,0,-3,-10,-6,-4,-6,-1,-6
1511884740775312,0,2,6,2,-1,-5,8,2
1511884740776311,1,0,-1,6,7,15,-4,-1
1511884740776311,-2,-5,-15,-22,-9,-5,1,3
1511884740789541,0,0,0,3,-1,4,8,0
1511884740789541,1,2,-2,0,-4,-7,-2,0
1511884740797564,0,0,11,7,10,11,6,1
1511884740797564,1,-1,1,3,-4,-5,4,-1
1511884740812496,0,0,0,-5,-12,3,4,2
1511884740812496,-3,-4,-4,-8,-5,-8,-6,-3
1511884740820517,-2,1,2,10,14,6,-5,-1
1511884740820517,1,-1,2,5,-3,-6,-10,-4
1511884740835726,0,-2,-8,-14,-7,-3,1,1
1511884740835726,0,0,5,16,13,4,-10,0
1511884740836558,0,-2,-1,-6,-10,3,27,3
1511884740836558,-3,-3,-9,-3,-6,-16,-17,-4
1511884740857717,-3,1,2,-4,1,13,-6,0
1511884740857717,-1,-3,-3,-5,-5,-4,3,-1
1511884740858617,-2,-2,-6,-2,3,-4,-11,-8
1511884740858617,8,8,18,19,7,5,-2,18
1511884740871964,-2,3,1,7,1,-5,7,-4
1511884740871964,-4,-8,-7,-8,-5,-2,1,2
1511884740880926,-2,-6,-8,-15,-11,-11,-17,-4
1511884740880926,-1,2,-1,-3,2,3,11,-1
1511884740895988,0,-1,5,10,6,3,-6,3
1511884740895988,0,1,-4,-7,3,2,1,0
1511884740895988,-1,1,0,0,-6,-1,0,0
1511884740895988,-2,-2,-1,-1,1,-3,-7,-3
1511884740910160,0,0,-2,-2,1,8,15,3
1511884740910160,0,2,7,11,5,6,0,-2
1511884740917198,1,-6,-4,-6,-1,-2,-3,0
1511884740917198,0,-1,-8,-7,-7,3,-2,-3
1511884740932214,-1,1,-1,-2,3,-4,-10,0
1511884740932214,1,2,-1,2,-2,11,3,-1
1511884740940233,0,1,3,0,-3,-16,-7,0
1511884740940233,2,2,15,14,8,13,8,-1
1511884740955457,-4,-10,-13,-1,16,-7,-11,-3
1511884740955457,-1,-4,-11,-11,-6,-3,1,-2
1511884740956277,-1,0,1,-2,-3,-9,-8,5
1511884740956277,0,4,1,5,-3,0,0,-6
1511884740969598,0,0,3,3,-7,-3,13,6
1511884740969598,-3,-2,3,3,-1,-5,-8,0
1511884740977505,1,1,-3,-5,6,6,4,-2
1511884740977505,-1,-4,5,4,1,-2,-4,-4
1511884740992546,2,1,0,3,0,1,-1,2
1511884740992546,-1,-3,-9,-10,-3,-5,4,-2
1511884741000754,-2,-1,-4,-1,-10,-2,-1,-3
1511884741000754,-2,-3,-6,-12,-2,0,2,0
1511884741015919,-1,-2,-6,-23,-6,2,2,-4
1511884741015919,1,2,8,6,-6,-4,-3,1
1511884741016854,-2,1,3,9,3,0,-1,-2
1511884741016854,2,2,4,17,13,-5,-11,3
1511884741029867,-1,6,11,10,-4,4,35,4
1511884741029867,-4,-5,-3,-8,-9,-6,-7,-3
1511884741037935,2,1,-4,-6,3,4,-9,-3
1511884741037935,-2,-6,-14,-14,-8,1,7,0
1511884741052327,1,-3,-6,-15,-13,-7,-7,0
1511884741052327,3,5,13,21,18,1,-5,2
1511884741060458,1,1,7,7,6,-2,-2,-4
1511884741060458,-5,-4,-3,-9,-12,-2,1,-4
1511884741075502,0,0,3,9,4,5,-8,-3
1511884741075502,0,-1,6,3,5,0,4,-1
1511884741076497,0,-2,-7,-12,-15,-6,-3,1
1511884741076497,-2,-4,-10,-3,6,2,3,-2
1511884741089655,3,2,6,1,0,-8,-11,1
1511884741089655,0,0,-1,-8,-11,-4,-4,-2
1511884741097557,-2,2,8,11,26,14,6,-1
1511884741097557,1,-1,14,21,-5,-4,1,0
1511884741112901,-5,-6,-9,-13,-1,6,-2,-7
1511884741112901,1,4,-3,-4,1,-10,-2,1
1511884741120857,-4,-7,-13,-10,0,7,9,-1
1511884741120857,0,-2,-8,-15,3,-19,-18,0
1511884741136025,5,3,11,13,-8,1,-4,2
1511884741136025,-2,-4,-3,-5,-12,-7,-5,1
1511884741136900,-1,2,1,2,-13,-12,9,-2
1511884741136900,-5,-1,1,-1,6,5,-1,-7
1511884741150179,0,3,6,13,17,-2,-2,2
1511884741150179,1,-2,-5,-4,-10,2,6,2
1511884741157095,-2,-5,-5,-10,-4,6,-2,0
1511884741157095,1,3,6,11,-2,-10,2,1
1511884741172320,0,1,-4,-2,8,2,0,0
1511884741172320,-3,-4,-13,-14,0,-1,1,-3
1511884741180159,2,3,5,10,10,18,-1,1
1511884741180159,-2,-2,1,-7,-4,3,0,-2
1511884741195398,-4,-3,-7,-5,-4,3,0,-1
1511884741195398,-3,1,3,6,-6,-4,-3,-2
1511884741196199,3,2,6,0,-8,-10,-3,2
1511884741196199,-3,-5,-8,-6,-6,0,-2,-1
1511884741210239,2,0,4,1,-2,-17,-13,-4
1511884741210239,-1,-3,-3,1,9,19,6,-1
1511884741217452,0,-4,-9,-15,-21,-24,-3,1
1511884741217452,1,2,0,-11,7,12,2,-1
1511884741232545,0,-1,2,7,-6,-12,-4,0
1511884741232545,-1,0,1,6,7,1,8,0
1511884741240542,1,-1,1,4,7,-8,-17,-1
1511884741240542,-1,2,0,8,-3,21,0,-3
1511884741255664,-2,-1,-5,-9,-1,-2,15,3
1511884741255664,-2,-6,-6,-9,3,1,-5,-4
1511884741256638,1,0,1,1,-6,-5,-3,0
1511884741256638,0,-1,-1,-2,-1,8,3,0
1511884741269597,-1,0,-1,5,4,-1,-4,-1
1511884741269597,2,1,2,-2,-9,3,2,1
1511884741277539,-3,-2,-2,1,8,4,4,1
1511884741277539,0,-1,-2,-2,1,-7,-2,-2
1511884741292577,-1,1,1,-4,-3,4,-2,7
1511884741292577,-2,2,2,4,3,9,0,-4
1511884741300788,-4,1,1,1,-2,-4,2,-1
1511884741300788,9,1,0,-2,-3,-10,-7,2
1511884741314996,-4,-1,0,0,-3,-2,-1,4
1511884741314996,-3,-3,-3,1,0,-7,-7,-4
1511884741323127,-3,-2,-1,-2,-2,3,-11,-8
1511884741323127,-1,-3,0,-2,0,-5,-25,8
1511884741330133,-6,-1,0,-1,2,5,7,-21
1511884741330133,8,3,2,4,1,-5,12,20
1511884741337062,-4,-1,-2,-3,-5,7,-22,-24
1511884741337062,3,-1,3,6,2,-17,-2,2
1511884741352112,-2,-4,-2,-3,-3,-1,0,-9
1511884741352112,0,-2,1,1,0,5,11,5
1511884741360285,0,0,1,3,0,4,10,-3
1511884741360285,-1,1,-2,2,1,9,-4,0
1511884741375321,-2,-4,-5,-7,-7,-13,-10,6
1511884741375321,-1,1,0,2,2,-2,2,-8
1511884741383385,3,0,1,5,4,-2,7,7
1511884741383385,2,0,-1,-2,0,7,15,9
1511884741390361,0,-2,-3,-3,1,6,-5,-1
1511884741390361,0,1,0,-1,-6,-14,-8,0
1511884741397423,-9,-2,-4,-4,-1,6,3,0
1511884741397423,6,-2,-1,-2,-3,-4,7,14
1511884741412461,2,2,2,1,-2,13,6,-9
1511884741412461,-1,-1,0,3,5,-2,6,-5
1511884741419492,1,-2,-3,1,-1,-18,-5,4
1511884741419492,-6,-2,-1,-4,-2,14,14,-9
1511884741434588,-1,-4,-2,-2,2,1,5,14
1511884741434588,2,1,2,5,2,-4,-11,-5
1511884741443507,2,-2,-1,2,-3,-6,5,7
1511884741443507,-6,-1,-2,-7,-6,-6,-4,-10
1511884741449702,4,-1,-7,-8,-8,-6,-8,1
1511884741449702,-3,5,2,1,3,3,2,4
1511884741457540,13,0,1,2,5,11,21,15
1511884741457540,-9,-3,0,6,2,-5,-11,-9
1511884741472759,4,1,1,0,-3,-2,7,-2
1511884741472759,1,-2,-7,-12,-3,1,-8,-4
1511884741479601,16,2,-1,-3,-1,12,6,10
1511884741479601,-9,3,2,4,1,-9,-5,0
1511884741494637,3,2,5,10,4,-2,-7,1
1511884741494637,-2,-4,-3,-4,-3,7,2,-4
1511884741510827,-8,0,0,-1,-3,1,1,-14
1511884741510827,2,1,1,3,1,1,5,-19
1511884741517966,-2,-1,-3,-8,-2,6,5,0
1511884741517966,-6,-2,-1,-2,1,-12,-16,-3
1511884741518846,-1,0,0,-2,0,-5,-7,0
1511884741518846,2,2,0,2,0,0,0,2
1511884741531924,-6,3,2,3,-2,-11,-11,-10
1511884741531924,6,2,1,3,4,10,17,3
1511884741539902,1,3,7,6,4,5,-4,0
1511884741539902,9,-5,-2,2,3,0,30,8
1511884741555141,-14,-6,7,13,5,4,0,-3
1511884741555141,10,3,-12,-21,-7,-14,-23,4
1511884741562963,-12,-8,-17,-13,-13,-14,-6,-1
1511884741562963,4,0,3,-3,4,10,0,-8
1511884741578206,5,10,-1,3,-4,-3,-3,2
1511884741578206,-7,-12,0,-9,-6,5,1,-6
1511884741579004,-4,2,3,12,6,-9,3,0
1511884741579004,-2,4,-2,-11,-2,14,0,4
1511884741592039,11,4,5,6,7,-4,16,6
1511884741592039,-2,1,2,9,15,8,1,3
1511884741600186,0,0,-4,-5,-6,3,7,4
1511884741600186,-6,-4,-5,-8,-13,-13,-16,-3
1511884741615221,-2,-2,-4,-5,2,2,-7,-2
1511884741615221,-4,-6,-1,9,12,7,7,-1
1511884741623416,3,1,1,-3,4,4,-6,4
1511884741623416,-4,-6,-2,8,3,-5,0,-10
1511884741638336,-1,7,17,9,4,5,1,-4
1511884741638336,-3,-17,-26,-22,-17,-6,-5,9
1511884741638336,-4,1,0,8,-5,-1,2,-2
1511884741638336,-1,5,-16,-24,-9,-19,-7,11
1511884741652459,-10,-8,-7,-19,-5,4,-9,-12
1511884741652459,14,14,23,23,5,4,0,0
1511884741659464,3,-3,0,-3,0,-6,-25,14
1511884741659464,-6,-10,0,9,8,12,15,-2
1511884741674543,1,-2,-3,4,2,-8,3,-5
1511884741674543,-16,-4,0,-6,-9,-21,-15,-17
1511884741682569,14,4,3,12,11,23,8,31
1511884741682569,14,5,6,1,-2,-12,9,-28
1511884741697599,5,-2,-1,9,16,12,-25,12
1511884741697599,-11,-8,-8,-15,-15,-7,21,-10
1511884741698566,-12,-9,-2,2,5,13,20,-15
1511884741698566,-7,-3,-5,-14,-7,-24,-35,-1
1511884741712604,7,7,0,0,-15,29,41,8
1511884741712604,0,2,2,3,8,7,11,9
1511884741719819,-5,-11,-1,-1,7,-7,-28,-4
1511884741719819,2,2,-3,-8,-3,2,26,15
1511884741734661,-7,-2,-4,1,1,-7,-4,-16
1511884741734661,-4,6,4,-2,-11,-3,-13,3
1511884741742912,2,-2,-1,-5,-14,-8,18,-16
1511884741742912,-6,4,9,18,23,2,-11,-3
1511884741757952,3,-13,-14,-15,-9,0,-6,12
1511884741757952,-3,-2,1,3,5,4,-2,-2
1511884741758951,-6,8,-5,-7,-5,-8,-3,-12
1511884741758951,11,5,4,3,-9,3,0,8
1511884741772147,-12,-13,2,1,0,-11,-11,-1
1511884741772147,5,-3,-8,-5,2,5,7,8
1511884741780153,13,11,3,-4,-4,6,7,-3
1511884741780153,-18,-9,4,8,-1,2,-5,-9
1511884741795233,12,6,3,4,4,1,6,17
1511884741795233,-4,-3,1,6,-3,-1,-1,-7
1511884741803253,7,-2,2,0,3,-16,-18,-10
1511884741803253,-1,1,-16,-17,-6,9,6,0
1511884741818288,-8,-13,-6,-6,-5,-10,2,-14
1511884741818288,3,7,12,11,3,1,15,2
1511884741819257,-3,4,5,2,1,10,-10,-14
1511884741819257,8,5,2,7,5,5,-1,8
1511884741832444,-8,-8,-9,-12,-5,-13,-3,-8
1511884741832444,3,-1,-3,-4,-6,-8,-6,-7
1511884741840454,9,0,5,-1,0,-1,7,27
1511884741840454,-7,5,9,8,3,4,-2,-7
1511884741854490,6,7,0,6,-3,0,-5,25
1511884741854490,-10,-20,-19,-17,-4,-5,-12,-3
1511884741863467,-7,-5,-4,-8,-4,4,13,-7
1511884741863467,2,2,3,3,2,6,1,6
1511884741878535,6,11,10,11,10,1,2,-1
1511884741878535,1,0,11,15,2,2,-8,-5
1511884741878535,-9,-6,-9,-8,-10,-9,-2,-1
1511884741878535,-3,-11,-20,-32,-21,1,-1,1
1511884741892706,-3,1,3,7,12,3,3,-21
1511884741892706,6,3,-7,-3,6,8,16,22
1511884741899833,-2,4,6,6,0,-8,-15,-8
1511884741899833,-1,-15,0,10,1,-1,1,36
1511884741914764,-9,3,4,-6,-13,-4,-5,-25
1511884741914764,11,11,-5,0,-1,-6,-2,31
1511884741922962,13,2,-1,-2,-2,-7,-8,3
1511884741922962,-10,5,4,3,4,12,7,3
1511884741938069,7,2,10,6,-1,-3,0,-4
1511884741938069,3,2,-2,2,3,3,-5,0
1511884741938968,-14,0,-4,-7,-2,0,10,-23
1511884741938968,3,1,-5,-4,2,0,0,-22
1511884741952004,-1,-1,-2,-2,-6,-11,-20,4
1511884741952004,4,15,13,3,13,19,-3,-14
1511884741960142,2,0,13,20,4,11,27,12
1511884741960142,0,-7,-7,-5,-11,-10,-3,-19
1511884741975068,-6,-7,-18,-25,-6,1,4,7
1511884741975068,-1,-3,-4,-6,-9,-5,4,-3
1511884741983394,-1,-3,-3,8,35,17,5,0
1511884741983394,6,4,14,27,-3,-32,-15,2
1511884741998408,0,5,12,16,13,32,15,15
1511884741998408,-3,-10,-14,-16,-31,4,-14,-21
1511884741998408,-10,-10,-18,-32,-5,-19,-15,-2
1511884741998408,-5,-1,-8,-5,2,2,3,-12
1511884742012618,9,3,-5,-1,-11,-24,-27,16
1511884742012618,0,7,22,28,23,11,-5,-26
1511884742019626,2,2,3,19,32,28,-2,29
1511884742019626,5,0,-2,6,6,-24,-10,3
1511884742034564,-7,-14,-20,-27,-10,-3,8,-3
1511884742034564,1,-2,9,0,-7,4,-9,3
1511884742042701,5,10,4,-4,-19,-40,-15,4
1511884742042701,-2,5,-7,-4,5,24,1,4
1511884742057628,-10,-10,-17,-11,-21,-17,1,-9
1511884742057628,3,-3,-5,-10,9,-10,-1,5
1511884742058627,0,-9,6,10,-2,2,6,-1
1511884742058627,-12,-8,15,8,0,1,-15,-6
1511884742072865,-1,-8,1,1,-2,-4,16,2
1511884742072865,-16,-13,-2,-1,1,4,-2,-19
1511884742079770,3,-1,0,-3,-7,6,18,3
1511884742079770,-2,0,-6,-3,2,1,-7,1
1511884742094763,2,6,5,2,-2,-8,-17,-15
1511884742094763,-5,0,-3,-2,8,-14,-27,-4
1511884742102975,4,2,-5,1,-8,9,23,20
1511884742102975,5,6,2,-1,-4,-2,-8,-41
1511884742117824,-10,-4,-3,-5,5,21,28,21
1511884742117824,5,0,1,5,3,-16,-6,14
1511884742118823,-4,0,0,-10,-18,-4,-11,-11
1511884742118823,-5,-12,-10,-7,-11,3,10,-4
1511884742132315,4,12,7,17,14,-3,-5,3
1511884742132315,-1,3,-2,-7,3,-13,6,-1
1511884742140236,1,-5,-4,-3,-4,5,-3,-2
1511884742140236,-5,0,4,1,13,8,6,-4
1511884742155287,3,1,1,-2,-10,4,1,-16
1511884742155287,1,-2,1,1,-14,-5,12,24
1511884742163322,-4,0,-5,-6,-5,-3,16,-9
1511884742163322,1,-3,-4,-11,-8,3,-9,7
1511884742193294,3,4,7,5,16,8,-1,-5
1511884742193294,-3,1,0,7,2,-3,-1,-18
1511884742195281,11,1,1,1,-1,-11,-1,19
1511884742195281,7,2,-2,1,-1,5,8,25
1511884742215336,-3,-2,-3,-1,4,5,-9,-9
1511884742215336,3,-1,0,2,-5,-2,0,2
1511884742223361,-11,-2,1,0,-5,-1,15,-26
1511884742223361,11,4,2,-1,-2,-15,-20,18
1511884742231419,-2,-2,-4,-7,0,2,-3,4
1511884742231419,1,4,2,3,0,-1,5,-20
1511884742232383,-3,0,-7,-2,-6,-1,-13,-17
1511884742232383,-1,-2,1,2,13,13,19,6
1511884742238414,-1,-1,1,-2,-5,-7,-3,0
1511884742238414,-3,-1,4,-4,0,-5,-3,6
1511884742238414,2,-7,-12,-13,-5,-1,-18,3
1511884742238414,0,3,3,0,0,9,5,8
