timestamp,emg1,emg2,emg3,emg4,emg5,emg6,emg7,emg8
1512354362124839,-2,1,-2,1,1,1,-5,-1
1512354362124839,1,1,3,-1,2,1,1,0
1512354362125839,0,3,0,1,-3,-4,1,-1
1512354362125839,-3,-6,-2,-2,0,1,-3,1
1512354362126839,2,1,-1,-1,0,-1,-3,-2
1512354362126839,2,3,2,2,-3,-4,3,-2
1512354362127839,-1,0,-5,-1,1,1,-1,-1
1512354362127839,2,-1,1,-2,0,-1,-2,-1
1512354362139839,-1,-1,-4,3,0,-3,3,2
1512354362139839,-1,-1,5,-3,2,3,-2,-1
1512354362147839,-1,-3,-2,-1,1,-2,-4,0
1512354362147839,3,2,0,-1,-1,-1,2,-2
1512354362154839,-1,0,3,3,1,0,0,-1
1512354362154839,-1,-5,-5,-6,-6,1,-4,-1
1512354362167839,0,0,0,0,2,4,-4,-2
1512354362167839,-1,1,-1,4,3,-1,1,-4
1512354362179839,-2,-3,1,-1,-2,3,-3,0
1512354362179839,1,0,-7,0,-1,-1,3,0
1512354362182839,1,1,3,-2,-2,0,3,-1
1512354362182839,-4,-2,-5,-4,-3,0,1,-1
1512354362199839,-1,2,2,-4,0,0,0,-1
1512354362199839,0,-2,-8,-2,0,-2,-2,2
1512354362206839,1,1,3,2,0,2,-1,-2
1512354362206839,-1,2,-4,0,0,4,-2,-3
1512354362245839,2,-1,7,0,-1,-6,1,-1
1512354362245839,1,2,2,4,-1,-4,2,2
1512354362246839,0,-4,1,-8,-1,2,-2,-1
1512354362246839,-2,-3,-4,-3,-2,-3,1,0
1512354362247839,2,3,0,0,0,-3,0,-1
1512354362247839,-2,-1,0,0,0,1,-2,0
1512354362249839,-4,-2,-2,-5,-4,1,-3,-1
1512354362249839,3,1,3,3,-3,-6,0,0
1512354362258839,-2,-3,0,0,1,2,1,0
1512354362258839,2,-3,1,-1,0,-2,-3,-2
1512354362264839,-3,0,-3,3,-1,-5,-1,2
1512354362264839,-1,1,-7,-3,1,1,1,0
1512354362273839,-4,-4,-7,-4,-1,2,-4,-1
1512354362273839,0,-1,1,0,1,-1,-1,-2
1512354362287839,2,-1,8,4,2,1,0,2
1512354362287839,-4,-6,-3,-6,-1,2,-3,-2
1512354362296839,0,2,-6,-5,0,0,-2,-1
1512354362296839,3,0,-3,-1,-1,-1,2,-4
1512354362302839,-3,0,-1,-1,-2,-2,3,2
1512354362302839,2,0,4,0,-2,2,-4,0
1512354362318839,-2,0,2,2,-3,0,2,1
1512354362318839,1,0,3,-1,-2,-2,-1,-1
1512354362324839,0,-2,-3,-2,2,-1,-1,-4
1512354362324839,-2,0,0,0,4,0,0,-1
1512354362333839,-2,0,3,1,-1,1,0,3
1512354362333839,-2,0,-8,-6,-3,-2,-1,-1
1512354362347839,0,1,-3,1,0,3,-1,-1
1512354362347839,-1,0,3,2,-2,-1,2,-2
1512354362356839,0,1,3,-3,1,-1,-3,-4
1512354362356839,-6,-3,-1,4,-3,3,-1,1
1512354362362839,-1,1,-7,-3,-4,-5,-3,-3
1512354362362839,3,-1,0,2,-2,-1,0,2
1512354362378839,1,0,2,2,0,2,1,-1
1512354362378839,-1,-1,3,1,1,2,0,-3
1512354362384839,-1,0,1,0,0,-1,1,0
1512354362384839,-1,0,-1,-2,-1,1,-3,0
1512354362393839,0,-3,-4,0,0,-2,-3,1
1512354362393839,-2,1,3,-1,0,2,0,2
1512354362407839,1,0,-4,-2,-3,4,0,2
1512354362407839,-1,-2,-5,-1,1,3,-3,-2
1512354362416839,1,0,-1,-5,-2,1,-1,-3
1512354362416839,-5,0,8,4,1,1,-3,-3
1512354362422839,0,-2,3,2,1,-2,-1,1
1512354362422839,-2,1,-3,-4,-2,-2,-2,-5
1512354362439839,0,1,-9,-3,-2,-3,1,0
1512354362439839,1,2,-4,-1,-1,1,0,-1
1512354362444839,-2,1,5,-2,2,0,-1,2
1512354362444839,1,-1,2,4,0,-2,0,2
1512354362453839,-3,-3,0,2,1,3,-2,-1
1512354362453839,2,-1,0,-1,0,-2,-2,1
1512354362467839,1,2,-2,3,0,-1,1,-5
1512354362467839,0,-1,-7,-5,-1,-3,-2,-1
1512354362476839,0,0,3,1,1,0,3,-3
1512354362476839,-1,-2,-6,-6,-2,-3,2,1
1512354362482839,-4,0,0,-3,-3,3,-2,-2
1512354362482839,-2,0,1,6,1,1,-1,3
1512354362498839,0,-2,6,2,-2,0,-1,-2
1512354362498839,-1,-3,-3,-2,-1,-2,4,2
1512354362504839,2,3,-5,-6,-1,1,1,0
1512354362504839,-2,0,0,-6,-2,-2,3,-5
1512354362513839,-1,0,0,0,2,-1,-1,2
1512354362513839,0,-3,-2,-3,-1,-2,-2,-1
1512354362527839,0,1,3,1,0,0,0,0
1512354362527839,3,1,2,0,-1,2,1,2
1512354362536839,-1,-2,7,3,2,1,-1,-3
1512354362536839,0,5,-1,-1,0,1,-3,0
1512354362549839,1,-3,-5,-1,-2,-2,1,-1
1512354362549839,-1,-2,-3,-2,-1,3,1,1
1512354362558839,-2,-3,-2,0,-3,1,-4,-2
1512354362558839,-2,-3,-3,-7,0,2,-3,-1
1512354362564839,2,-1,7,4,4,-4,0,0
1512354362564839,0,2,3,1,0,-3,-1,0
1512354362573839,-2,0,-6,-2,-2,-1,1,2
1512354362573839,1,-1,-3,-1,1,-1,1,-2
1512354362587839,0,-3,-4,-2,0,0,-2,-2
1512354362587839,-2,0,3,-1,3,1,-3,-3
1512354362596839,-4,3,3,2,0,-2,1,1
1512354362596839,-1,0,1,-2,0,1,-3,-4
1512354362609839,0,-2,3,0,-2,-3,0,-4
1512354362609839,-1,0,-3,2,1,2,1,0
1512354362618839,0,-2,-7,-5,-2,-1,-2,0
1512354362618839,0,-2,0,2,-3,2,-1,-2
1512354362624839,-1,-2,-3,-4,1,3,-5,3
1512354362624839,3,1,3,0,-2,-1,0,-1
1512354362633839,0,2,-2,-2,0,2,1,-1
1512354362633839,-2,-2,1,2,0,1,1,0
1512354362647839,-2,0,-1,-1,0,3,2,-2
1512354362647839,0,0,5,0,-3,1,-4,-2
1512354362656839,1,-2,-2,-1,-1,-1,-2,-2
1512354362656839,-1,0,-3,0,-5,0,0,1
1512354362669839,-3,-1,-1,-3,-4,4,-2,1
1512354362669839,-1,-1,-6,1,0,-1,2,0
1512354362678839,2,0,1,-5,-2,-5,-2,-1
1512354362678839,0,-4,3,2,-1,2,-2,-3
1512354362684839,0,1,-5,-4,0,-1,-1,-2
1512354362684839,-3,-3,-1,-2,2,2,2,-1
1512354362693839,-1,-3,-1,1,-5,-3,-2,0
1512354362693839,-1,0,1,-2,0,0,-5,-2
1512354362707839,2,-1,5,1,0,-3,-2,0
1512354362707839,-1,-1,5,1,0,1,-3,-2
1512354362716839,0,-1,-6,-4,-1,4,2,2
1512354362716839,-2,0,1,-1,2,1,0,0
1512354362729839,0,-1,-2,-1,0,0,0,-3
1512354362729839,-2,-2,-4,0,-1,-2,-2,1
1512354362738839,0,-1,0,-1,-2,1,2,-2
1512354362738839,0,-1,-4,-1,-3,-3,-1,-3
1512354362744839,2,1,0,2,-1,-1,1,1
1512354362744839,-1,-1,-2,-4,-3,-3,-1,-2
1512354362753839,0,2,1,0,1,4,0,-1
1512354362753839,0,3,3,1,-2,-4,0,1
1512354362767839,-1,-1,2,-1,-3,-2,-1,0
1512354362767839,-1,-1,-1,3,-1,-1,-5,-1
1512354362776839,-2,-1,-4,-3,-1,-3,-1,-2
1512354362776839,0,0,-3,0,3,-1,1,-2
1512354362789839,1,-2,1,-2,0,-2,-4,-3
1512354362789839,2,0,0,-2,1,0,1,2
1512354362798839,-4,-2,-5,0,2,-4,-2,0
1512354362798839,0,-1,-9,-2,-1,-3,1,1
1512354362804839,2,-2,-4,-4,-3,-3,-2,-1
1512354362804839,-2,-1,1,0,0,1,3,-1
1512354362819839,1,1,7,3,-1,-1,-1,1
1512354362819839,-1,-1,5,0,1,0,1,-1
1512354362827839,-3,-2,1,3,1,2,1,-3
1512354362827839,-1,-5,-8,-6,-5,1,-2,-2
1512354362836839,1,-1,-1,-2,-4,1,1,-3
1512354362836839,-1,-2,-1,-5,-1,2,2,0
1512354362849839,-3,1,1,2,-1,1,0,-1
1512354362849839,0,2,2,3,2,-2,1,0
1512354362858839,-2,1,1,0,1,-1,-6,0
1512354362858839,4,-1,2,6,-1,-3,-2,1
1512354362864839,-2,-2,-3,-2,1,3,0,-1
1512354362864839,-1,0,-5,-7,-2,-3,0,-1
1512354362879839,0,-2,-1,-1,0,3,-1,0
1512354362879839,2,0,0,1,0,0,-1,2
1512354362887839,3,-1,1,3,0,-2,-2,1
1512354362887839,-2,3,3,1,-1,-4,-1,-2
1512354362896839,-1,2,2,1,0,-2,2,0
1512354362896839,-1,-2,-1,-3,-3,1,0,0
1512354362909839,-2,-2,-9,-3,-1,-1,1,-2
1512354362909839,-3,-1,-1,-5,-1,-1,-2,0
1512354362918839,-2,-1,3,2,-3,1,-1,-1
1512354362918839,-4,2,2,1,1,2,-1,-2
1512354362924839,1,0,6,2,1,-4,3,0
1512354362924839,0,-3,4,-1,-2,3,0,0
1512354362939839,3,2,-9,-3,7,-3,0,-2
1512354362939839,0,-4,-3,-1,-1,-5,-1,1
1512354362947839,-2,4,0,-4,-1,-2,0,-1
1512354362947839,0,0,4,1,2,-1,-1,1
1512354362956839,-1,-2,7,-1,-1,-2,-2,0
1512354362956839,-3,1,-3,-3,1,-1,-1,0
1512354362969839,0,-2,-5,-4,0,0,3,-4
1512354362969839,0,0,-6,-1,-3,-1,0,-2
1512354362978839,-1,-1,1,2,-3,-1,0,-1
1512354362978839,0,3,3,2,-1,2,0,0
1512354362984839,-1,-2,-6,0,0,1,-3,1
1512354362984839,1,-1,-1,-2,2,0,-1,1
1512354362999839,1,-4,-8,-6,-4,-3,-2,-2
1512354362999839,0,-1,1,0,-1,0,0,-3
1512354363007839,-2,1,7,3,-2,1,-2,1
1512354363007839,-2,-2,-4,-3,-1,-1,-2,1
1512354363016839,-2,-2,-2,-1,1,3,-3,0
1512354363016839,-4,1,-4,-4,-1,-2,-2,-1
1512354363029839,-2,0,1,-3,-2,-2,-4,1
1512354363029839,1,0,2,2,0,1,0,-3
1512354363038839,0,-2,0,-2,2,2,0,-1
1512354363038839,-1,-2,-3,-3,-2,-1,1,-1
1512354363044839,1,-2,-1,-1,1,0,-2,-1
1512354363044839,0,0,0,0,-1,-2,1,1
1512354363059839,0,0,-2,-2,0,1,-3,0
1512354363059839,-1,1,0,-1,0,-1,-2,-1
1512354363067839,-3,-1,0,1,2,-1,0,-2
1512354363067839,-2,0,-3,-2,-1,1,-5,-1
1512354363076839,-2,2,2,0,0,-1,-1,0
1512354363076839,2,-1,-1,0,-1,0,2,-2
1512354363089839,1,-1,-3,-2,0,-4,2,1
1512354363089839,0,1,0,2,0,0,-1,-1
1512354363098839,-1,-1,2,2,0,-1,3,0
1512354363098839,0,2,0,-4,0,-1,-3,1
1512354363104839,-2,-4,1,-2,-3,-3,0,-4
1512354363104839,-1,-1,0,-1,0,0,0,-2
1512354363119839,1,0,-1,0,1,0,0,-1
1512354363119839,1,-4,-2,0,-4,0,1,1
1512354363127839,1,0,0,-1,-1,3,-3,3
1512354363127839,1,0,1,-1,-1,0,1,-1
1512354363136839,-2,-4,1,2,-1,-1,-4,0
1512354363136839,-1,1,-3,-2,-1,-3,0,-1
1512354363149839,-3,1,-2,2,0,0,1,-1
1512354363149839,0,1,-1,-3,-4,-1,-1,0
1512354363158839,0,2,-1,-3,-1,0,1,0
1512354363158839,1,-1,0,0,-1,2,1,1
1512354363164839,-2,0,-1,-3,-4,-2,0,-1
1512354363164839,-1,-2,0,1,1,-1,-5,-2
1512354363179839,-1,1,-2,-2,-1,2,-3,-1
1512354363179839,4,-4,-1,2,3,-2,-1,0
1512354363187839,-3,3,-1,0,-1,1,-2,0
1512354363187839,0,-2,-9,-4,0,1,0,0
1512354363196839,-1,0,5,-1,-3,1,-2,-1
1512354363196839,-3,2,-2,-2,1,-1,-1,0
1512354363209839,0,-1,-1,0,2,-2,-2,-1
1512354363209839,0,-1,-4,-2,-2,1,-2,-4
1512354363218839,1,-1,-3,-2,-3,-1,1,2
1512354363218839,-2,0,4,-1,1,4,-3,-1
1512354363232839,-1,0,3,2,1,1,-3,-3
1512354363232839,-2,-2,2,1,2,-3,0,2
1512354363239839,-1,-5,-2,1,2,-4,0,-5
1512354363239839,1,-1,0,-3,-3,-1,0,-2
1512354363256839,1,-1,0,-1,-2,2,-1,1
1512354363256839,-1,-1,-2,-1,-1,4,3,-5
1512354363257839,-1,2,-2,-5,0,-1,-2,1
1512354363257839,0,1,3,-1,-1,0,0,-2
1512354363269839,-3,0,-4,-3,-1,-1,-1,-1
1512354363269839,-1,-2,1,2,0,0,2,-1
1512354363278839,0,1,-1,-1,2,-4,1,0
1512354363278839,-1,-1,1,-1,-5,-6,0,1
1512354363292839,-1,0,-1,-1,0,3,0,0
1512354363292839,2,-1,2,4,1,-4,-1,-1
1512354363299839,-2,0,-2,2,0,-2,-3,0
1512354363299839,-4,-1,-2,1,-1,2,-2,-2
1512354363316839,-2,0,0,-4,-2,-4,-1,-2
1512354363316839,-2,1,-1,-1,-1,0,-1,-2
1512354363317839,2,-1,-1,0,-1,-4,1,0
1512354363317839,-3,-1,-3,-2,1,2,-1,-3
1512354363329839,-1,1,1,0,-1,1,0,-2
1512354363329839,-1,0,0,-2,-3,-1,5,3
1512354363338839,0,1,-1,-3,-4,-1,-2,0
1512354363338839,-1,1,-4,-1,-1,0,-1,1
1512354363353839,0,1,0,-1,-3,-2,-2,1
1512354363353839,0,0,0,-1,-1,-3,-2,-1
1512354363359839,0,-4,-1,0,0,4,0,-2
1512354363359839,0,0,2,4,0,-1,1,-1
1512354363376839,0,-2,-2,-1,-5,-4,-1,1
1512354363376839,1,0,0,0,2,3,3,2
1512354363377839,-2,2,1,2,-2,0,4,1
1512354363377839,1,-1,-2,-5,-2,-3,-1,1
1512354363389839,0,0,1,1,-1,3,-3,-1
1512354363389839,2,0,-1,0,-2,-4,-4,-1
1512354363398839,-1,0,-3,-2,-4,-4,0,-2
1512354363398839,0,-1,-1,-2,3,-1,-1,-2
1512354363413839,1,0,2,-2,0,-3,2,-1
1512354363413839,0,0,0,-3,1,3,-4,-1
1512354363419839,1,0,0,0,-2,-2,-3,-2
1512354363419839,-1,-3,-2,-3,2,-2,-2,0
1512354363436839,-2,0,-1,-3,0,-2,-2,-3
1512354363436839,-1,0,1,1,-2,2,-2,4
1512354363437839,-1,1,1,2,-1,2,0,-1
1512354363437839,0,-2,-3,1,1,-2,-2,-1
1512354363449839,0,1,-1,0,-1,-1,-1,-1
1512354363449839,-2,0,-2,-3,4,1,0,-2
1512354363458839,0,-1,1,-1,0,1,-4,-1
1512354363458839,4,1,2,1,-2,0,2,0
1512354363472839,-3,2,-2,1,1,3,1,-1
1512354363472839,-1,-2,0,0,-3,-2,-5,-1
1512354363479839,1,-1,-2,-1,-1,-5,-1,0
1512354363479839,-5,0,0,-5,-1,-1,-1,0
1512354363496839,-1,-3,-3,0,2,1,0,3
1512354363496839,-2,0,2,3,-4,-4,0,-1
1512354363497839,1,-2,-5,-3,0,2,5,-1
1512354363497839,-3,1,-1,-2,-3,-4,1,-1
1512354363509839,3,-1,0,5,1,1,-4,-2
1512354363509839,0,0,0,-2,2,2,-1,0
1512354363518839,1,1,0,-1,-1,-1,-3,-3
1512354363518839,-2,-1,-1,-2,-5,-1,-1,0
1512354363532839,-3,0,-1,0,1,-1,-2,0
1512354363532839,-2,-1,-2,-4,1,5,0,-2
1512354363539839,-3,-3,1,-1,-2,1,1,-1
1512354363539839,2,1,0,-2,1,4,-4,2
1512354363556839,0,-4,0,-1,0,0,1,-3
1512354363556839,1,0,-2,-1,-5,-4,1,-1
1512354363558839,-1,-1,-1,-5,-2,0,-4,0
1512354363558839,-4,3,-2,1,-2,-1,3,0
1512354363569839,0,-3,0,-2,-3,-2,2,0
1512354363569839,-2,0,-1,-1,1,2,-1,-1
1512354363578839,1,-4,-1,-2,1,-3,-4,3
1512354363578839,1,0,0,4,-3,2,-1,-2
1512354363592839,1,-5,-2,-4,0,-1,-1,-3
1512354363592839,-1,-1,2,-1,1,1,1,2
1512354363599839,0,0,-1,0,-1,1,-2,0
1512354363599839,-2,-1,2,-1,2,-3,-5,-1
1512354363616839,-1,-2,-3,-2,-1,-5,1,0
1512354363616839,-1,-1,0,2,1,-2,-2,1
1512354363617839,-2,0,1,1,-1,2,1,-3
1512354363617839,-3,-3,-3,-2,-1,2,2,-1
1512354363629839,1,2,0,-2,0,1,-2,2
1512354363629839,-2,-1,1,0,0,-2,0,2
1512354363638839,-2,1,1,2,-1,2,-1,0
1512354363638839,-1,-1,-1,-2,0,1,0,-2
1512354363652839,-3,-2,0,1,-4,1,-1,-1
1512354363652839,0,1,0,1,0,1,-2,1
1512354363661839,-4,-1,-1,2,0,-2,0,-3
1512354363661839,0,-4,-10,-8,-3,0,-2,-2
1512354363676839,1,1,-1,-2,-1,2,2,-1
1512354363676839,1,-3,3,2,0,0,0,-1
1512354363677839,1,1,2,1,-5,-5,-1,0
1512354363677839,-2,-1,3,4,1,0,-2,2
1512354363689839,-4,-2,-3,-4,0,4,-1,-4
1512354363689839,-1,-1,-2,-1,-3,-2,-2,0
1512354363698839,2,-1,2,0,1,-5,0,-2
1512354363698839,-1,-1,1,-1,1,1,0,-1
1512354363712839,3,0,-2,0,-1,0,1,2
1512354363712839,-1,2,9,6,-1,0,0,-2
1512354363719839,0,2,9,5,0,4,-1,4
1512354363719839,-3,-8,-14,-5,0,0,1,-1
1512354363736839,-3,-5,-31,-21,-4,0,-4,-1
1512354363736839,-3,-3,-12,-10,-5,-3,1,-1
1512354363737839,-2,-2,-6,-12,-3,-1,3,0
1512354363737839,0,-1,4,-5,1,4,-1,-2
1512354363749839,2,1,0,-1,0,0,0,2
1512354363749839,3,2,1,5,-1,-3,1,3
1512354363758839,-4,0,17,15,-1,2,-2,-1
1512354363758839,0,5,14,10,2,-2,-1,-2
1512354363772839,2,-1,7,5,0,-2,4,1
1512354363772839,-1,-1,-4,-1,3,1,-3,-2
1512354363781839,-2,-1,-7,-5,-3,-10,0,-2
1512354363781839,3,3,0,4,3,2,0,2
1512354363795839,-3,-2,-1,-2,-2,2,4,0
1512354363795839,-2,0,-2,-2,-1,-5,0,-3
1512354363802839,2,-2,-10,-7,-1,2,2,-2
1512354363802839,1,-2,-7,-5,-4,-6,1,-1
1512354363809839,3,1,10,4,-1,7,3,1
1512354363809839,-1,0,6,2,1,-1,2,-1
1512354363818839,-1,-1,-5,-4,0,2,-5,3
1512354363818839,-2,-1,-7,-7,-4,-3,-3,-1
1512354363832839,-1,4,2,2,-1,-5,0,0
1512354363832839,1,-1,5,2,2,-1,-3,-2
1512354363841839,-1,-2,-5,0,1,0,0,-1
1512354363841839,0,-2,-15,-14,-4,-4,0,-4
1512354363855839,0,2,2,0,0,-7,-3,0
1512354363855839,-2,1,10,4,1,3,-3,-1
1512354363862839,-1,0,3,4,-1,-1,1,1
1512354363862839,0,-2,-3,-6,-3,0,-4,1
1512354363869839,0,-2,-2,2,1,1,-2,-2
1512354363869839,2,-1,1,1,0,3,0,3
1512354363878839,2,0,7,5,2,2,3,3
1512354363878839,0,4,4,1,0,0,0,-3
1512354363892839,-2,-1,-1,4,-1,1,-2,-2
1512354363892839,-3,-5,-7,-4,-3,-6,1,-4
1512354363901839,-1,0,-2,-5,-1,0,0,0
1512354363901839,3,-2,6,7,0,3,1,3
1512354363915839,-1,0,2,-3,3,4,0,2
1512354363915839,-1,-1,-6,-3,1,2,-1,-1
1512354363922839,-2,-4,0,0,1,3,-3,-3
1512354363922839,-2,-1,10,7,1,2,-1,-1
1512354363929839,1,1,10,8,-1,-2,-3,-4
1512354363929839,-3,-5,-17,-13,-3,1,1,-1
1512354363938839,-5,-2,-22,-17,-3,1,0,-5
1512354363938839,0,-2,-3,1,-1,0,-2,-3
1512354363952839,1,0,-4,-10,-4,-6,-3,-3
1512354363952839,0,2,8,3,-1,-2,0,0
1512354363961839,1,-2,8,10,1,-2,-1,-2
1512354363961839,-1,-1,-1,2,2,0,-3,-4
1512354363975839,-1,-2,5,2,-2,3,-2,1
1512354363975839,0,-2,-8,-6,-7,-3,8,0
1512354363982839,0,0,2,0,1,-1,-2,1
1512354363982839,1,-1,5,7,-2,-1,5,-1
1512354363998839,0,-1,0,1,1,0,-3,-1
1512354363998839,-3,-4,-1,-2,1,11,-1,-3
1512354364000839,0,-2,-9,-8,-4,-5,-2,-2
1512354364000839,-1,-1,-3,-6,-3,-2,0,2
1512354364012839,-2,0,3,3,-2,-3,-2,1
1512354364012839,2,-1,6,8,1,-2,-2,2
1512354364021839,0,0,-7,-7,0,2,-4,-5
1512354364021839,1,-2,-4,-9,1,3,-5,1
1512354364035839,1,-1,3,-2,0,-5,2,1
1512354364035839,0,-1,5,4,-1,-3,-2,1
1512354364042839,-1,2,-1,-3,-1,3,1,-1
1512354364042839,-2,-2,-2,-5,-2,-5,5,4
1512354364058839,1,1,-1,1,5,2,1,0
1512354364058839,-2,-2,-3,0,-2,-1,-5,-4
1512354364060839,1,4,5,1,-1,0,-10,-1
1512354364060839,-1,-3,-1,-1,-2,-1,5,-1
1512354364072839,-3,-3,-8,-4,-1,-3,1,-1
1512354364072839,-2,-2,-5,-4,1,-3,0,-1
1512354364081839,0,-5,2,-2,4,1,7,3
1512354364081839,-1,5,9,7,2,1,2,1
1512354364095839,2,-3,1,-1,-1,5,3,0
1512354364095839,-1,-2,-4,-2,-3,2,-9,-2
1512354364102839,0,1,1,5,-2,-6,7,-2
1512354364102839,-5,-6,-1,-3,0,-4,-2,2
1512354364118839,-1,-2,-2,0,1,2,-2,-1
1512354364118839,1,2,3,1,0,-5,3,3
1512354364120839,-3,-7,-5,1,-1,0,0,-2
1512354364120839,-2,1,-5,-3,1,-3,-2,-1
1512354364132839,0,3,1,1,-5,-4,-3,-3
1512354364132839,2,2,3,0,-2,-1,-1,0
1512354364141839,0,-1,2,0,0,1,-3,-2
1512354364141839,-1,-2,0,-1,-1,3,-2,-1
1512354364155839,-2,-3,-12,-10,-6,-4,-5,-1
1512354364155839,2,1,1,-4,4,1,0,0
1512354364162839,-2,-1,0,3,0,-2,0,2
1512354364162839,1,4,1,4,-1,0,-3,-3
1512354364178839,-3,-2,6,4,2,-3,0,-2
1512354364178839,0,2,-4,-2,-3,-6,-2,1
1512354364180839,4,0,-1,0,2,1,-6,-2
1512354364180839,-3,0,5,6,2,-1,-1,-2
1512354364192839,-2,-3,-3,-3,-3,-2,-2,0
1512354364192839,-1,0,-5,-4,2,5,3,-3
1512354364201839,1,-1,0,-4,-3,-1,0,4
1512354364201839,0,-2,0,2,-4,-3,4,0
1512354364215839,0,2,0,0,1,6,1,0
1512354364215839,-2,1,-1,0,-1,-4,-2,-2
1512354364222839,0,-3,-2,1,-1,1,2,0
1512354364222839,2,6,0,-3,1,-1,-7,1
1512354364238839,4,-1,1,1,3,0,-1,0
1512354364238839,3,-1,1,0,-2,0,0,-5
1512354364240839,-6,3,-6,-5,-1,-1,-2,-1
1512354364240839,1,-2,0,1,2,0,-2,-1
1512354364252839,1,2,3,0,-2,-2,-1,-3
1512354364252839,-2,-1,-1,2,1,2,-2,1
1512354364261839,3,-2,3,-1,-2,-5,3,1
1512354364261839,2,-2,-5,-6,0,2,0,1
1512354364275839,0,-4,1,-2,1,-4,-2,1
1512354364275839,-1,-1,0,2,0,3,0,-2
1512354364282839,-3,-2,0,2,-3,3,-3,-1
1512354364282839,-3,0,-1,-1,1,1,1,-3
1512354364298839,1,-2,-2,-2,0,1,4,-2
1512354364298839,1,0,-2,-2,-3,-2,-3,1
1512354364300839,2,1,4,3,2,1,-3,2
1512354364300839,-2,-3,-2,-1,-1,1,-3,-4
1512354364312839,-2,-1,-4,-3,-2,-6,-6,-2
1512354364312839,2,1,2,3,-2,-3,-1,1
1512354364321839,-4,-4,-2,-2,0,2,-2,-1
1512354364321839,-1,1,-5,-4,0,0,-7,3
1512354364335839,-2,-1,3,1,1,1,3,-1
1512354364335839,0,-5,-3,2,-2,0,2,0
1512354364342839,-1,0,-7,-10,-5,-6,2,-3
1512354364342839,2,0,-5,-8,-5,-4,2,-2
1512354364358839,0,0,-2,1,1,4,-3,1
1512354364358839,-1,0,7,1,3,2,-4,3
1512354364360839,-2,-1,1,1,0,-3,0,2
1512354364360839,0,-1,1,1,-2,1,0,-3
1512354364372839,0,1,-4,-2,0,-2,0,0
1512354364372839,0,-3,-3,-5,1,-4,0,0
1512354364381839,1,0,-1,0,1,0,-5,-2
1512354364381839,-4,-3,3,1,-1,1,-2,2
1512354364395839,-1,0,6,5,0,-1,0,-1
1512354364395839,-3,-3,-9,-2,-2,-1,2,-2
1512354364402839,1,-1,-7,-6,-3,1,2,0
1512354364402839,0,-1,-1,1,0,-2,-2,1
1512354364418839,-6,-2,1,-1,1,5,2,-2
1512354364418839,1,2,-2,-4,-4,-2,-2,3
1512354364420839,-6,2,1,2,1,3,2,1
1512354364420839,-1,-1,-1,-1,-6,2,-4,0
1512354364432839,3,2,-9,-5,0,6,2,1
1512354364432839,-3,0,5,-2,-1,1,0,1
1512354364441839,-1,-2,0,2,1,1,-2,-1
1512354364441839,-1,0,2,1,2,-5,2,1
1512354364455839,-2,-2,-4,-3,-3,-2,-5,-1
1512354364455839,1,1,0,-4,5,1,0,-3
1512354364462839,-6,-4,3,0,-4,2,0,-1
1512354364462839,-2,1,-2,-1,0,-7,0,-1
1512354364478839,-3,-4,-3,-2,-2,5,0,-1
1512354364478839,-4,-3,-4,-4,0,5,-1,3
1512354364480839,2,1,-3,-2,-2,-9,0,0
1512354364480839,0,-2,4,5,1,4,2,0
1512354364492839,-2,0,0,-3,-1,-8,-3,-2
1512354364492839,0,0,-3,-2,2,1,-3,-3
1512354364501839,0,0,2,1,2,0,-10,-4
1512354364501839,-3,-1,5,2,0,3,-1,-4
1512354364515839,2,0,2,2,1,-1,-5,-1
1512354364515839,-1,-4,-10,-3,-3,1,-2,-1
1512354364522839,2,-1,-6,-3,2,-2,-2,2
1512354364522839,-2,-5,-3,-5,-1,-5,3,0
1512354364538839,-1,3,2,-1,0,0,-3,-2
1512354364538839,-2,1,3,3,-2,-4,-2,0
1512354364540839,-2,-1,-2,-2,-3,-6,9,2
1512354364540839,2,-3,1,1,-4,2,3,-2
1512354364552839,-1,1,7,4,0,2,1,3
1512354364552839,-1,-2,-5,-1,-1,1,-2,-5
1512354364561839,3,-1,-1,4,3,-2,0,0
1512354364561839,0,-1,-4,0,1,1,-3,0
1512354364575839,-1,-3,-5,-7,-4,-5,-3,-1
1512354364575839,-1,-2,2,2,-1,-3,0,-1
1512354364582839,2,1,-2,-5,2,1,0,0
1512354364582839,1,2,10,8,2,1,-7,-5
1512354364598839,0,-2,11,9,-5,-1,-2,0
1512354364598839,-2,-4,-24,-16,6,2,-7,0
1512354364600839,1,-1,-9,3,-2,3,2,-3
1512354364600839,-2,1,-5,-8,-3,-2,-1,3
1512354364612839,-2,0,7,-3,-2,-5,-1,0
1512354364612839,3,3,14,9,-6,-5,1,-2
1512354364621839,3,2,1,-1,-2,-2,-2,-2
1512354364621839,2,-1,-4,0,4,-1,0,-2
1512354364635839,-2,4,2,4,-3,2,-5,-2
1512354364635839,-2,-2,-1,-3,-5,-3,-1,-3
1512354364642839,-4,-3,-7,-5,-1,3,-3,0
1512354364642839,3,-1,2,3,-3,-1,3,4
1512354364658839,0,1,0,1,5,2,0,-3
1512354364658839,1,-5,-4,-5,-3,0,1,1
1512354364664839,-4,0,-10,-8,-2,-1,-1,1
1512354364664839,0,0,-2,-5,-5,3,-4,-2
1512354364672839,-1,0,-2,3,1,-1,1,-2
1512354364672839,1,3,15,7,2,-1,3,-2
1512354364681839,0,-2,8,-4,-3,0,-3,-3
1512354364681839,-2,-5,-14,-5,0,7,-1,-2
1512354364695839,1,1,-10,-6,1,0,-1,-2
1512354364695839,0,4,12,5,-2,-4,2,1
1512354364702839,-1,-3,9,5,-1,-1,-2,-2
1512354364702839,-3,-8,-8,-4,-2,-7,-4,-3
1512354364718839,0,-9,-18,-14,-1,6,4,3
1512354364718839,-1,1,-1,1,-1,-5,-1,-1
1512354364720839,-3,0,5,2,7,3,5,3
1512354364720839,1,2,9,2,0,0,2,-2
1512354364732839,-1,-1,7,7,-2,-1,2,-1
1512354364732839,-1,-3,-3,-3,-2,-1,-6,-1
1512354364741839,-1,-5,-11,-7,-1,0,0,-2
1512354364741839,-1,0,-13,-4,-1,-4,2,-1
1512354364755839,-1,-2,2,0,2,-4,-1,1
1512354364755839,-2,-2,4,2,0,2,0,1
1512354364762839,2,0,16,12,-3,-3,-2,0
1512354364762839,1,2,-4,-3,0,1,-3,-2
1512354364777839,-2,-3,-11,-8,-5,-2,-3,0
1512354364777839,1,1,-4,-1,-3,-1,0,-1
1512354364784839,-2,-1,-1,-4,-4,-1,1,0
1512354364784839,-1,1,3,-2,-1,2,3,-2
1512354364792839,-2,-1,-6,-2,-1,-8,3,2
1512354364792839,1,1,6,0,-4,-8,3,-1
1512354364801839,3,1,-1,2,5,9,-1,-1
1512354364801839,0,1,1,1,-6,-8,-6,-1
1512354364815839,0,-1,-3,2,9,7,4,-1
1512354364815839,-3,-2,-4,-4,-2,-1,-1,-1
1512354364822839,-5,2,-6,-6,-4,-1,-2,-2
1512354364822839,-2,1,2,-1,-1,-7,-4,2
1512354364837839,4,2,6,1,-4,-1,7,0
1512354364837839,-2,-5,4,5,3,2,0,-3
1512354364844839,1,-1,4,-2,-1,-2,-2,-2
1512354364844839,-3,-3,-9,-7,0,3,-2,0
1512354364861839,1,0,-8,-7,-2,0,-6,-6
1512354364861839,1,-2,-16,-9,1,4,-6,-3
1512354364862839,0,1,5,5,-3,-6,1,-3
1512354364862839,1,-2,10,5,3,4,0,0
1512354364875839,0,0,8,4,-5,-4,-2,2
1512354364875839,0,0,5,3,2,-2,2,3
1512354364882839,1,-1,-8,-2,1,-2,1,0
1512354364882839,-1,2,1,-1,-3,0,1,-1
1512354364897839,-1,-2,-1,1,5,5,-5,0
1512354364897839,1,0,-3,-2,-3,4,1,-1
1512354364904839,0,1,-1,-3,-1,-1,-4,-2
1512354364904839,1,0,0,3,4,3,1,0
1512354364921839,-2,1,0,0,-1,2,0,1
1512354364921839,2,-1,4,1,-1,-3,-3,0
1512354364922839,-2,1,0,0,0,-1,-3,0
1512354364922839,-1,-1,4,-3,-2,-4,-3,-3
1512354364935839,1,-1,-2,-6,0,-1,1,-1
1512354364935839,0,-4,-16,-7,-4,-2,-4,2
1512354364942839,1,2,2,0,-2,1,1,2
1512354364942839,1,-5,2,1,5,4,4,1
1512354364957839,-2,-3,3,1,-2,-2,-1,-3
1512354364957839,-2,2,-1,-2,0,0,1,-4
1512354364964839,1,-1,0,2,-3,-6,2,-2
1512354364964839,-1,-2,-1,-1,-3,-3,1,1
1512354364981839,1,-1,-3,-3,-3,-2,-4,2
1512354364981839,-2,-1,-4,0,3,1,1,0
1512354364982839,-2,-2,-2,-1,-1,-7,-2,-3
1512354364982839,-1,5,2,2,2,5,-2,1
1512354364995839,1,-3,4,3,-2,-6,0,-1
1512354364995839,1,0,2,0,-2,4,-1,-1
1512354365002839,2,-1,1,-2,0,-2,-2,-1
1512354365002839,-1,-5,-11,-7,-3,-3,-2,-2
1512354365017839,0,2,2,2,1,-2,-4,-3
1512354365017839,2,2,-1,-2,-5,-3,1,1
1512354365024839,-2,-1,-10,0,4,5,2,-2
1512354365024839,2,0,2,1,-2,-4,0,0
1512354365041839,-6,0,0,-3,-3,2,-1,0
1512354365041839,-3,-2,1,2,-2,-3,0,-2
1512354365042839,3,1,6,4,-2,-2,-3,0
1512354365042839,0,-2,0,-3,-2,0,-2,-3
1512354365055839,-4,1,-6,-3,-1,-3,-1,-1
1512354365055839,2,2,1,-2,1,0,-4,0
1512354365062839,-1,-1,-4,0,-6,2,3,3
1512354365062839,0,-1,4,3,1,2,0,4
1512354365077839,1,1,-4,-2,-1,-1,-3,-1
1512354365077839,-2,-2,-1,-2,-2,-2,-1,-1
1512354365084839,3,-4,-8,-2,0,-1,-2,0
1512354365084839,-2,-1,-1,-2,-3,-1,-4,-2
1512354365101839,0,-2,3,1,0,4,3,-2
1512354365101839,-4,-1,0,0,-2,-6,-7,-2
1512354365102839,-1,1,7,4,1,-1,-1,0
1512354365102839,-3,-3,-5,-5,-1,2,4,-1
1512354365115839,-1,-3,-12,-4,-2,-5,-3,0
1512354365115839,-3,2,0,-2,0,-2,-3,-2
1512354365122839,-3,-1,3,-2,-2,4,-2,0
1512354365122839,-5,2,3,1,-2,-2,0,1
1512354365137839,0,-1,4,4,1,3,-1,-1
1512354365137839,1,-3,2,2,-1,1,3,2
1512354365144839,-1,1,4,0,-4,0,-2,1
1512354365144839,2,-2,-5,-1,3,1,0,-2
1512354365161839,-1,-3,-9,-8,-5,1,-1,-3
1512354365161839,0,-2,0,0,-2,-2,0,-2
1512354365162839,-1,3,0,-3,-1,2,-1,2
1512354365162839,0,-1,0,-1,-8,-3,-2,-4
1512354365174839,0,-1,2,-2,-1,0,0,1
1512354365174839,-1,1,0,1,3,9,7,0
1512354365183839,-2,0,-5,-4,-4,-5,-5,-3
1512354365183839,0,0,2,-1,1,0,-4,0
1512354365198839,1,-1,-1,1,2,-6,3,2
1512354365198839,1,1,-1,-2,1,3,-2,1
1512354365206839,-5,-3,-2,-5,-3,1,-3,-2
1512354365206839,2,2,0,0,2,-1,3,-2
1512354365220839,0,1,3,0,-2,0,3,-1
1512354365220839,-1,-2,0,0,0,0,-2,1
1512354365227839,0,0,-5,-4,3,3,0,-1
1512354365227839,-3,-1,-4,-1,-10,-11,-1,1
1512354365234839,0,0,2,-1,3,-1,0,-1
1512354365234839,-1,1,1,0,-3,-4,0,-1
1512354365243839,-2,0,-1,-4,2,-5,1,1
1512354365243839,-1,1,1,2,2,1,-1,3
1512354365257839,1,-2,-1,1,1,3,-5,-1
1512354365257839,2,1,0,-2,-2,-2,-1,0
1512354365264839,-3,-2,-1,0,0,-3,3,-2
1512354365264839,-5,0,-1,-2,-1,2,-1,0
1512354365281839,-3,0,1,1,-2,-2,-2,1
1512354365281839,1,-4,-2,-3,1,-1,-1,-2
1512354365282839,1,-1,4,4,3,4,-4,0
1512354365282839,1,-2,-6,-4,-1,0,-2,-5
1512354365294839,-2,2,0,0,0,1,0,1
1512354365294839,1,-4,0,1,0,1,0,-1
1512354365303839,-2,-2,0,0,1,0,-1,-3
1512354365303839,1,1,4,-1,0,0,-1,0
1512354365317839,-1,-4,2,-2,-3,1,-1,1
1512354365317839,-4,1,0,-3,2,-2,-4,1
1512354365324839,0,-2,-4,-2,0,2,1,-2
1512354365324839,0,-1,2,0,-2,-1,-6,-1
1512354365341839,-2,-1,-1,-2,-3,-2,1,-2
1512354365341839,1,0,-5,0,-3,-1,2,3
1512354365342839,0,-3,-6,-2,4,3,3,2
1512354365342839,0,-1,0,-1,-4,-3,0,-1
1512354365354839,3,0,-1,-2,1,2,-2,-4
1512354365354839,-1,0,3,2,-3,-2,0,0
1512354365363839,-1,-2,2,-1,-5,-7,5,0
1512354365363839,-2,-2,-4,-4,1,-1,-3,2
1512354365377839,0,-2,-3,-1,-2,-4,-3,-1
1512354365377839,-1,2,0,1,1,0,-3,-1
1512354365384839,-2,0,2,-2,-2,4,-3,1
1512354365384839,-2,1,3,0,4,1,2,-2
1512354365401839,1,0,-3,1,-2,-4,2,1
1512354365401839,-2,-1,-5,-4,-1,-1,-1,-1
1512354365402839,1,-4,-3,1,-3,1,-2,0
1512354365402839,-1,1,3,1,6,2,-2,-2
1512354365414839,-2,1,4,1,-2,3,-4,-1
1512354365414839,-1,-3,0,-4,-1,1,-2,-1
1512354365423839,-2,0,-4,-7,-4,-6,1,-1
1512354365423839,3,0,4,4,5,6,0,0
1512354365437839,-1,-4,-4,1,-4,-2,-2,1
1512354365437839,-5,-1,-3,-3,0,4,-1,1
1512354365444839,-2,-1,-4,-3,-2,-3,-2,-3
1512354365444839,-1,-2,-2,3,-2,1,-2,-2
1512354365461839,-1,-1,-5,-4,3,-2,1,-2
1512354365461839,0,-2,0,-2,0,-2,1,-4
1512354365462839,0,-2,-1,0,-2,-3,-4,1
1512354365462839,-3,-2,-2,-1,-1,-1,1,-1
1512354365474839,2,0,4,-1,-1,0,2,3
1512354365474839,-1,2,6,0,2,0,-3,-2
1512354365483839,-1,-3,-2,3,-1,-1,2,-3
1512354365483839,2,0,-6,-2,-2,-1,-2,0
1512354365497839,1,0,-5,-8,-4,2,-1,-1
1512354365497839,-2,-3,-6,-1,-2,-1,1,-3
1512354365504839,-2,-1,7,2,0,1,-4,-1
1512354365504839,-1,1,4,5,-1,1,-2,-1
1512354365521839,2,2,3,2,2,-1,-1,0
1512354365521839,-4,1,6,-1,-2,1,-1,0
1512354365522839,0,-3,-7,-4,-4,-1,-3,-2
1512354365522839,-3,-4,-11,-4,-2,-2,0,2
1512354365534839,-2,-1,7,0,-1,-1,-4,-1
1512354365534839,0,0,1,2,-4,-1,-1,0
1512354365543839,-2,1,-6,-5,-3,-1,-4,-1
1512354365543839,0,-1,-4,-3,0,1,3,-1
1512354365557839,-4,-1,-3,-3,2,1,-2,3
1512354365557839,2,-1,1,-1,-3,-6,1,-1
1512354365564839,2,3,5,-1,3,5,2,1
1512354365564839,-1,-2,0,-3,-5,-3,-3,-3
1512354365581839,-2,2,2,4,2,-1,-2,-3
1512354365581839,2,2,0,3,1,0,1,-2
1512354365582839,1,-1,-6,-1,0,4,2,2
1512354365582839,0,-1,-2,-1,-5,-1,7,0
1512354365594839,2,1,0,3,-1,-1,-2,-1
1512354365594839,-5,-1,1,-3,1,0,-3,0
1512354365603839,1,1,5,4,2,0,-1,1
1512354365603839,-2,1,0,0,3,1,-2,1
1512354365617839,-2,-3,-4,-7,-3,0,1,-1
1512354365617839,0,-4,-6,-6,-4,2,0,-1
1512354365624839,0,-1,-7,-7,-2,0,-1,-1
1512354365624839,4,-1,1,2,-2,-2,1,1
1512354365641839,1,0,6,2,1,1,2,-3
1512354365641839,0,-1,0,1,0,3,0,1
1512354365642839,1,0,7,6,-1,-3,1,0
1512354365642839,0,0,-6,-3,-3,-1,-4,-5
1512354365654839,1,-1,-4,1,7,0,3,2
1512354365654839,-2,-1,-3,-2,0,1,1,-3
1512354365663839,-1,-2,-3,-1,-3,-5,1,-1
1512354365663839,0,0,4,-2,1,3,0,-2
1512354365677839,-1,-2,3,2,-1,-2,1,-1
1512354365677839,-1,2,-4,2,1,2,1,3
1512354365684839,-2,-1,3,1,1,2,0,0
1512354365684839,-2,-2,-2,-5,4,-1,-4,-5
1512354365700839,-1,0,-5,-1,-5,0,1,-1
1512354365700839,3,4,1,0,0,-2,0,0
1512354365707839,2,0,-1,2,0,-1,-1,-1
1512354365707839,1,0,2,-1,2,-1,-1,1
1512354365714839,-2,-1,-4,-3,-5,0,-2,-1
1512354365714839,1,-2,1,0,-2,-5,-2,0
1512354365723839,-4,0,-2,-2,0,-2,2,1
1512354365723839,0,-1,2,1,-6,-1,0,-1
1512354365737839,-1,0,-4,0,-1,-4,-5,0
1512354365737839,-1,-1,-3,-4,-2,0,-2,-3
1512354365744839,2,2,9,4,1,2,-3,-2
1512354365744839,-3,-2,-3,-1,2,0,1,3
1512354365760839,-4,-4,-6,-2,-1,0,-1,-2
1512354365760839,-1,1,-3,1,1,-3,-3,0
1512354365767839,1,1,0,-2,-4,1,-1,0
1512354365767839,2,-1,0,-3,-3,-3,2,3
1512354365774839,-2,-1,-4,-3,1,0,-1,-3
1512354365774839,0,-1,-3,-5,-6,-8,0,-2
1512354365783839,-1,0,0,0,4,5,-1,-2
1512354365783839,-1,1,1,1,-3,-2,-1,0
1512354365797839,0,-2,3,3,-2,0,0,-2
1512354365797839,0,-1,-2,-2,-3,0,2,2
1512354365804839,-1,-4,-2,-2,-4,0,-3,-5
1512354365804839,-3,-2,-2,-1,-1,-1,-2,-2
1512354365820839,-3,2,5,-2,-3,3,0,-2
1512354365820839,-4,-5,-9,-2,0,2,-2,1
1512354365827839,1,-2,-6,-3,-1,-2,3,0
1512354365827839,-4,-1,2,0,1,0,-2,-1
1512354365843839,1,0,0,-2,-2,-1,1,2
1512354365843839,0,-2,1,0,1,3,-2,-1
1512354365845839,-2,-3,-2,0,3,-2,-2,2
1512354365845839,1,1,0,2,-4,-4,0,-1
1512354365857839,0,2,4,-1,2,3,-1,-3
1512354365857839,0,-2,6,3,1,2,-2,0
1512354365864839,-1,2,-3,2,-3,-2,-1,-1
1512354365864839,-1,-3,-9,-2,-1,3,0,3
1512354365880839,0,-1,0,-3,0,-2,-4,-3
1512354365880839,1,2,1,1,-3,0,3,0
1512354365887839,-4,0,3,1,-1,-5,-5,1
1512354365887839,0,-1,1,-1,2,1,0,-4
1512354365903839,0,-4,-5,-5,1,2,-1,1
1512354365903839,-3,-2,0,1,-3,-6,-3,2
1512354365905839,-1,0,0,-4,0,1,-1,-1
1512354365905839,1,-2,-3,-4,-3,1,3,-1
1512354365917839,-2,-5,2,4,5,3,0,0
1512354365917839,-1,1,4,-1,-2,1,-5,-3
1512354365924839,1,-2,0,6,2,-2,0,-2
1512354365924839,0,0,-2,-2,-2,-5,-4,2
1512354365940839,-3,1,1,-2,1,-1,1,2
1512354365940839,1,1,-7,-3,-2,3,-5,0
1512354365947839,-3,-2,2,2,1,1,2,-1
1512354365947839,-1,0,5,2,-1,1,-4,-1
1512354365963839,0,-5,-6,-5,-2,-1,-1,0
1512354365963839,0,2,3,-1,-1,0,-2,-1
1512354365965839,0,-3,-12,-5,-4,-2,0,-1
1512354365965839,2,-2,-3,-1,1,4,-3,-2
1512354365977839,-1,2,4,3,0,-6,0,0
1512354365977839,-2,-2,4,2,3,-2,3,-1
1512354365984839,-1,2,3,0,-1,-1,-2,2
1512354365984839,-5,-2,0,-1,0,-2,1,-3
1512354366000839,2,-2,-5,-1,-4,-4,-1,-1
1512354366000839,0,1,1,1,2,1,4,-2
1512354366007839,-1,1,1,0,-4,-4,0,-1
1512354366007839,-1,-1,2,-1,-2,1,2,1
1512354366023839,0,0,-1,-1,1,0,1,1
1512354366023839,-1,-1,1,-1,0,-4,0,-3
1512354366025839,0,-1,0,0,-1,-3,-3,-1
1512354366025839,-4,-1,-4,-5,-4,4,0,-1
1512354366037839,0,-1,-1,2,-6,-5,0,0
1512354366037839,1,0,3,-1,-2,4,-1,-1
1512354366052839,-2,0,-4,-2,-2,0,0,-2
1512354366052839,3,1,3,2,2,-1,-1,0
1512354366060839,1,2,-1,-2,-2,-4,2,0
1512354366060839,0,-1,-5,1,2,4,0,3
1512354366067839,4,0,4,-1,-3,-5,-2,-1
1512354366067839,-1,0,5,4,1,1,-1,-2
1512354366083839,2,-2,0,2,-2,-1,-4,-3
1512354366083839,0,-1,-6,-5,0,-5,0,2
1512354366085839,-2,-3,-2,-2,0,2,-1,-2
1512354366085839,1,-2,-3,-6,1,-1,-2,-1
1512354366097839,-1,-1,1,4,2,3,-2,-1
1512354366097839,-1,1,2,4,0,-1,-1,2
1512354366104839,-1,-1,0,-2,-1,1,0,-3
1512354366104839,-3,-1,-1,1,-1,0,2,-3
1512354366120839,1,1,2,0,-2,2,0,0
1512354366120839,-1,-3,-6,-4,-1,2,3,-1
1512354366127839,-3,-3,-6,-4,0,1,-1,1
1512354366127839,0,1,2,2,-3,-1,0,2
1512354366143839,0,2,-2,2,2,8,-1,0
1512354366143839,-3,1,3,-1,-3,-5,3,-1
1512354366145839,1,-2,-1,-1,-1,4,1,0
1512354366145839,-4,-1,-1,-1,4,1,-2,-1
1512354366157839,-2,-1,-3,-2,0,-8,-1,0
1512354366157839,-1,-2,-2,0,-2,-1,-7,-3
1512354366164839,-1,-3,0,0,1,-1,0,0
1512354366164839,-2,-1,-1,-2,-3,-1,1,-2
1512354366180839,-3,0,0,0,3,8,-3,-1
1512354366180839,2,0,4,2,1,0,-2,-1
1512354366187839,0,0,0,1,1,-1,-4,1
1512354366187839,1,-1,-2,2,-2,-3,-1,0
1512354366203839,-5,1,0,-2,-1,-1,-2,0
1512354366203839,-2,-5,-6,-5,-3,0,-1,-2
1512354366205839,-2,0,1,-2,-2,0,-1,-2
1512354366205839,2,-2,0,-1,1,0,0,2
1512354366217839,1,3,-1,-2,-3,-6,2,-1
1512354366217839,0,0,-1,-1,0,1,-3,-1
1512354366224839,-1,-1,3,0,-3,-2,0,1
1512354366224839,-1,-1,-6,-2,0,2,-1,-2
1512354366240839,0,-4,-6,-2,0,0,-4,1
1512354366240839,-1,-1,3,0,0,0,1,-1
1512354366247839,2,0,-3,0,0,-4,2,-1
1512354366247839,3,-3,-1,-2,-3,0,0,-1
1512354366263839,0,-1,1,-2,-1,2,0,3
1512354366263839,0,-2,-3,-1,-2,1,-2,1
1512354366265839,0,-1,2,-2,-2,0,0,-1
1512354366265839,-4,2,-2,1,2,-1,-1,0
1512354366277839,-1,-2,-2,-2,5,8,3,-6
1512354366277839,2,2,1,10,0,-7,-1,0
1512354366284839,-1,0,3,-2,-2,-2,-2,-1
1512354366284839,1,-1,1,0,0,0,0,-3
1512354366300839,-1,-2,-4,-3,-3,-2,-1,-1
1512354366300839,-4,-2,-4,-7,2,1,2,1
1512354366307839,0,0,-3,0,1,1,-3,-3
1512354366307839,-5,1,1,0,-2,-1,1,2
1512354366322839,2,2,9,5,-2,-2,-2,-1
1512354366322839,-2,-4,-10,-7,0,2,-2,-1
1512354366331839,-1,0,-8,-1,-5,-2,-2,0
1512354366331839,3,-2,-4,-4,-2,-1,0,0
1512354366337839,-2,2,6,4,-1,-2,0,1
1512354366337839,0,0,9,2,-3,2,-1,2
1512354366346839,1,0,-1,2,5,3,-5,-1
1512354366346839,1,-2,-7,-3,-3,-1,-2,-2
1512354366360839,-4,-3,-5,-4,-2,2,-1,-2
1512354366360839,1,3,-2,3,-1,-5,-3,-2
1512354366367839,-1,0,-1,2,-3,-2,3,1
1512354366367839,0,-1,5,0,3,-1,-3,-2
1512354366383839,1,-1,-1,-3,0,-1,1,-3
1512354366383839,1,-2,-4,-1,-2,1,-1,-3
1512354366385839,0,-3,-2,-2,-2,1,0,1
1512354366385839,-1,0,3,2,-1,-2,-3,0
1512354366397839,-2,-3,-4,-4,0,1,3,0
1512354366397839,1,0,1,-3,0,-3,1,0
1512354366406839,1,-2,4,2,-1,3,-1,0
1512354366406839,0,0,-7,-6,-3,-3,-3,0
1512354366420839,0,-2,0,2,5,1,-5,-1
1512354366420839,-2,-1,-2,-3,-2,3,0,-2
1512354366427839,-2,1,3,-1,4,-4,1,-2
1512354366427839,-1,-3,1,-4,-3,1,-1,1
1512354366443839,-2,-2,-4,-6,-2,-1,-1,0
1512354366443839,0,-2,-7,-4,-1,-1,-3,1
1512354366445839,0,-3,3,0,-1,2,-1,-4
1512354366445839,-1,2,-1,0,1,0,-1,-3
1512354366457839,2,-2,2,2,0,-1,-1,1
1512354366457839,-3,-4,0,1,1,-3,0,0
1512354366466839,0,1,-2,-2,-2,-2,-1,0
1512354366466839,-1,1,-1,-2,0,0,0,1
1512354366480839,0,2,3,2,-2,-2,2,2
1512354366480839,-1,1,-3,-3,0,1,0,-2
1512354366487839,0,-3,-4,-1,1,3,1,-2
1512354366487839,-3,-2,-2,1,-3,0,-5,-1
1512354366503839,-1,2,-1,2,2,4,1,1
1512354366503839,-3,-1,2,0,1,0,-1,0
1512354366505839,0,0,0,-1,-2,2,2,1
1512354366505839,2,-4,-3,-4,-1,0,1,0
1512354366517839,-2,1,-2,-1,-3,-4,-3,-1
1512354366517839,-1,-3,0,-1,-3,0,0,-2
1512354366526839,0,3,-3,-1,1,-1,-3,1
1512354366526839,1,0,1,-2,-2,0,0,0
1512354366540839,-2,-4,-2,-5,-3,-1,1,-2
1512354366540839,-3,1,1,-1,-2,2,-2,-2
1512354366547839,1,-1,1,-1,-2,-4,0,-1
1512354366547839,-3,-2,-3,1,0,-1,1,2
1512354366563839,-2,0,2,0,-1,2,-4,-2
1512354366563839,1,-1,7,1,1,0,-1,-2
1512354366565839,-4,0,2,-2,-3,0,0,0
1512354366565839,-2,-2,-7,-4,2,4,-3,-2
1512354366577839,1,-2,-6,-2,-3,-2,2,1
1512354366577839,2,3,8,2,-2,-5,0,3
1512354366586839,-1,-3,5,-1,-1,0,-4,0
1512354366586839,1,0,0,0,0,3,-3,-3
1512354366600839,-1,-2,-9,-3,-2,-4,0,-1
1512354366600839,3,0,-4,0,1,4,1,-1
1512354366608839,-2,-1,-4,-1,1,3,1,0
1512354366608839,0,-2,3,-3,-1,-2,-2,-3
1512354366622839,-3,0,0,1,-2,-3,-2,0
1512354366622839,1,1,2,1,-1,8,2,0
1512354366629839,-1,1,-1,1,0,-4,1,1
1512354366629839,0,-1,-2,-1,0,0,0,0
1512354366637839,-2,-3,-2,-8,0,-1,-1,0
1512354366637839,-3,-1,-4,-4,0,-5,-2,0
1512354366646839,-1,-1,-3,-1,0,-1,-6,-4
1512354366646839,-1,4,7,6,-3,-3,1,2
1512354366660839,-2,0,-1,1,-3,3,-1,-2
1512354366660839,-2,0,-6,-3,1,-1,1,0
1512354366667839,1,1,-2,1,3,1,-1,-1
1512354366667839,1,-1,1,0,0,-2,3,0
1512354366682839,-3,0,0,1,1,0,-2,0
1512354366682839,-2,-3,0,-2,-3,-4,-2,0
1512354366689839,-4,-3,-2,0,-3,7,3,-3
1512354366689839,-2,0,-1,0,-2,-8,-1,1
1512354366697839,1,-1,1,-4,-2,-3,-1,1
1512354366697839,1,-1,-2,3,2,0,-2,-3
1512354366706839,2,-4,3,0,-3,-3,-3,1
1512354366706839,0,0,-2,-1,2,2,2,-1
1512354366720839,2,-1,2,2,1,2,2,-3
1512354366720839,-3,-2,-6,-4,-5,-2,-4,1
1512354366727839,1,0,2,-2,-1,0,1,-1
1512354366727839,-3,-1,-4,-1,-2,-1,-3,-1
1512354366742839,-3,0,-3,-2,-1,-3,-3,-1
1512354366742839,-1,2,2,-1,-2,-1,1,0
1512354366749839,-4,1,0,2,1,-2,0,0
1512354366749839,0,2,5,0,1,4,1,-1
1512354366757839,2,-1,-4,-2,-4,-1,1,-1
1512354366757839,3,-3,-2,0,0,0,1,-1
1512354366766839,-3,-1,1,-1,1,-3,2,5
1512354366766839,-2,-4,-6,-2,-1,-3,-1,0
1512354366780839,0,1,7,4,-1,0,-2,-3
1512354366780839,1,1,2,-3,-4,-1,-1,-2
1512354366787839,-1,-2,-2,-3,-2,-4,-1,0
1512354366787839,-2,-2,-2,1,0,2,1,-1
1512354366802839,1,2,0,-1,1,-2,-2,1
1512354366802839,1,-1,-1,-2,3,0,-2,0
1512354366809839,2,-4,-7,-8,0,4,-1,-1
1512354366809839,-3,3,3,-3,-5,-3,-2,-3
1512354366826839,0,-3,-2,1,0,-2,1,0
1512354366826839,-2,-2,3,2,-2,0,2,-2
1512354366827839,0,-1,-1,0,-2,-4,-1,0
1512354366827839,-1,0,-1,-1,1,7,0,-1
1512354366840839,-1,-4,-1,0,-3,2,0,-1
1512354366840839,-1,-4,-1,-2,2,-1,0,-1
1512354366847839,-2,-3,-7,-1,-5,-3,0,-3
1512354366847839,0,-4,4,0,1,0,-1,0
1512354366862839,0,3,-1,-2,-2,-2,-5,1
1512354366862839,-1,2,2,3,3,3,1,-3
1512354366869839,2,-2,0,-2,-1,-1,2,-2
1512354366869839,1,-2,-4,-1,1,2,0,-2
1512354366886839,-3,-2,-1,0,1,-1,1,-1
1512354366886839,-2,3,1,0,-1,2,0,-1
1512354366887839,-4,1,-3,-1,-3,-1,-2,-3
1512354366887839,1,0,-11,-5,-4,-3,-2,0
1512354366900839,1,-3,-4,-2,2,0,2,0
1512354366900839,3,-2,1,0,0,-1,0,2
1512354366907839,-1,-3,3,0,-1,-1,-2,2
1512354366907839,2,-1,6,2,-2,-3,-1,2
1512354366922839,-1,-2,-6,-5,1,1,-5,-2
1512354366922839,0,-1,-2,-6,-2,1,-2,-1
1512354366929839,2,0,-3,3,1,1,1,-3
1512354366929839,1,-2,1,0,-3,-2,2,-3
1512354366946839,1,0,5,1,4,-2,1,-1
1512354366946839,-2,-2,-2,1,-3,1,-3,-2
1512354366947839,-2,0,-3,-5,-1,0,-4,1
1512354366947839,0,-2,-3,-1,0,0,1,1
1512354366960839,3,4,6,3,-3,-2,0,1
1512354366960839,0,0,-4,2,2,-1,1,-2
1512354366967839,2,-1,2,-3,-1,-2,-3,-2
1512354366967839,-2,-1,-2,1,0,2,-1,-1
1512354366982839,-4,-1,2,-1,0,1,-3,-1
1512354366982839,0,2,2,1,-3,-1,0,5
1512354366989839,-2,2,-3,-3,-2,0,-1,1
1512354366989839,-2,-1,-1,-5,3,-2,-4,-2
1512354367006839,0,-2,-5,-1,-4,2,1,0
1512354367006839,-2,-2,5,1,1,0,0,-4
1512354367007839,-1,4,2,-1,2,-2,-1,0
1512354367007839,-3,3,0,-3,-1,2,-1,2
1512354367020839,0,0,-2,1,-2,-2,-2,-1
1512354367020839,-1,-2,-5,-5,-2,2,-1,1
1512354367027839,0,-2,7,3,2,-4,-1,-1
1512354367027839,-1,-2,4,-1,0,0,0,0
1512354367042839,-3,-7,-11,-4,-2,3,-3,1
1512354367042839,0,0,-4,-3,-6,-7,-1,-1
1512354367049839,0,-2,-4,-1,1,0,1,0
1512354367049839,3,0,2,2,2,1,-1,-2
1512354367065839,2,0,5,1,0,-3,-1,0
1512354367065839,0,-3,3,1,2,0,-1,-1
1512354367067839,-2,-1,-7,-4,-3,1,-4,-5
1512354367067839,0,1,-3,-1,-3,1,0,1
1512354367080839,-1,-3,0,-5,-2,-4,3,0
1512354367080839,-2,-1,-1,-2,2,-2,-1,0
1512354367087839,1,2,-1,1,0,-2,0,-2
1512354367087839,-1,2,4,5,1,0,1,0
1512354367102839,-1,-1,-4,-1,-4,-1,-1,-1
1512354367102839,-2,-1,-6,-3,-5,-2,-1,-1
1512354367109839,-2,-2,-2,-5,3,5,-4,3
1512354367109839,2,-4,4,2,-1,-3,1,1
1512354367126839,-2,-2,-1,0,1,0,0,-1
1512354367126839,-3,-4,-3,-1,-2,1,-1,1
1512354367127839,0,-3,-1,-3,-4,-3,0,-1
1512354367127839,2,1,-2,-1,0,-2,-1,-2
1512354367140839,-2,3,7,4,4,-1,-2,-2
1512354367140839,1,1,-1,1,-1,0,0,0
1512354367147839,-3,-3,-2,2,-4,1,2,0
1512354367147839,-1,-1,-3,-5,-4,1,0,2
1512354367162839,-1,-1,-4,-2,-1,-2,-3,-3
1512354367162839,-4,1,2,1,3,-3,4,-4
1512354367169839,1,0,2,1,-2,-1,-1,-4
1512354367169839,-2,-2,-1,4,-1,0,0,-4
1512354367185839,0,0,3,1,-2,-1,-2,2
1512354367185839,0,1,1,-2,-1,-2,-3,-1
1512354367187839,0,-2,2,2,-2,3,-2,1
1512354367187839,-1,0,-1,-3,-3,-7,0,1
1512354367200839,0,2,-7,-3,-4,2,0,-3
1512354367200839,-2,0,0,-2,0,1,-1,0
1512354367207839,-4,3,-3,-3,-1,1,-3,3
1512354367207839,-1,-2,0,-2,1,2,-2,1
1512354367222839,1,1,6,5,2,-1,0,0
1512354367222839,-1,-1,-4,-4,1,-2,1,-1
1512354367229839,1,-1,-3,-6,-2,1,1,2
1512354367229839,-3,0,-11,0,-1,1,-2,-3
1512354367246839,-1,-2,3,0,-1,-3,-4,-1
1512354367246839,1,0,2,-4,0,-1,-1,2
1512354367247839,0,1,6,8,7,3,1,0
1512354367247839,0,-1,-2,-5,-6,-4,-2,0
1512354367260839,1,0,-1,-2,-2,3,1,0
1512354367260839,2,-2,4,0,1,3,-4,0
1512354367267839,-1,-4,-10,-3,-2,0,3,-2
1512354367267839,0,-2,-5,-4,0,-1,0,-2
1512354367282839,0,2,2,-3,0,2,5,0
1512354367282839,1,2,2,-1,-4,2,1,-1
1512354367289839,-2,0,7,3,-2,1,-3,-1
1512354367289839,-1,1,7,4,6,2,-3,-1
1512354367305839,-3,-1,-7,-3,0,-1,-1,-3
1512354367305839,0,-3,-5,-1,-1,0,-3,-1
1512354367307839,1,0,-1,-2,1,-6,1,-3
1512354367307839,-1,0,-5,-3,2,-1,1,1
1512354367327839,-3,-2,5,2,-4,0,1,1
1512354367327839,3,3,-1,0,-2,3,-2,0
1512354367328839,-2,-2,2,2,-4,0,-4,-2
1512354367328839,-1,-1,-6,-4,-2,4,0,0
1512354367343839,-3,-1,2,0,2,3,-6,-2
1512354367343839,2,-3,-4,-2,-1,-2,1,-1
1512354367349839,3,1,5,1,-1,-1,-3,-1
1512354367349839,-1,-3,4,-1,-2,1,-2,0
1512354367365839,-1,-1,-2,-3,-2,2,-2,1
1512354367365839,-3,2,-1,-1,-2,-4,-4,1
1512354367365839,-2,-2,-9,-5,0,3,2,-1
1512354367365839,-1,1,-2,-1,-1,0,-4,-3
1512354367387839,0,-5,-4,-1,-1,1,-2,2
1512354367387839,-1,0,7,7,-2,1,-2,-3
1512354367388839,-2,-1,-4,-5,0,3,-2,-2
1512354367388839,0,0,-2,-5,-2,2,-2,-3
1512354367403839,-2,2,-1,-1,-1,-3,1,-1
1512354367403839,-1,-2,-2,-1,1,0,0,0
1512354367409839,1,0,5,3,-1,-2,-1,0
1512354367409839,-3,-2,-1,7,1,1,-2,-2
1512354367425839,2,-3,2,-4,-2,3,-2,-1
1512354367425839,-3,1,-4,-4,1,-2,-1,1
1512354367426839,-1,-1,-3,0,-1,-1,1,0
1512354367426839,-2,0,0,0,-1,-3,-4,2
1512354367447839,2,1,0,-2,-3,-2,-1,2
1512354367447839,-2,0,-2,3,1,-4,0,1
1512354367448839,0,-3,-1,-6,-5,-1,-2,-2
1512354367448839,0,-3,-8,-5,-3,-1,-1,0
1512354367463839,-1,-2,-1,0,-1,-3,2,0
1512354367463839,-3,-3,-2,-8,0,1,1,0
1512354367469839,-1,2,7,5,6,1,-3,-3
1512354367469839,-1,-1,0,-1,-2,-3,2,-1
1512354367485839,1,0,-3,-2,-1,-2,-1,-3
1512354367485839,1,-2,-1,-1,-3,-1,-1,0
1512354367486839,-1,4,-1,-1,1,2,1,0
1512354367486839,2,1,2,1,0,1,2,0
1512354367507839,-4,-1,1,-2,1,-1,0,-1
1512354367507839,-2,-1,-2,-3,-3,-3,2,-3
1512354367508839,0,-3,-5,-1,-2,-3,0,-1
1512354367508839,0,0,0,3,-2,3,-2,-2
1512354367523839,-2,-2,0,6,0,-3,0,-3
1512354367523839,1,0,-1,2,0,3,1,0
1512354367529839,1,0,2,-4,-3,-1,-3,0
1512354367529839,1,1,0,-2,1,-4,-2,0
1512354367545839,-1,0,-2,-4,1,0,0,-1
1512354367545839,3,-2,-2,0,0,-4,-6,-2
1512354367546839,-2,0,1,0,-2,-2,1,-1
1512354367546839,-3,-1,0,1,-1,0,1,-1
1512354367567839,1,0,-2,0,0,-2,-2,-5
1512354367567839,0,0,-2,-6,-3,-1,0,0
1512354367568839,0,1,-2,-6,-3,0,-1,0
1512354367568839,-1,-1,-3,-1,1,1,0,-3
1512354367583839,0,0,4,-1,0,-2,1,2
1512354367583839,0,1,5,0,1,0,-2,-2
1512354367589839,0,-2,-2,2,2,-1,0,0
1512354367589839,-1,-2,-1,-3,-4,-1,-1,2
1512354367604839,1,1,-2,4,4,0,1,0
1512354367604839,1,2,5,1,-1,-3,-4,-1
1512354367612839,-1,1,-2,2,-3,-3,0,-3
1512354367612839,2,-2,2,-1,-1,-3,1,-1
1512354367627839,0,-2,-3,-2,1,2,1,1
1512354367627839,2,2,-2,1,0,2,-1,1
1512354367628839,-1,-1,0,2,0,1,-4,-1
1512354367628839,1,-2,10,2,1,5,0,-2
1512354367643839,0,-2,-1,0,-3,-2,-3,-3
1512354367643839,-5,-4,-13,-7,1,2,2,-4
1512354367649839,-2,-1,-4,-6,-1,-1,1,1
1512354367649839,-2,1,-6,-4,-1,0,-1,0
1512354367664839,2,1,6,1,1,1,-1,1
1512354367664839,1,-1,7,8,0,2,1,-3
1512354367672839,-5,0,1,-2,-1,2,2,-1
1512354367672839,0,-2,5,1,-4,-1,-1,-1
1512354367687839,2,-1,-7,0,1,-1,-1,0
1512354367687839,-3,-3,2,0,-1,-1,-2,1
1512354367688839,-2,0,-3,-4,-2,0,-2,-2
1512354367688839,-4,0,-4,-3,2,6,3,1
1512354367703839,-1,-1,-2,-3,-4,-2,-4,-1
1512354367703839,-2,-2,-3,1,-1,0,0,-2
1512354367717839,1,-2,5,0,-1,1,-4,0
1512354367717839,-2,0,2,-1,-1,0,-4,0
1512354367724839,-3,-1,-7,-3,-1,4,-2,1
1512354367724839,1,1,3,-1,3,2,3,0
1512354367732839,-2,-3,0,2,0,-1,-1,0
1512354367732839,-1,3,-2,-2,0,-5,-2,-3
1512354367747839,-2,2,0,-4,-2,0,-1,-3
1512354367747839,1,-2,-2,-1,-4,-2,-3,-2
1512354367748839,2,-1,-3,-2,-3,0,0,1
1512354367748839,-1,-2,2,-1,-1,0,-2,-1
1512354367763839,-2,-4,0,0,4,2,-2,-2
1512354367763839,-3,-2,-3,-2,0,1,-1,2
1512354367769839,-1,0,-2,0,-2,-1,0,0
1512354367769839,0,-1,-2,1,1,-1,-1,0
1512354367784839,0,1,2,-1,-2,5,-3,-1
1512354367784839,-2,-1,-1,-3,-1,-4,0,1
1512354367792839,-2,-2,-2,0,2,0,-1,-2
1512354367792839,0,-2,0,-2,-1,1,2,-2
1512354367807839,-2,-3,-1,1,1,0,2,-1
1512354367807839,-1,1,1,2,2,2,-2,0
1512354367808839,1,-1,-3,-3,-1,0,-3,-1
1512354367808839,-1,1,-2,0,1,-4,2,1
1512354367823839,-1,-1,0,2,-1,-3,0,5
1512354367823839,2,0,-2,-5,-1,1,2,0
1512354367829839,0,2,3,1,2,-2,-2,-2
1512354367829839,1,1,-6,0,1,-3,-2,0
1512354367844839,-1,0,-9,-6,-5,-2,-2,-2
1512354367844839,-1,1,-8,-2,0,-2,0,-1
1512354367852839,1,-2,1,2,0,-1,-1,-1
1512354367852839,-1,3,8,3,3,-2,-2,0
1512354367867839,0,2,9,6,0,-3,0,1
1512354367867839,0,1,-1,1,1,3,-2,1
1512354367868839,-2,-1,-3,-3,-1,5,0,0
1512354367868839,-2,0,-1,-1,-2,0,-4,-4
1512354367883839,0,-2,-1,1,0,-3,1,-2
1512354367883839,-4,-1,-1,-1,5,0,-2,2
1512354367889839,0,-2,-3,0,-2,1,2,-2
1512354367889839,4,0,0,3,-2,-8,-2,0
1512354367904839,2,-3,-3,-3,-1,-3,1,-3
1512354367904839,2,-3,-2,-3,-1,0,-1,-3
1512354367912839,2,1,2,0,-4,-9,4,0
1512354367912839,-2,-4,-4,-6,2,11,5,4
1512354367927839,2,3,1,2,0,-3,0,-2
1512354367927839,-2,2,0,2,-4,-4,1,-3
1512354367928839,-2,-1,0,-1,1,4,-2,2
1512354367928839,-1,-3,-1,-1,-2,-3,3,-3
1512354367943839,-2,-2,0,-3,-5,-2,1,0
1512354367943839,-3,0,3,4,3,2,-5,-1
1512354367949839,1,-1,-5,-3,-3,-1,3,1
1512354367949839,0,3,-1,-4,-3,-3,-1,-3
1512354367964839,-1,-3,-1,-3,1,4,-5,2
1512354367964839,1,0,-2,-3,-5,-5,1,-1
1512354367972839,-3,-1,2,0,3,1,-2,-1
1512354367972839,-2,0,-1,3,1,6,-20,-4
1512354367995839,2,2,-5,-5,0,0,3,4
1512354367995839,2,-1,2,-1,-1,-1,-3,-1
1512354367995839,-2,1,2,2,4,8,-12,-2
1512354367995839,0,1,-1,-2,-4,2,-2,-4
1512354368003839,1,-2,2,-1,5,7,-5,0
1512354368003839,1,-1,0,2,-1,1,6,-2
1512354368009839,-1,1,5,-1,0,-6,6,-1
1512354368009839,0,-2,-3,1,0,-2,0,0
1512354368024839,-2,-2,8,2,-2,0,-3,-3
1512354368024839,1,-2,-13,-4,0,-3,1,-1
1512354368032839,0,0,0,-5,-3,0,0,0
1512354368032839,-1,-1,1,-4,-1,-4,2,2
1512354368047839,-5,-1,-6,-5,-2,-3,3,1
1512354368047839,1,-1,3,-3,0,0,-5,-1
1512354368048839,-1,-2,-3,2,1,0,-2,1
1512354368048839,-1,0,4,-1,0,-1,-2,1
1512354368063839,-3,1,6,5,4,4,-4,-1
1512354368063839,-6,1,4,4,-1,-1,-3,-1
1512354368069839,1,-3,-2,-1,1,2,1,0
1512354368069839,-1,-2,-2,-3,-6,-3,9,1
1512354368084839,1,-2,-3,2,0,-2,4,-2
1512354368084839,-3,-2,-3,-6,-3,0,11,-1
1512354368092839,2,1,0,-4,1,3,-1,-3
1512354368092839,-2,1,-2,1,-3,-2,-2,-1
1512354368107839,1,-2,-4,-2,2,-1,4,-1
1512354368107839,1,-4,0,-2,-2,3,-8,-1
1512354368108839,-5,1,-1,-1,-4,-4,-2,0
1512354368108839,0,-2,2,-1,0,5,3,1
1512354368123839,-7,-2,-4,-2,-5,-2,2,-1
1512354368123839,1,0,2,1,2,0,1,-2
1512354368129839,-2,-2,0,-2,0,-1,-4,0
1512354368129839,-1,-2,-2,2,2,-2,-1,-3
1512354368144839,1,2,-1,0,-5,-6,1,-2
1512354368144839,-1,3,2,0,0,-3,-2,2
1512354368152839,2,-2,-1,-2,0,-3,1,1
1512354368152839,-2,-3,-2,-3,1,-6,2,-5
1512354368167839,0,2,1,-2,-2,-1,-3,-1
1512354368167839,-3,-2,-1,-2,1,-4,-1,3
1512354368168839,1,-2,0,-4,-1,-2,-3,-3
1512354368168839,2,-1,1,3,2,2,-4,1
1512354368183839,0,-1,-1,-1,1,-2,5,-3
1512354368183839,0,0,-1,2,-1,5,-4,1
1512354368189839,-3,-1,-1,1,1,-3,-2,-2
1512354368189839,0,-1,1,-4,4,1,-1,0
1512354368204839,0,-2,-3,-3,-2,-2,-1,-1
1512354368204839,2,1,-2,-2,-3,0,-5,0
1512354368212839,-3,0,-3,-3,0,9,-4,-1
1512354368212839,3,2,2,4,-2,5,-1,-1
1512354368227839,-1,0,1,-2,-6,-7,5,2
1512354368227839,-3,-2,0,2,-2,2,0,-2
1512354368228839,1,-2,-2,2,0,-1,2,-1
1512354368228839,-1,1,-2,-2,-1,-2,0,2
1512354368243839,0,0,-1,0,-1,1,-10,-2
1512354368243839,0,-2,-4,-2,-5,-6,3,2
1512354368249839,2,-2,1,2,0,0,3,2
1512354368249839,-2,0,-2,-1,-2,-1,1,-1
1512354368264839,1,-1,2,0,-1,-1,-2,0
1512354368264839,-3,0,2,-1,1,-2,0,-2
1512354368272839,-5,-1,1,2,-2,1,-4,0
1512354368272839,2,-3,-4,-5,-2,-2,-6,-3
1512354368287839,2,1,-4,-2,1,4,-2,2
1512354368287839,0,0,-1,2,2,0,1,1
1512354368288839,-3,1,1,2,0,-1,-3,-3
1512354368288839,0,1,1,1,1,-2,1,2
1512354368303839,0,-1,-1,-1,1,-1,1,-2
1512354368303839,-1,-1,2,-1,0,4,-2,0
1512354368309839,-2,0,-2,-2,0,-5,-1,-2
1512354368309839,-2,3,2,-1,-7,4,-3,-1
1512354368324839,-2,0,-2,-1,-2,1,-2,-1
1512354368324839,1,3,6,3,-1,1,-5,-3
1512354368332839,0,1,3,0,2,4,-1,0
1512354368332839,-3,-2,-2,-1,0,-7,-1,0
1512354368347839,-3,-4,-12,-11,-2,0,-5,3
1512354368347839,-4,-1,-2,-2,0,-1,-4,-3
1512354368348839,3,1,11,7,-1,-4,2,-1
1512354368348839,-2,-3,-5,-1,1,3,0,0
1512354368363839,-2,-4,-3,-1,0,2,3,1
1512354368363839,0,2,-14,-9,-3,-3,-2,-1
1512354368369839,2,-2,7,1,-2,-4,1,-1
1512354368369839,-1,2,6,3,1,2,2,0
1512354368384839,5,4,5,5,-3,-4,-3,-2
1512354368384839,-2,-1,6,1,2,1,0,1
1512354368392839,0,0,-3,2,-3,-1,3,1
1512354368392839,-2,-4,-3,-3,-1,0,-4,-3
1512354368407839,-4,1,-9,-6,0,0,-2,-2
1512354368407839,-1,-3,-5,-4,0,-3,2,-2
1512354368408839,-2,0,-3,-5,-4,-2,-1,-1
1512354368408839,2,-1,0,-1,0,-2,4,0
1512354368423839,0,1,5,1,1,1,-1,0
1512354368423839,-2,-1,10,4,-1,0,0,0
1512354368429839,1,2,-7,-1,-3,-2,-1,3
1512354368429839,-1,3,8,4,0,0,-2,-1
1512354368444839,-2,0,-4,2,3,8,-5,0
1512354368444839,2,-1,-9,-12,1,8,-15,-3
1512354368452839,1,-1,-10,-4,-3,-3,-2,-1
1512354368452839,0,-1,1,-2,0,0,-1,-2
1512354368467839,-1,-2,7,4,4,-6,0,-3
1512354368467839,3,1,8,7,-2,-6,2,-2
1512354368468839,1,1,1,0,1,-4,5,4
1512354368468839,-1,-4,-4,2,1,2,-7,1
1512354368483839,-1,-2,2,0,-2,3,1,-4
1512354368483839,0,0,-12,-6,-1,1,3,-1
1512354368489839,-3,-2,-2,-4,-1,2,-6,-2
1512354368489839,-1,-1,-1,-3,0,-1,3,-2
1512354368504839,2,-2,8,5,-2,-3,-1,1
1512354368504839,-2,-2,2,10,-2,2,2,-3
1512354368512839,-1,-4,-18,-18,-2,0,-4,-2
1512354368512839,0,0,-13,-13,-4,-8,-4,1
1512354368527839,-1,2,3,2,1,-3,-1,-3
1512354368527839,1,3,8,5,-1,-5,2,4
1512354368534839,-2,0,25,21,6,-2,3,1
1512354368534839,-2,-2,5,10,-1,-2,-2,-3
1512354368551839,1,-1,-12,-13,-4,-2,-1,-1
1512354368551839,-1,-8,-23,-20,-4,-3,3,0
1512354368552839,-1,-2,-14,-11,-2,-2,1,-4
1512354368552839,0,0,5,0,1,0,2,0
1512354368564839,0,3,12,16,1,3,-1,-2
1512354368564839,2,3,9,4,2,0,-5,0
1512354368572839,-1,2,2,0,1,5,-5,-4
1512354368572839,1,1,-2,0,0,-4,3,-2
1512354368587839,0,-2,0,-5,-1,4,4,-1
1512354368587839,-1,-2,-4,0,-4,-1,-2,-4
1512354368594839,-1,-4,-10,-6,-3,5,4,-2
1512354368594839,-1,3,1,1,0,-4,1,2
1512354368603839,1,2,4,1,-3,0,-2,2
1512354368603839,-1,0,11,9,3,0,2,2
1512354368609839,2,-1,2,4,-1,-7,2,-2
1512354368609839,-4,-4,-23,-22,-6,2,-5,-2
1512354368624839,-7,-4,-16,-15,-4,1,2,-1
1512354368624839,1,1,3,1,0,1,-1,-2
1512354368632839,0,0,11,6,1,-4,5,-1
1512354368632839,0,1,13,8,2,7,-3,2
1512354368647839,-2,2,-2,3,3,2,-12,-1
1512354368647839,0,-3,-8,-7,-3,0,2,-2
1512354368654839,0,2,-2,1,-1,2,-1,0
1512354368654839,-1,-4,-3,-3,-5,-1,6,1
1512354368663839,-3,-2,-2,1,3,-3,1,-1
1512354368663839,2,-5,4,2,-2,-2,0,1
1512354368669839,-5,-2,-6,-5,-2,3,1,-2
1512354368669839,-2,-2,-4,-2,-2,1,-1,0
1512354368684839,2,2,0,1,2,4,3,2
1512354368684839,-3,0,-2,-3,-1,0,-2,-1
1512354368692839,-1,-4,-7,-4,-3,0,2,0
1512354368692839,1,-2,3,5,1,-1,6,2
1512354368707839,-2,-1,2,2,-2,-1,3,2
1512354368707839,-3,-1,-3,-8,-2,2,0,2
1512354368714839,-1,-4,-5,-4,0,-4,-4,-3
1512354368714839,2,0,2,3,0,-5,0,0
1512354368730839,0,-2,1,-2,-3,-4,-2,-1
1512354368730839,-2,-3,-5,-1,1,5,-5,2
1512354368731839,-3,4,8,0,2,2,-2,1
1512354368731839,-1,-2,-4,-4,-1,2,-4,-1
1512354368744839,-2,-1,1,0,-1,-2,-2,1
1512354368744839,2,-1,4,1,-1,-3,0,-2
1512354368752839,0,0,4,-1,0,-1,-2,-1
1512354368752839,-3,-4,1,-1,0,1,1,-3
1512354368767839,1,1,-2,0,-2,-1,-2,-2
1512354368767839,-3,2,-3,1,0,1,2,0
1512354368774839,0,0,-6,-1,-3,3,-3,1
1512354368774839,1,0,-3,-3,2,-1,-1,-1
1512354368790839,1,-2,-1,-5,-3,-1,3,0
1512354368790839,-2,-2,1,0,-1,-2,-2,-2
1512354368791839,-3,-1,-2,-3,-1,-2,-5,0
1512354368791839,3,3,6,6,0,-1,-3,-1
1512354368804839,0,1,5,4,-1,2,-1,-3
1512354368804839,2,-2,-4,-6,-2,-4,3,-2
1512354368812839,-2,-3,-17,-11,2,6,0,-2
1512354368812839,-1,-1,-3,-3,-2,-1,0,0
1512354368828839,-1,-2,-1,-3,-3,-2,0,0
1512354368828839,-2,2,11,8,1,-3,1,0
1512354368834839,2,0,7,8,0,-4,-3,3
1512354368834839,0,0,-4,-2,2,-1,-6,0
1512354368850839,-5,-4,-5,-6,-1,-2,-3,1
1512354368850839,0,1,-6,-5,-1,-1,-3,1
1512354368851839,0,-1,1,-4,-3,-5,3,-3
1512354368851839,-2,-2,1,2,0,1,3,0
1512354368864839,3,0,4,6,0,1,1,0
1512354368864839,-2,-1,2,1,-2,-1,0,0
1512354368872839,0,-7,-11,-4,-4,-1,0,-1
1512354368872839,-2,0,-14,-14,-2,-3,-3,-1
1512354368887839,0,1,-4,-4,-1,-1,2,-1
1512354368887839,-2,2,10,6,0,1,1,0
1512354368894839,-1,3,17,11,1,2,-1,-4
1512354368894839,-2,1,-1,2,-2,3,1,-1
1512354368910839,0,-1,3,1,0,-1,-4,-2
1512354368910839,-7,-4,-6,-2,-3,-4,-3,0
1512354368917839,-1,-5,-23,-10,-1,4,-8,-2
1512354368917839,-1,-1,-4,-4,-1,-1,0,-5
1512354368926839,-2,5,6,5,4,-5,6,2
1512354368926839,4,2,3,-6,0,4,0,0
1512354368932839,-2,5,5,-3,3,-1,-5,-4
1512354368932839,2,6,5,5,-4,-1,1,-3
1512354368947839,-5,-10,-1,1,-1,0,2,-1
1512354368947839,4,8,11,7,3,-1,1,1
1512354368954839,-2,-2,3,2,-5,-3,1,-1
1512354368954839,-1,-1,-8,-9,-4,-1,-6,-3
1512354368970839,0,-2,-9,-6,-5,0,-3,-2
1512354368970839,3,1,-11,0,2,2,3,-3
1512354368971839,-4,-4,-5,-6,1,-1,1,-1
1512354368971839,3,0,10,10,3,-3,-2,1
1512354368986839,0,4,11,-12,-7,-8,-5,-2
1512354368986839,-5,-9,-24,-2,0,-4,2,-3
1512354368992839,-1,3,-7,-3,-8,-8,1,1
1512354368992839,-4,-4,2,-2,2,0,7,3
1512354369007839,1,0,7,5,5,5,-5,0
1512354369007839,1,2,11,3,-3,-1,-1,-3
1512354369014839,1,2,13,6,0,0,5,2
1512354369014839,1,1,3,6,2,5,4,3
1512354369030839,-4,-3,-4,-1,-2,-2,-4,0
1512354369030839,-5,-2,-1,2,-1,0,0,0
1512354369031839,0,-3,-4,-1,-1,-6,-2,-2
1512354369031839,-4,-9,-10,-11,-5,0,-3,-4
1512354369046839,-2,-6,-6,5,3,4,3,1
1512354369046839,1,0,-6,-7,-3,1,-3,1
1512354369060839,-6,-3,-13,-7,-1,2,-4,-1
1512354369060839,-2,1,8,-2,-6,0,-9,-3
1512354369067839,4,2,-4,-1,3,-3,5,-1
1512354369067839,1,-2,8,5,-2,-3,-9,1
1512354369074839,-1,-8,5,3,5,2,1,-1
1512354369074839,0,-1,8,5,1,0,0,-2
1512354369090839,-1,-2,-5,-2,-4,1,1,1
1512354369090839,-1,-5,-9,-2,4,-1,-2,-2
1512354369091839,2,3,4,0,-3,-1,0,-2
1512354369091839,4,3,8,7,2,3,5,6
1512354369106839,-6,0,1,-1,-2,-4,0,-3
1512354369106839,-2,-3,-13,-10,-3,-2,0,-2
1512354369112839,1,3,1,0,0,-1,0,-1
1512354369112839,1,-3,5,5,0,2,-1,1
1512354369127839,1,-5,-9,-4,-1,-2,2,0
1512354369127839,0,3,-10,-8,-1,-4,-1,-3
1512354369134839,8,8,7,8,5,17,2,4
1512354369134839,3,2,-6,-7,-6,-4,-2,-1
1512354369150839,2,5,1,-1,-1,2,0,1
1512354369150839,-2,-2,9,3,-3,-1,-2,-1
1512354369150839,3,-1,-4,-2,-2,-4,-4,-1
1512354369150839,-1,1,0,-1,3,1,-2,-3
1512354369166839,2,-1,3,4,-3,1,-3,-1
1512354369166839,-2,-4,9,4,2,1,2,-2
1512354369172839,-4,-1,-4,-2,-1,0,-3,1
1512354369172839,-2,-2,-9,-6,-1,1,-4,-3
1512354369187839,-4,-4,-6,0,0,-3,0,0
1512354369187839,3,4,5,5,-1,-1,-1,-3
1512354369194839,-3,-1,9,1,0,0,-1,-1
1512354369194839,-2,-2,4,3,0,-2,0,-2
1512354369210839,1,0,-6,-6,-1,1,-4,0
1512354369210839,0,4,-1,-2,-2,3,-1,4
1512354369210839,-2,-2,-7,-5,-4,0,-1,-1
1512354369210839,-3,0,-17,-9,-1,2,1,1
1512354369226839,3,2,2,-4,4,2,0,-1
1512354369226839,-3,2,8,3,-2,-7,0,-1
1512354369232839,2,1,5,4,-7,-6,1,-4
1512354369232839,-1,-2,0,1,4,-2,-3,-2
1512354369247839,3,3,14,7,7,5,-1,-1
1512354369247839,-2,-4,-10,-8,-4,-5,-2,0
1512354369254839,-3,-9,-25,-11,-3,0,-1,-2
1512354369254839,-3,-1,-5,-5,1,-3,1,0
1512354369270839,0,2,4,-2,-5,-5,-1,-1
1512354369270839,2,4,10,4,2,3,-2,0
1512354369271839,1,-1,14,7,1,-2,-3,1
1512354369271839,-3,-2,-5,-3,-4,0,3,1
1512354369286839,-2,-2,-8,-5,-1,-4,-4,-3
1512354369286839,-2,-1,-2,0,-2,4,1,-1
1512354369292839,-2,0,-1,3,3,-3,3,1
1512354369292839,0,2,1,-2,-1,-1,-2,-4
1512354369307839,-2,-2,0,0,-4,1,-1,-1
1512354369307839,-1,-3,-5,-5,-3,1,0,2
1512354369314839,-3,-5,-2,-3,0,-6,4,0
1512354369314839,0,-1,1,0,4,2,-1,-1
1512354369330839,-2,2,2,-1,-1,0,-3,-3
1512354369330839,-4,-3,-2,-3,1,11,0,-1
1512354369331839,-1,2,1,4,-2,-2,-4,-4
1512354369331839,-1,-1,3,-1,1,3,1,1
1512354369346839,-1,2,-1,0,-2,-1,-10,-1
1512354369346839,0,1,-5,-5,-2,2,0,1
1512354369352839,0,0,3,2,3,6,-3,0
1512354369352839,-2,1,-1,1,-6,-7,1,0
1512354369367839,-1,-2,-7,-5,2,2,3,1
1512354369367839,0,-3,-1,4,1,0,-2,-3
1512354369382839,-1,-1,3,-2,-2,-1,0,-1
1512354369382839,0,-2,-2,-1,0,0,-2,-1
1512354369390839,-4,0,-6,-4,-1,-2,2,3
1512354369390839,3,0,-1,-3,1,1,-3,-2
1512354369391839,2,0,1,6,2,-3,4,1
1512354369391839,-1,0,2,1,0,2,-4,-3
1512354369406839,3,-1,-3,-2,-3,5,-1,3
1512354369406839,0,-3,-1,1,2,-8,3,0
1512354369412839,-1,2,-1,-3,-2,-6,1,-1
1512354369412839,-1,0,-1,-1,0,0,-2,2
1512354369427839,1,-2,-1,1,0,-2,1,0
1512354369427839,0,0,1,-1,-1,-3,-1,0
1512354369434839,-2,-2,2,0,-1,3,-3,0
1512354369434839,-2,-3,-1,-1,-1,-2,1,0
1512354369449839,-3,0,-3,2,-1,1,1,-5
1512354369449839,0,0,-1,-4,-2,-4,-1,-1
1512354369457839,-1,0,3,-2,0,0,0,0
1512354369457839,0,0,-5,-1,-2,-2,0,1
1512354369466839,-2,-1,2,-2,-2,1,-7,-2
1512354369466839,0,-3,-6,1,6,-3,4,1
1512354369471839,-1,2,3,-2,-2,0,0,1
1512354369471839,-2,-2,-5,-4,-3,-2,1,-3
1512354369487839,-1,0,1,1,-3,-2,2,3
1512354369487839,-1,0,-4,-5,-2,2,-4,0
1512354369494839,-2,1,2,-3,-2,-2,3,-2
1512354369494839,-2,-1,4,4,0,1,-1,1
1512354369509839,-3,-3,1,-4,0,0,-3,-5
1512354369509839,2,0,1,0,-3,-1,0,1
1512354369517839,0,0,-11,-5,-1,-2,-2,1
1512354369517839,-2,-1,-8,-1,3,-1,-1,0
1512354369526839,1,1,0,0,1,0,2,1
1512354369526839,-1,1,11,3,-4,-3,-4,1
1512354369531839,1,-1,-1,2,0,-1,-3,-1
1512354369531839,1,-2,-4,-3,-3,-3,-2,-2
1512354369546839,-1,-2,-7,-3,-1,-8,4,-1
1512354369546839,3,1,1,1,0,-1,-3,0
1512354369554839,-3,-3,-2,1,-1,0,-5,2
1512354369554839,2,1,7,-2,0,1,1,-1
1512354369569839,-2,-1,-2,1,0,0,-3,-2
1512354369569839,-3,-1,0,-3,-2,0,-1,-4
1512354369577839,1,2,3,2,1,-1,1,-2
1512354369577839,5,-1,-3,-3,-2,-2,-1,1
1512354369585839,-4,-3,-3,-2,-4,-6,0,1
1512354369585839,-3,3,-3,-1,1,8,-4,0
1512354369592839,-3,-3,8,4,0,-3,1,1
1512354369592839,0,1,2,2,2,0,-2,-3
1512354369607839,2,0,-4,1,2,5,-2,-4
1512354369607839,-2,-4,-4,-4,-4,-2,1,-2
1512354369614839,1,3,0,-2,-3,1,1,-2
1512354369614839,-3,0,-2,1,1,0,1,0
1512354369629839,2,1,5,0,1,1,0,1
1512354369629839,0,-1,3,3,-2,-1,-2,-1
1512354369636839,-1,-2,-8,-3,0,3,1,-3
1512354369636839,-4,-5,-7,-10,-3,-2,-1,-2
1512354369652839,2,0,1,1,-3,2,0,-2
1512354369652839,-2,0,2,3,1,0,-1,0
1512354369653839,-3,-1,11,1,-1,-2,-2,0
1512354369653839,1,-2,-1,2,0,1,-2,0
1512354369667839,-1,0,-8,-4,-4,-3,0,0
1512354369667839,-6,-1,-6,-7,-1,0,0,-1
1512354369674839,1,0,-5,0,-4,-1,-2,0
1512354369674839,0,4,7,1,-3,-2,-2,-1
1512354369689839,-3,-4,8,3,5,4,-1,-1
1512354369689839,-4,-4,-3,-6,-5,-3,-1,-3
1512354369697839,-1,-4,-9,-2,3,-1,-1,0
1512354369697839,0,4,9,4,-1,7,0,2
1512354369712839,2,1,-4,-3,0,-2,-1,-1
1512354369712839,-1,-2,-5,-1,-2,0,-2,1
1512354369713839,1,-2,0,-6,-2,-3,2,1
1512354369713839,-4,0,-3,0,-2,-3,-1,-1
1512354369726839,0,-2,-1,-1,-6,0,0,1
1512354369726839,0,0,2,-4,-1,1,0,-2
1512354369734839,1,-2,2,-2,-2,-1,-1,-2
1512354369734839,-1,-1,-5,-5,-1,1,0,1
1512354369749839,-1,1,7,5,1,-1,2,1
1512354369749839,1,0,-4,3,1,0,-3,-1
1512354369757839,0,0,-4,0,3,4,-1,-2
1512354369757839,1,-2,5,3,0,2,2,-1
1512354369772839,-3,-2,-3,-3,-1,-1,-1,0
1512354369772839,-2,-2,-9,-5,1,3,1,1
1512354369773839,-1,0,2,-1,0,-2,-1,0
1512354369773839,-1,2,1,0,-2,-2,-4,-3
1512354369786839,0,0,9,1,0,-1,-5,0
1512354369786839,1,1,1,0,1,4,3,3
1512354369794839,-3,-3,-7,-5,-3,0,0,-1
1512354369794839,2,-4,-9,-5,-2,-1,0,-2
1512354369809839,-3,-4,-1,-1,-1,-5,-3,-4
1512354369809839,3,1,6,5,-1,-4,-1,0
1512354369816839,-2,2,3,3,1,3,-4,1
1512354369816839,0,-3,-3,0,-1,-1,-1,-2
1512354369832839,2,-1,-10,0,2,1,1,1
1512354369832839,1,1,-3,-5,-5,-2,0,-1
1512354369833839,-3,-3,-9,-6,3,2,3,-2
1512354369833839,2,1,6,2,1,-2,2,3
1512354369847839,-2,2,1,-5,0,1,0,0
1512354369847839,-3,3,2,4,0,1,-3,0
1512354369854839,-2,-2,8,3,3,1,0,-3
1512354369854839,-7,-1,-7,-5,-1,-8,0,-2
1512354369869839,1,-2,-11,-8,-6,-3,1,1
1512354369869839,0,-5,-3,-3,-2,0,2,-1
1512354369877839,1,1,6,2,-2,-7,-1,-2
1512354369877839,-3,-2,5,3,0,3,0,0
1512354369892839,-3,-1,6,3,0,0,-3,-1
1512354369892839,-2,-2,-1,1,2,-4,-2,2
1512354369893839,2,-2,-8,-3,-2,-3,1,0
1512354369893839,2,-2,0,-1,-3,-5,-1,-2
1512354369906839,0,1,-1,-4,-2,3,-3,-1
1512354369906839,1,0,4,2,-1,-4,0,-1
1512354369914839,2,-1,-1,-2,0,2,-3,-2
1512354369914839,-4,0,-5,-2,-2,-3,-1,3
1512354369929839,0,0,7,2,3,0,1,-1
1512354369929839,-2,0,-5,0,-1,-3,-2,-3
1512354369937839,-2,2,-1,-3,-4,0,-2,-1
1512354369937839,1,-4,-9,-8,-2,2,0,-1
1512354369952839,-1,-2,3,3,2,3,2,-1
1512354369952839,2,3,8,1,-3,-5,-3,-2
1512354369953839,-4,1,-3,0,-1,-1,-1,0
1512354369953839,4,-1,1,0,-2,0,-2,0
1512354369966839,-2,-1,-3,-1,0,0,0,-2
1512354369966839,-3,-4,-1,-3,2,2,2,1
1512354369974839,0,-2,-6,-5,-2,1,-3,1
1512354369974839,-3,3,7,6,3,3,0,-1
1512354369989839,1,-1,2,4,-1,-5,-1,2
1512354369989839,1,1,3,0,-3,-3,-1,-3
1512354369996839,2,2,-3,-2,-4,0,1,1
1512354369996839,-4,0,-10,-6,0,-1,-1,-1
1512354370012839,1,-2,0,-4,-3,0,-2,-1
1512354370012839,1,0,-1,0,1,-3,-2,-1
1512354370013839,-1,-2,0,1,0,0,-1,-2
1512354370013839,-2,-4,-1,-2,1,2,-1,-5
1512354370026839,-3,-2,-3,-4,-3,8,4,-1
1512354370026839,1,-3,-1,0,3,3,-2,1
1512354370034839,-1,3,-1,0,-4,-1,-1,-2
1512354370034839,0,-1,4,-3,0,-3,-1,2
1512354370049839,-1,-3,-7,0,-3,-4,-3,-2
1512354370049839,-3,-1,0,0,2,3,-1,2
1512354370056839,-2,1,6,3,1,-5,1,-3
1512354370056839,1,-1,6,-1,-1,2,-2,-4
1512354370072839,-2,-2,-13,-3,1,-4,-2,-2
1512354370072839,-2,-2,-6,-2,0,3,0,-2
1512354370073839,0,3,1,0,2,2,0,0
1512354370073839,-2,-1,6,4,-2,-1,0,-1
1512354370086839,2,-1,4,0,3,-1,-1,-4
1512354370086839,-3,0,-3,-1,-1,-1,-1,0
1512354370094839,1,1,-1,-1,0,-3,-1,-1
1512354370094839,2,-1,-2,0,1,4,-1,-1
1512354370109839,-1,2,0,-2,0,1,-4,-1
1512354370109839,-1,-2,-2,-2,1,-2,1,0
1512354370117839,0,1,-1,-1,-1,-2,-1,-3
1512354370117839,2,4,-3,-3,-1,-1,-6,2
1512354370132839,-3,2,-1,0,-3,0,0,1
1512354370132839,0,2,-2,2,-3,-5,0,-3
1512354370133839,-1,-4,0,-2,-3,0,3,0
1512354370133839,-2,-1,-3,0,1,-1,1,-2
1512354370146839,1,1,3,2,-1,-1,-1,-3
1512354370146839,1,-2,1,1,-2,-1,3,1
1512354370154839,-2,-5,-7,-6,-7,0,-3,-3
1512354370154839,-2,2,-4,-4,-1,-2,-1,1
1512354370169839,-2,1,5,3,-1,0,2,1
1512354370169839,-1,-1,-2,0,4,6,1,-1
1512354370176839,2,-2,-2,-1,-4,-2,-5,2
1512354370176839,-3,-1,-1,1,-1,1,1,-2
1512354370192839,0,-2,3,-1,0,-1,-5,1
1512354370192839,-1,1,3,1,1,-1,-1,-2
1512354370193839,-1,-1,0,1,3,0,1,1
1512354370193839,0,-2,-4,-1,-1,-2,1,-1
1512354370215839,0,-1,-2,-2,0,0,1,-3
1512354370215839,-1,-1,-1,-2,2,4,1,-4
1512354370215839,0,-2,-3,1,0,0,0,1
1512354370215839,2,0,3,3,0,-1,-1,2
1512354370229839,0,-1,3,-1,0,-5,1,-4
1512354370229839,0,-2,-6,-1,-1,-3,-1,2
1512354370236839,-4,0,2,-2,3,2,0,-2
1512354370236839,1,-3,-6,-5,-1,2,-2,1
1512354370252839,-4,-3,-5,-3,0,0,-1,0
1512354370252839,1,2,10,1,0,1,-1,-1
1512354370253839,2,0,0,4,0,-2,-2,0
1512354370253839,-3,0,2,3,-1,0,-1,1
1512354370266839,2,0,-3,-3,0,0,2,1
1512354370266839,-3,-4,-7,-3,-2,-2,-1,0
1512354370274839,1,2,6,3,0,0,-1,-1
1512354370274839,-2,-1,5,0,-1,-2,-1,-1
1512354370289839,-1,1,-10,-2,-3,-1,-1,2
1512354370289839,1,-2,-8,-6,-3,2,-2,3
1512354370296839,-3,0,-4,-1,-2,0,-1,-2
1512354370296839,1,1,5,0,1,3,-1,-2
1512354370312839,-2,0,4,0,-3,-1,-2,0
1512354370312839,-3,-2,4,0,-2,-2,-2,-1
1512354370313839,0,0,3,-2,-2,-3,1,0
1512354370313839,0,-3,-9,-3,-2,0,-1,-1
1512354370326839,1,1,3,1,-1,0,-1,-1
1512354370326839,0,-3,-9,-8,0,5,-1,3
1512354370334839,-6,-4,-3,-4,0,1,-2,0
1512354370334839,1,0,4,3,2,-2,0,0
1512354370349839,-1,0,1,1,0,4,-1,1
1512354370349839,-1,0,5,4,-2,1,1,-2
1512354370356839,1,-1,-4,-5,2,-2,-1,-1
1512354370356839,0,-2,-2,-4,-4,-4,4,1
1512354370372839,-1,0,-8,-6,-2,-1,0,0
1512354370372839,2,0,1,0,-4,-5,1,-3
1512354370373839,-1,-2,-4,0,-2,3,-2,-2
1512354370373839,0,-1,-1,3,-1,-5,-1,-1
1512354370386839,-2,-2,3,1,-2,3,-3,0
1512354370386839,3,-1,2,-2,-1,-2,-3,-3
1512354370394839,-1,-1,-5,0,-4,3,-2,4
1512354370394839,-3,-2,-2,-3,1,0,1,-2
1512354370409839,3,-1,2,0,-1,-1,-5,-2
1512354370409839,-2,2,-1,-1,3,0,-2,-2
1512354370416839,2,1,9,-1,2,1,2,0
1512354370416839,0,-3,-1,-1,2,5,-2,1
1512354370431839,-3,-2,-4,-3,1,-2,0,-1
1512354370431839,-2,3,1,1,-3,-4,-1,-2
1512354370440839,-1,-5,-2,3,-5,-2,0,-2
1512354370440839,-1,1,-1,-1,-3,1,-4,0
1512354370446839,0,0,-1,1,1,-5,2,-1
1512354370446839,1,-2,-3,2,0,3,1,2
1512354370454839,-2,2,7,-2,-2,-2,-2,-2
1512354370454839,0,3,-1,-1,0,-3,-3,-4
1512354370469839,4,-3,-3,-3,-2,-1,0,-2
1512354370469839,0,2,-2,-1,0,-2,-4,-2
1512354370476839,-1,0,-1,1,1,3,2,1
1512354370476839,2,1,1,1,0,-3,3,2
1512354370493839,2,1,3,-2,0,1,-1,2
1512354370493839,0,-5,-1,-2,-2,0,-2,1
1512354370500839,0,1,-1,-1,0,-3,0,-1
1512354370500839,-1,-3,-10,-5,0,2,2,-1
1512354370506839,-3,-1,-1,0,-1,0,2,0
1512354370506839,0,1,6,5,0,-2,0,2
1512354370514839,2,-1,6,4,-1,0,2,0
1512354370514839,-5,-4,-1,-5,-3,-1,-3,0
1512354370529839,2,-1,-7,-4,-1,3,1,-3
1512354370529839,-3,1,0,2,-3,-1,-1,-2
1512354370536839,0,0,1,-3,2,0,-1,-3
1512354370536839,2,-1,1,-1,0,-1,0,3
1512354370551839,1,-3,-3,-2,0,-2,-2,1
1512354370551839,-1,-3,-2,-4,1,4,-1,0
1512354370560839,-3,-4,-6,-5,-3,-2,-1,0
1512354370560839,-3,0,0,2,0,-4,-1,1
1512354370575839,-1,-2,2,0,0,-2,-1,-3
1512354370575839,-1,-2,3,0,1,1,-1,-1
1512354370575839,-2,-3,-2,0,-1,-1,-2,-2
1512354370575839,2,-1,-3,-3,-2,-1,1,-2
1512354370589839,0,-2,0,0,1,0,-1,0
1512354370589839,-2,-1,-4,-4,-2,3,3,-1
1512354370596839,2,0,-2,2,-4,-5,-4,0
1512354370596839,-2,-1,0,0,0,3,0,-5
1512354370612839,-3,-1,1,2,0,-1,0,-2
1512354370612839,-1,-2,2,2,1,-1,-1,0
1512354370620839,1,0,0,-2,1,3,1,-1
1512354370620839,-3,-3,-9,-5,-2,1,-1,-2
1512354370635839,-1,0,-5,-5,-1,2,0,2
1512354370635839,1,0,0,-1,0,-5,2,1
1512354370635839,-1,-1,5,0,0,1,1,0
1512354370635839,-1,2,2,2,1,-1,-3,-1
1512354370649839,-2,-2,-1,-1,0,0,1,0
1512354370649839,1,-1,-4,-2,-6,-1,-3,0
1512354370656839,0,1,2,-2,0,5,-2,0
1512354370656839,2,1,2,0,-4,-3,0,1
1512354370671839,0,-2,0,1,4,7,2,-2
1512354370671839,0,-4,-1,0,-1,-3,-3,-2
1512354370680839,-2,-2,-6,-6,-1,0,1,0
1512354370680839,0,0,0,1,1,-2,3,1
1512354370695839,-2,-1,0,1,-1,-4,-3,1
1512354370695839,-1,-1,3,1,-2,-4,-2,0
1512354370695839,-1,-1,-5,0,1,1,2,-1
1512354370695839,0,0,-1,1,-2,0,-5,-1
1512354370709839,1,0,-2,0,0,-2,-1,0
1512354370709839,-1,1,-1,-2,0,3,2,-3
1512354370716839,2,0,-2,0,-1,1,-3,0
1512354370716839,-2,-2,2,-2,-3,2,-5,1
1512354370731839,-2,0,2,-2,-3,-4,-1,-3
1512354370731839,2,-1,-2,-1,-2,0,3,2
1512354370740839,-3,-3,-3,-1,1,-2,-1,-1
1512354370740839,-3,-1,4,2,1,1,-3,-3
1512354370755839,-1,0,0,1,-2,-2,-1,0
1512354370755839,-1,0,-7,-3,0,1,-2,-1
1512354370755839,0,3,-7,1,4,-2,-1,1
1512354370755839,1,-1,2,-2,-2,-3,-2,-1
1512354370769839,-3,0,1,0,0,4,-4,2
1512354370769839,1,-2,1,3,0,1,-2,-1
1512354370776839,-1,0,5,0,0,-4,1,0
1512354370776839,-1,-3,-12,-2,1,3,2,-1
1512354370791839,-5,-1,-2,1,-2,0,1,0
1512354370791839,0,2,6,0,3,1,-1,-2
1512354370800839,2,1,3,2,0,0,-1,1
1512354370800839,-1,-2,-1,-2,-2,-1,1,-2
1512354370815839,0,-1,-1,0,1,-2,-2,0
1512354370815839,-3,1,2,4,0,-3,2,0
1512354370815839,-3,-2,-6,-4,-3,-3,-2,-2
1512354370815839,0,2,0,5,3,-1,2,1
1512354370829839,-1,-2,-3,-6,-3,-1,0,-2
1512354370829839,-4,-4,-2,-3,2,-2,-1,-1
1512354370836839,-2,1,3,3,-6,2,0,1
1512354370836839,0,0,5,0,-1,-3,-2,-2
1512354370851839,0,-2,-3,-2,0,0,-2,1
1512354370851839,3,-2,-8,-7,0,0,0,-2
1512354370860839,0,-4,1,-2,-2,-2,1,-2
1512354370860839,-1,-1,-2,-4,-1,2,-1,-1
1512354370875839,0,-1,2,2,1,-3,1,-2
1512354370875839,0,1,-2,-4,-2,-2,-3,0
1512354370875839,1,-2,-5,-2,2,2,1,-1
1512354370875839,-2,2,3,1,0,-2,3,0
1512354370889839,1,1,1,0,3,4,0,-1
1512354370889839,-2,-1,-1,2,-2,-1,-1,1
1512354370896839,1,0,-1,-3,-1,0,1,-1
1512354370896839,-1,-4,-1,-1,-2,2,0,1
1512354370911839,1,-2,2,-1,-1,1,-1,-3
1512354370911839,-2,0,-5,0,1,1,-1,-1
1512354370920839,1,-1,3,0,0,-3,-2,2
1512354370920839,0,-2,-9,-6,-3,3,-3,0
1512354370935839,-1,-1,1,-3,-5,-5,-3,-1
1512354370935839,-1,1,6,1,-3,-1,0,-4
1512354370935839,-2,-1,-3,1,0,-2,-1,-1
1512354370935839,1,0,5,-1,2,-2,-3,1
1512354370949839,-1,1,-1,0,0,-2,2,-2
1512354370949839,-1,1,0,2,-1,11,0,-2
1512354370956839,-2,-2,0,-1,0,-3,-2,-4
1512354370956839,2,4,-2,-1,-2,-3,0,0
1512354370971839,-1,0,0,-5,-3,-2,-1,4
1512354370971839,-2,-2,-3,-4,-1,-2,0,-2
1512354370980839,-2,-2,-1,0,-3,-2,0,0
1512354370980839,1,0,2,0,-1,1,2,-1
1512354370995839,0,-2,3,-1,1,3,1,-2
1512354370995839,-2,-1,-5,-2,-1,-4,0,1
1512354370995839,-2,0,-8,0,0,-1,-4,1
1512354370995839,-1,0,2,-2,-4,-5,-2,-1
1512354371009839,-2,-2,0,1,-2,-1,-2,0
1512354371009839,0,0,6,0,-1,-3,0,0
1512354371016839,-1,2,1,0,2,0,0,-3
1512354371016839,-2,-2,0,3,1,3,-2,0
1512354371031839,1,-1,-5,0,-1,0,0,0
1512354371031839,1,-2,-3,-6,-2,-2,0,3
1512354371047839,1,1,-3,0,0,-3,0,-2
1512354371047839,1,0,2,-2,2,-2,2,-1
1512354371055839,0,0,0,3,-3,-2,-2,-1
1512354371055839,0,0,-3,0,2,2,0,3
1512354371055839,0,-2,2,-3,-1,-2,-1,-2
1512354371055839,1,0,-3,-5,-2,1,-2,-4
1512354371069839,-4,2,-2,1,2,-2,-4,0
1512354371069839,0,-3,-1,0,-1,1,0,-1
1512354371076839,-4,-3,-7,-2,-1,3,2,-2
1512354371076839,-1,-3,-2,-2,-1,5,0,-3
1512354371091839,1,0,-3,-3,-2,1,-1,2
1512354371091839,-3,0,0,1,-3,-4,-4,-2
1512354371100839,1,2,7,3,-1,4,-1,-1
1512354371100839,-2,-1,0,1,0,-1,0,-2
1512354371115839,1,0,-3,-4,-3,-1,1,-3
1512354371115839,-3,-3,-8,-7,-2,-1,-2,-1
1512354371115839,-3,-1,-4,2,-1,2,2,1
1512354371115839,0,2,0,-2,2,0,-3,1
1512354371129839,3,2,4,3,0,-2,1,-1
1512354371129839,1,-4,2,-1,-4,1,-4,-2
1512354371136839,-1,0,-2,-6,-1,-4,1,1
1512354371136839,0,-3,-5,1,-2,-3,-4,0
1512354371151839,-2,1,-2,2,1,-1,1,0
1512354371151839,-1,1,3,-3,4,1,0,0
1512354371160839,0,0,2,0,-3,-1,-3,0
1512354371160839,-4,0,9,-1,0,0,1,-1
1512354371175839,1,-3,-10,-8,1,1,-3,-1
1512354371175839,0,-1,-3,-2,1,-2,-2,-2
1512354371175839,3,-1,-6,-3,-1,2,2,0
1512354371175839,0,0,5,4,2,-1,3,2
1512354371189839,-4,1,1,0,2,2,-4,0
1512354371189839,-2,1,3,2,2,0,-2,0
1512354371196839,-2,1,1,-2,-2,-2,-3,-1
1512354371196839,-1,-1,-7,-2,-1,-4,0,1
1512354371211839,0,-1,-1,-1,3,2,0,-4
1512354371211839,-2,2,7,10,-1,-4,0,-4
1512354371220839,0,0,1,-4,-2,-2,-3,1
1512354371220839,-2,-3,-6,-2,-3,-2,1,0
1512354371235839,0,0,-7,-3,-4,-1,-2,0
1512354371235839,1,-3,3,-2,-2,3,0,1
1512354371235839,0,-4,3,1,-5,-1,0,-1
1512354371235839,-1,1,0,1,1,0,-1,-1
1512354371249839,0,-2,1,2,1,-1,-3,2
1512354371249839,0,1,-5,-4,-2,0,0,0
1512354371256839,1,1,-1,1,1,3,1,-2
1512354371256839,-6,-1,0,-2,2,4,-2,-3
1512354371271839,-4,-2,-7,-9,-5,-4,-1,1
1512354371271839,1,-1,-4,1,-1,-3,-3,-3
1512354371280839,2,-1,4,-1,-1,0,-1,-2
1512354371280839,1,-1,-4,1,-5,0,0,-1
1512354371295839,-3,2,9,3,-1,-3,-2,-4
1512354371295839,1,2,0,-2,-1,3,1,2
1512354371295839,0,-3,-4,-4,2,-6,-3,2
1512354371295839,0,0,6,1,-2,2,-1,-2
1512354371309839,-2,-1,-4,-5,1,2,-3,-2
1512354371309839,0,-1,-8,1,-1,3,0,-1
1512354371316839,-2,0,-1,0,-1,-1,-1,-1
1512354371316839,0,1,3,0,0,-1,-1,0
1512354371331839,-1,1,4,3,1,-3,2,2
1512354371331839,-1,0,3,-3,0,-1,0,-4
1512354371340839,-2,-2,-5,-4,0,0,-3,-2
1512354371340839,-1,-2,-6,-6,-1,0,-2,-2
1512354371354839,4,-1,2,0,0,1,3,0
1512354371354839,-3,0,0,-1,0,-4,0,1
1512354371362839,1,1,0,1,2,-2,0,-3
1512354371362839,2,2,12,3,1,-3,-2,0
1512354371369839,1,-2,-11,1,-1,4,-1,0
1512354371369839,1,-1,-4,-4,-3,-3,2,1
1512354371376839,0,1,1,-4,-2,1,3,1
1512354371376839,0,2,3,2,-2,1,-1,2
1512354371391839,-3,2,8,1,-3,-2,2,-3
1512354371391839,-4,-5,-8,-5,-1,0,-1,-3
1512354371400839,-1,0,1,3,2,3,-1,-1
1512354371400839,0,-2,-5,-2,-1,0,0,0
1512354371414839,-3,0,2,-4,0,-2,0,1
1512354371414839,0,-2,-2,3,-3,-1,-3,-1
1512354371422839,-4,-3,-7,-2,-1,0,2,-2
1512354371422839,-2,0,3,0,-4,0,0,-3
1512354371429839,1,1,3,3,1,-3,1,-1
1512354371429839,-5,-1,0,-1,3,4,1,4
1512354371436839,1,2,1,1,-1,-1,-2,2
1512354371436839,-1,-2,-4,0,1,-4,-2,-3
1512354371451839,4,-2,-1,-3,-2,1,-2,1
1512354371451839,-1,0,-7,-3,-3,0,-2,-3
1512354371460839,-1,-3,-3,-3,-5,2,-2,-1
1512354371460839,1,0,-1,1,2,0,0,1
1512354371474839,4,0,3,4,-1,3,-2,-2
1512354371474839,1,1,6,2,-1,2,-1,0
1512354371482839,-2,-4,-5,-1,1,-2,1,0
1512354371482839,-4,-2,-7,-5,-4,-2,1,-1
1512354371489839,-1,-1,0,-4,-1,-1,1,-3
1512354371489839,2,1,1,2,1,-1,1,-1
1512354371496839,-2,0,4,2,0,-3,1,0
1512354371496839,-3,-2,-5,-3,-1,1,-1,-1
1512354371511839,0,-3,-7,-3,-3,-5,0,-2
1512354371511839,2,2,5,2,0,5,1,-2
1512354371519839,-4,-1,2,-1,0,-2,-3,-1
1512354371519839,1,-1,-4,0,-1,0,-1,-1
1512354371534839,-3,1,-1,0,-3,2,1,-3
1512354371534839,2,-1,-2,0,-2,0,-1,-1
1512354371542839,0,1,5,2,1,0,-2,0
1512354371542839,1,-2,0,-5,-3,-1,1,1
1512354371557839,0,-1,-2,-1,2,-2,0,-3
1512354371557839,-2,-4,-4,-2,-4,-2,-1,0
1512354371558839,3,1,1,1,-1,-1,-1,1
1512354371558839,-2,0,5,3,1,3,-3,1
1512354371571839,0,-5,-6,-7,-3,0,-4,-3
1512354371571839,-3,-3,-9,-5,1,-4,0,-2
1512354371579839,2,-2,-5,-1,0,1,1,0
1512354371579839,0,2,6,4,3,1,0,-1
1512354371603839,-2,-2,5,5,2,2,-1,2
1512354371603839,2,-2,2,-1,0,-2,-3,0
1512354371603839,-3,0,-2,-4,-1,-2,0,0
1512354371603839,2,-1,-3,-1,-1,-3,0,-1
1512354371617839,-3,-1,-1,-1,-1,2,-3,4
1512354371617839,-1,0,-1,-3,-2,-6,-1,-4
1512354371618839,-3,-1,0,2,-1,-1,-1,-3
1512354371618839,-1,0,-2,-1,0,1,0,-1
1512354371631839,0,-1,0,-3,-3,-1,-1,0
1512354371631839,0,0,2,0,5,0,-2,1
1512354371639839,-3,0,-1,0,-1,-3,-1,0
1512354371639839,1,0,-5,-1,0,1,-1,-2
1512354371654839,-1,0,-3,1,-1,-5,-1,-2
1512354371654839,0,0,2,0,-7,0,0,0
1512354371662839,-4,-1,-1,0,4,9,1,0
1512354371662839,1,-1,-1,-3,0,-6,-2,-1
1512354371677839,-2,-1,-2,-2,0,-2,1,3
1512354371677839,0,0,1,0,0,-1,0,-1
1512354371678839,4,0,0,4,-3,0,-2,0
1512354371678839,-1,0,-1,1,-2,-5,0,0
1512354371691839,-1,0,0,-1,3,3,3,0
1512354371691839,2,-1,1,-3,-2,-1,-4,-1
1512354371699839,2,1,-1,-5,-2,0,-1,-1
1512354371699839,-2,-1,-4,-4,0,-1,-4,-4
1512354371714839,-1,-2,-1,-1,2,2,-1,1
1512354371714839,-3,-1,-2,3,-1,-2,3,2
1512354371722839,1,-2,1,0,1,3,-1,-1
1512354371722839,0,-1,-2,0,3,4,0,0
1512354371737839,-1,-3,1,1,-4,-2,-1,-3
1512354371737839,-3,1,0,0,2,3,-1,-2
1512354371738839,-3,-2,-4,1,1,1,1,-1
1512354371738839,1,0,1,-1,-1,-2,-2,1
1512354371751839,1,0,-1,0,-2,-4,-3,-1
1512354371751839,0,0,0,1,3,2,-2,0
1512354371759839,2,-1,0,-2,-1,-1,-4,-3
1512354371759839,-2,-2,-1,-1,-1,-3,2,1
1512354371774839,-2,4,0,-1,0,0,-2,-1
1512354371774839,1,-1,-1,1,-1,0,1,0
1512354371782839,-1,-2,1,-2,-1,-2,-1,0
1512354371782839,-3,-3,-1,-2,-4,-3,0,1
1512354371797839,-2,-1,1,1,-2,-2,-1,-2
1512354371797839,-1,-2,0,-1,0,-1,-1,1
1512354371798839,-3,0,1,1,-2,0,-2,-2
1512354371798839,0,0,3,-2,0,6,-1,-1
1512354371811839,-1,-3,-3,0,-2,0,1,-2
1512354371811839,-1,0,-1,-3,1,-3,0,-2
1512354371819839,-2,-2,0,1,-2,-2,2,2
1512354371819839,-2,0,0,0,2,0,0,0
1512354371834839,-1,0,2,1,-2,-1,-6,-1
1512354371834839,2,0,-4,0,-1,4,-1,-2
1512354371842839,-1,2,-1,-1,2,1,-5,-1
1512354371842839,0,0,-2,-1,-1,4,-3,0
1512354371857839,2,-3,0,-1,0,-1,2,-1
1512354371857839,-4,-2,-1,-1,-7,-2,3,3
1512354371858839,1,-2,0,1,-1,-4,4,-1
1512354371858839,-2,-2,3,0,-1,1,-3,-2
1512354371871839,-1,0,1,-3,1,6,-4,0
1512354371871839,1,0,0,-3,-3,-2,-2,-1
1512354371879839,-3,0,-3,-3,-3,-1,4,-1
1512354371879839,-5,-4,0,-2,3,-4,2,0
1512354371894839,-2,0,-1,-1,3,2,-7,-4
1512354371894839,1,-3,-2,-1,-4,-1,6,-1
1512354371902839,0,1,-2,-3,-1,4,-1,-1
1512354371902839,0,2,-1,0,0,-2,-7,0
1512354371917839,2,3,2,3,-2,-2,1,1
1512354371917839,-5,-2,1,-1,1,3,-5,-2
1512354371918839,1,-3,-1,-2,3,-2,1,2
1512354371918839,-2,-1,-1,-3,-3,1,1,-4
1512354371931839,-1,-4,-2,-1,0,-1,2,3
1512354371931839,0,2,1,1,2,-3,0,2
1512354371939839,0,-1,1,-1,-5,-2,-4,-4
1512354371939839,0,2,-1,2,-2,-3,3,2
1512354371954839,-1,1,-1,-3,-3,-7,0,1
1512354371954839,-1,-3,-3,-4,-2,0,-2,-4
1512354371962839,-4,2,1,1,3,3,0,-2
1512354371962839,2,-1,-1,1,-5,-2,1,-3
1512354371977839,0,-2,-1,-3,-2,-5,2,1
1512354371977839,0,0,0,-1,0,-2,-3,-1
1512354371978839,-3,2,0,0,0,3,-4,1
1512354371978839,0,-4,-1,-1,0,-4,0,-1
1512354371991839,1,-1,-1,0,0,3,3,0
1512354371991839,-2,-2,-1,-2,-1,-1,8,2
1512354371999839,1,-1,-2,-1,-4,-4,1,3
1512354371999839,-1,0,-2,0,-1,1,-2,-2
1512354372014839,-1,0,-2,2,2,-2,0,-2
1512354372014839,0,-1,0,2,1,8,-1,1
1512354372022839,1,0,-5,-5,-4,-7,6,2
1512354372022839,-3,-1,1,0,0,3,5,3
1512354372037839,0,-1,-2,-4,-4,0,1,-1
1512354372037839,0,2,-1,-1,0,-2,-5,-1
1512354372038839,0,-3,1,0,-2,-2,3,-1
1512354372038839,2,1,-2,1,0,0,-4,-2
1512354372051839,-2,1,0,-1,-2,1,-2,-3
1512354372051839,-2,-2,4,0,-1,-4,-6,-2
1512354372059839,1,-2,-1,-1,0,3,1,-3
1512354372059839,3,1,2,-1,0,-1,0,1
1512354372074839,-3,-2,-2,3,-3,-1,1,1
1512354372074839,1,-3,-2,0,-3,-5,2,-1
1512354372082839,0,2,2,-2,-1,1,-4,-1
1512354372082839,-2,-1,-1,0,1,-4,-1,1
1512354372097839,3,-2,0,2,2,-2,0,1
1512354372097839,0,-1,-3,-3,0,4,-2,0
1512354372098839,-3,-2,-1,-1,-3,2,-3,0
1512354372098839,-2,-3,-1,-6,0,-1,-1,-3
1512354372111839,-2,2,1,-1,0,0,-5,-6
1512354372111839,0,1,0,1,-3,-3,2,2
1512354372119839,0,1,-3,0,2,0,-4,0
1512354372119839,-5,-2,-3,-2,-1,-2,1,0
1512354372134839,4,-1,-2,4,3,3,1,2
1512354372134839,-1,-1,-1,-4,-2,-3,-1,-1
1512354372142839,-1,-2,-1,-2,-2,-2,-3,-3
1512354372142839,0,1,0,-1,-1,3,-4,-4
1512354372157839,-1,2,4,1,2,1,-4,-2
1512354372157839,0,3,3,0,1,0,-2,-1
1512354372158839,4,-2,3,5,2,0,0,2
1512354372158839,4,-1,-4,-4,-5,2,-4,-1
1512354372171839,-1,-6,0,-3,0,4,3,2
1512354372171839,0,3,2,3,-1,2,-4,2
1512354372179839,1,-2,-7,-5,1,-4,-2,-3
1512354372179839,1,-3,-8,-4,-2,-1,5,0
1512354372194839,1,0,5,-1,-3,-2,3,2
1512354372194839,-3,2,2,3,1,3,-4,-2
1512354372202839,-4,-4,4,-3,2,-4,-1,-3
1512354372202839,-2,-1,-1,2,3,-2,1,-1
1512354372217839,-4,-3,-14,-8,-4,0,3,-4
1512354372217839,2,1,-2,-2,-5,-3,1,-3
1512354372218839,-2,-2,1,1,-3,-2,-1,2
1512354372218839,-1,1,5,1,0,2,1,-1
1512354372231839,1,1,13,3,0,-1,-5,0
1512354372231839,-2,-2,-2,6,4,1,-2,1
1512354372239839,-1,0,2,-1,1,1,1,-1
1512354372239839,-2,-1,-1,-2,-4,-2,-3,1
1512354372254839,-1,-2,-11,-2,-1,1,1,0
1512354372254839,-2,-2,-29,-26,-4,2,-2,-4
1512354372262839,-1,-4,-5,-4,0,-1,2,0
1512354372262839,1,4,14,7,-1,-3,3,1
1512354372276839,1,6,14,8,2,0,2,1
1512354372276839,-3,-5,9,8,3,0,-2,-2
1512354372284839,2,4,-2,3,-2,-1,-1,2
1512354372284839,-1,3,0,1,1,3,-5,-2
1512354372291839,0,-2,-4,-4,-1,-2,-1,-1
1512354372291839,-1,0,-5,-5,-1,-5,3,1
1512354372299839,0,1,-1,0,-4,-4,0,1
1512354372299839,-2,-6,-2,-1,5,4,-7,-5
1512354372314839,-2,-1,-3,-3,-1,-3,-1,-4
1512354372314839,1,2,4,5,0,-2,1,3
1512354372322839,-3,-3,3,2,-3,0,2,-2
1512354372322839,0,0,-3,-1,-1,2,-1,0
1512354372336839,-1,-1,-7,-3,-4,-2,0,-1
1512354372336839,1,2,4,0,-1,-1,0,2
1512354372344839,0,-3,5,1,2,5,-6,-2
1512354372344839,0,-1,-1,-2,1,-1,3,-1
1512354372351839,-2,-2,-8,-10,2,-2,-1,1
1512354372351839,0,-3,-2,-1,-2,-2,1,-3
1512354372359839,-1,0,-5,-1,0,3,3,-2
1512354372359839,1,2,0,-2,-1,-1,1,2
1512354372374839,-2,0,4,4,-1,5,-3,0
1512354372374839,2,-2,8,2,3,3,-1,-1
1512354372382839,1,-1,0,-5,0,0,-2,-1
1512354372382839,1,-1,-1,0,0,0,5,-2
1512354372396839,-1,1,-1,-2,-2,-6,-1,2
1512354372396839,0,2,-3,-1,0,-1,-4,-1
1512354372404839,2,1,-3,-1,-2,-3,-2,-1
1512354372404839,0,-4,-4,-4,-3,3,-3,1
1512354372411839,-4,-1,-2,-4,-2,-1,2,-1
1512354372411839,-2,1,2,2,0,0,1,-1
1512354372419839,-1,1,1,-1,1,0,-5,-1
1512354372419839,-2,0,-3,0,0,-1,2,-1
1512354372435839,-1,-1,-2,-1,-1,-6,1,0
1512354372435839,-1,-3,0,1,0,2,-1,-2
1512354372442839,-3,1,0,3,-2,0,-1,1
1512354372442839,2,0,1,-2,-1,-2,1,1
1512354372456839,-1,1,2,1,-1,3,3,-1
1512354372456839,0,-1,-3,-3,-1,-5,0,-4
1512354372464839,0,-2,-3,-1,1,3,-1,2
1512354372464839,-2,0,4,0,0,-3,3,0
1512354372479839,-1,-4,3,1,0,-1,-6,-5
1512354372479839,1,0,-3,-1,-1,6,3,3
1512354372480839,-2,1,-1,-1,-2,0,1,1
1512354372480839,-3,-3,-3,-5,0,0,-1,1
1512354372494839,1,-3,-3,-5,0,-3,2,-5
1512354372494839,-1,-1,-2,-1,-5,-7,-2,-2
1512354372502839,2,1,2,0,0,-4,3,2
1512354372502839,1,-2,-1,0,0,-1,0,0
1512354372516839,-2,2,-1,2,0,2,-4,0
1512354372516839,-5,-4,4,-1,0,1,-3,-1
1512354372525839,-3,-4,-5,-4,-2,-4,2,-1
1512354372525839,0,3,-2,1,-1,1,1,-2
1512354372539839,0,-3,-2,0,1,2,-1,-1
1512354372539839,-2,-2,1,0,0,1,1,1
1512354372540839,1,1,4,2,1,0,0,-2
1512354372540839,-2,-2,0,0,-3,-2,-1,0
1512354372554839,-4,1,-1,-3,-1,7,-2,-1
1512354372554839,0,-1,-5,-1,-2,-1,-2,0
1512354372562839,2,-4,0,-1,-1,-3,-1,-1
1512354372562839,1,0,-2,-1,-1,-2,-1,0
1512354372576839,-2,0,-3,-2,-3,0,-1,1
1512354372576839,-2,-1,-2,-5,-3,-2,-1,0
1512354372584839,0,2,3,2,0,4,-2,-2
1512354372584839,-4,0,2,3,-2,1,-3,-1
1512354372599839,1,-2,-6,-4,-2,-3,-2,0
1512354372599839,1,-1,-13,-6,3,1,1,-1
1512354372600839,-1,-2,-1,0,1,0,2,-3
1512354372600839,-3,-7,4,1,0,1,0,4
1512354372614839,-1,3,9,4,-1,1,-2,1
1512354372614839,2,-1,2,1,-1,0,-1,-3
1512354372622839,-1,0,-9,-10,0,0,-2,-1
1512354372622839,-1,2,1,-2,-1,2,-3,-3
1512354372636839,-3,-1,0,1,2,2,0,0
1512354372636839,-4,0,4,0,-1,-2,0,2
1512354372645839,0,3,7,6,0,-5,-1,1
1512354372645839,-1,1,2,3,2,1,1,-2
1512354372659839,-1,0,-3,-2,-2,-4,-2,0
1512354372659839,1,-1,-8,-8,0,-4,-2,-2
1512354372660839,-1,1,-5,-6,-1,0,1,-2
1512354372660839,0,0,0,1,3,0,-1,0
1512354372674839,1,1,12,10,2,-3,-3,1
1512354372674839,-4,-4,-4,-1,-1,-4,-5,-2
1512354372682839,0,-4,-9,-6,-4,1,-3,1
1512354372682839,2,2,9,0,1,1,1,-2
1512354372696839,-3,-3,-3,-1,-2,0,2,-2
1512354372696839,0,-4,-10,-10,-5,-6,0,2
1512354372705839,1,5,-12,-5,-5,4,-5,-1
1512354372705839,2,-1,-2,0,1,-1,-3,4
1512354372719839,2,2,7,0,-2,0,-1,-1
1512354372719839,-1,2,15,12,4,3,2,-1
1512354372720839,-3,-1,2,-3,-2,-4,7,1
1512354372720839,0,0,-7,-6,1,4,2,0
1512354372734839,-1,6,1,-6,-2,0,-4,-4
1512354372734839,2,-4,-3,-3,-3,-5,7,0
1512354372742839,-5,-1,3,5,1,3,0,-3
1512354372742839,0,-2,-1,4,0,-7,0,-1
1512354372756839,3,0,3,2,-3,-1,0,1
1512354372756839,2,-1,-10,-4,-1,6,-1,-4
1512354372765839,-2,-6,-7,-3,4,-8,0,2
1512354372765839,0,3,3,2,-6,1,-3,-2
1512354372779839,-7,-8,-8,-2,2,0,1,-1
1512354372779839,-1,4,12,2,5,3,-3,-2
1512354372780839,2,-6,-9,-4,-4,-2,1,-1
1512354372780839,-3,-2,-19,-16,-5,-3,-1,-2
1512354372794839,5,1,-2,-3,-1,0,0,0
1512354372794839,3,7,11,9,3,-4,0,1
1512354372802839,0,1,12,6,0,5,-2,1
1512354372802839,-2,-3,-5,-3,0,0,-3,-2
1512354372816839,1,4,3,-3,-2,-6,-2,-1
1512354372816839,-3,-4,-1,-4,1,6,-3,0
1512354372825839,2,1,2,4,1,-2,2,-1
1512354372825839,-1,-3,-3,1,0,2,1,-2
1512354372840839,-1,-2,-7,1,2,-4,-3,0
1512354372840839,-1,0,2,1,0,1,7,3
1512354372840839,-1,-3,2,-1,4,-3,-3,-2
1512354372840839,0,4,2,1,2,2,0,1
1512354372854839,1,0,-1,-4,-2,2,4,0
1512354372854839,-4,-8,-7,2,1,1,-1,3
1512354372862839,-3,0,-1,-4,-1,1,-3,-1
1512354372862839,1,-2,2,-2,-4,-3,-4,0
1512354372876839,2,1,-1,-1,2,4,-1,1
1512354372876839,0,2,1,3,-1,-1,1,-1
1512354372884839,-1,1,-2,-2,-1,2,-3,-1
1512354372884839,-1,-2,-4,-6,0,-3,-3,0
1512354372899839,0,-4,-1,1,-2,-2,1,-1
1512354372899839,2,1,8,0,-4,-1,-1,-2
1512354372900839,1,1,3,1,-2,3,0,-2
1512354372900839,-3,-2,1,2,-1,-3,-1,-2
1512354372914839,-1,-2,-5,2,3,-1,2,-2
1512354372914839,2,0,-2,-2,-4,-5,1,-1
1512354372922839,-5,-5,-5,2,1,1,-1,-1
1512354372922839,-1,-3,-2,0,1,0,2,3
1512354372936839,1,3,0,-1,-1,1,-2,3
1512354372936839,-4,-5,-4,-5,-2,1,-4,-4
1512354372944839,0,2,3,1,-2,-5,0,-1
1512354372944839,0,6,4,2,0,-2,2,1
1512354372959839,-5,-7,-5,-3,0,1,2,2
1512354372959839,1,0,2,-2,1,0,-1,0
1512354372960839,-2,-6,-6,1,-3,-4,-1,-2
1512354372960839,-3,-2,-6,-4,-2,1,-6,-3
1512354372974839,-1,-1,-4,-4,-3,3,-1,1
1512354372974839,-3,3,1,0,-1,-1,-5,-3
1512354372982839,-1,-2,1,1,3,0,0,-4
1512354372982839,2,-1,1,-1,2,0,-2,1
1512354372996839,-1,-2,7,5,-2,-3,-1,-2
1512354372996839,1,-1,-6,-7,-2,1,-2,-1
1512354373004839,-1,-4,-11,-8,0,0,3,-2
1512354373004839,1,-3,-6,0,-1,-4,2,0
1512354373019839,0,1,5,4,7,2,-1,1
1512354373019839,2,-1,2,-1,-3,-3,2,0
1512354373020839,3,3,1,0,-6,-3,-8,-2
1512354373020839,-1,-2,-1,1,-5,-3,-2,0
1512354373035839,-3,-4,-2,-5,-1,7,1,0
1512354373035839,-3,-3,-1,3,3,-3,-2,-2
1512354373042839,-1,4,6,0,-1,0,1,2
1512354373042839,0,-3,0,1,0,3,-3,0
1512354373056839,-3,-4,-2,0,5,6,3,-2
1512354373056839,-4,1,0,1,0,2,1,1
1512354373064839,2,5,-2,0,1,0,0,2
1512354373064839,-5,-1,-2,0,-2,-1,0,-3
1512354373079839,1,-1,-3,-4,-3,3,-2,-3
1512354373079839,1,-1,-1,-1,2,-2,-1,0
1512354373087839,-2,-2,-2,2,-3,0,-4,-1
1512354373087839,-2,-1,3,-2,0,3,2,-2
1512354373094839,1,0,-3,-2,-1,-8,3,-1
1512354373094839,-1,-1,-4,-2,-3,-9,1,0
1512354373102839,1,-2,4,-2,-3,-9,-5,-2
1512354373102839,-1,3,1,0,-5,-8,-1,1
1512354373116839,-2,-1,-4,0,3,5,-3,-2
1512354373116839,-1,-2,-6,-5,-3,0,-2,-1
1512354373125839,-2,3,4,-1,5,2,0,-2
1512354373125839,0,-2,-2,0,-5,-6,3,-2
1512354373139839,-2,0,-4,-8,-2,-2,-5,-2
1512354373139839,-4,-4,0,3,0,4,-2,0
1512354373140839,1,1,-4,-3,-1,5,-2,2
1512354373140839,-1,-4,1,-2,1,4,4,1
1512354373154839,-3,-1,-2,2,-3,-1,-2,-1
1512354373154839,2,4,4,2,0,2,0,0
1512354373162839,-1,0,1,-2,-4,-4,1,1
1512354373162839,-1,0,-2,-5,2,5,1,-1
1512354373176839,2,1,-3,0,-1,-3,0,0
1512354373176839,0,0,0,0,-2,-4,-2,0
1512354373185839,-3,-2,1,0,-3,2,3,3
1512354373185839,1,2,2,2,0,0,-6,-3
1512354373199839,-2,3,3,3,3,-2,0,-2
1512354373199839,-3,-3,-5,-5,-3,-1,-4,-4
1512354373200839,-1,-1,-7,-5,-2,-3,-1,1
1512354373200839,0,-3,-6,-4,2,-2,3,-2
1512354373214839,-2,0,2,1,-3,0,1,1
1512354373214839,-2,3,6,5,2,0,0,1
1512354373223839,1,1,8,1,1,1,-1,-4
1512354373223839,1,0,-2,1,-4,0,-2,-1
1512354373236839,0,-2,-9,-7,4,1,-1,-2
1512354373236839,-2,3,-6,-3,-2,0,0,-1
1512354373245839,5,2,6,4,0,1,1,-2
1512354373245839,-1,-1,6,1,1,-3,-2,2
1512354373259839,-3,2,2,1,-1,-2,-2,-1
1512354373259839,1,-1,-3,-6,-2,-2,0,-1
1512354373268839,-4,-2,-1,2,2,1,-1,2
1512354373268839,-1,-2,1,-3,0,1,0,-1
1512354373274839,-2,1,6,1,-3,0,-2,2
1512354373274839,3,0,-7,-1,3,-1,0,0
1512354373283839,-2,-1,-6,-1,1,1,-1,0
1512354373283839,0,0,-3,-1,3,-2,-1,-3
1512354373296839,3,2,5,1,-5,-4,-1,-2
1512354373296839,-1,-2,4,2,-1,-2,-2,-1
1512354373305839,4,-5,-8,-7,-5,-2,-1,-2
1512354373305839,-1,1,-8,1,6,7,3,0
1512354373319839,-2,-3,1,1,-2,-5,-3,-3
1512354373319839,0,2,2,-1,-3,-1,0,-2
1512354373328839,-6,-6,3,4,-1,-2,1,2
1512354373328839,-2,-2,-1,1,-4,-1,-1,-3
1512354373334839,2,-3,0,0,-3,-2,-2,-2
1512354373334839,-3,0,0,-3,-1,4,1,3
1512354373343839,-4,-2,-10,-7,0,0,0,-5
1512354373343839,3,0,1,0,-2,-4,-1,-1
1512354373356839,-1,-3,1,1,-2,1,-2,1
1512354373356839,-2,-1,1,-1,-1,-1,-4,-2
1512354373365839,0,2,-4,0,-2,2,0,0
1512354373365839,-5,-2,-8,-2,-2,0,-2,0
1512354373379839,3,1,3,2,3,1,-2,1
1512354373379839,-2,-1,3,1,2,-1,4,0
1512354373388839,-1,-1,6,-1,1,0,-2,0
1512354373388839,0,-2,-7,-7,0,-1,-3,-1
1512354373402839,-3,-6,-6,-3,-7,-5,-4,2
1512354373402839,-1,1,-1,2,-3,1,-4,-3
1512354373409839,-1,0,0,1,0,0,2,-2
1512354373409839,1,-1,6,-5,-5,0,-2,-1
1512354373416839,-4,-5,-7,-5,0,1,-1,-4
1512354373416839,3,0,-1,1,3,0,0,0
1512354373425839,2,2,5,2,-1,5,-5,-1
1512354373425839,0,0,0,-1,-3,-4,-1,0
1512354373439839,-2,-1,-8,-6,-5,-1,1,-1
1512354373439839,-1,-1,1,-2,-1,-1,1,-2
1512354373448839,1,2,-7,2,-1,-1,-1,1
1512354373448839,-1,1,2,2,-1,-2,-1,-1
1512354373463839,-1,3,2,2,2,3,0,0
1512354373463839,-8,-3,-1,0,-1,3,-2,-2
1512354373464839,-1,0,4,1,1,-2,4,0
1512354373464839,-3,1,-2,-2,2,-1,-4,-3
1512354373476839,2,0,1,1,2,2,3,-2
1512354373476839,1,-5,1,3,-3,-1,-2,1
1512354373485839,-1,-2,2,-2,-4,-6,-4,-1
1512354373485839,-1,-1,-2,0,2,3,3,-2
1512354373499839,0,1,-2,-5,-2,-2,-2,0
1512354373499839,0,0,-2,0,1,2,-1,3
1512354373508839,2,-1,-3,0,2,1,0,0
1512354373508839,2,-2,6,2,-1,-1,1,1
1512354373523839,-6,-2,0,-5,-5,-2,1,0
1512354373523839,2,-3,-5,-1,-3,-3,-1,0
1512354373524839,-1,-1,-2,-5,-2,1,2,-1
1512354373524839,-2,3,-1,3,-1,-1,0,1
1512354373545839,1,0,2,-1,1,-1,0,0
1512354373545839,1,0,2,0,4,1,-1,-1
1512354373547839,-6,-1,0,1,-2,-1,0,0
1512354373547839,-2,-3,-1,-1,-1,-2,-1,1
1512354373559839,1,0,-2,1,0,-1,-1,-1
1512354373559839,-2,-2,-1,-2,-4,1,3,0
1512354373568839,2,-1,1,-2,2,0,2,2
1512354373568839,0,-1,5,3,-2,-4,0,0
1512354373583839,-2,-3,-3,-3,0,-2,-3,-1
1512354373583839,-1,0,-6,0,0,-4,-1,-3
1512354373584839,1,3,-2,-4,-1,-3,0,0
1512354373584839,-4,-2,-1,3,-2,-4,1,-2
1512354373596839,2,3,0,-1,-3,-1,3,1
1512354373596839,-1,-4,-3,-3,-4,-1,1,1
1512354373605839,-1,2,1,4,0,0,-3,3
1512354373605839,0,0,1,-2,0,0,0,-1
1512354373619839,-1,-3,1,4,1,-2,0,-1
1512354373619839,2,-3,-9,-3,0,0,-2,-2
1512354373628839,-1,-5,0,1,-1,3,1,0
1512354373628839,2,5,4,1,0,-4,-2,-1
1512354373643839,-4,-4,9,2,1,0,0,-2
1512354373643839,-3,3,-1,-4,0,-2,0,2
1512354373644839,-2,-2,1,0,-2,-2,-1,-1
1512354373644839,-3,-3,-9,-3,-1,0,-4,-1
1512354373656839,2,2,4,1,0,3,-2,0
1512354373656839,-2,-1,0,0,-2,-2,0,-1
1512354373665839,2,-1,-6,-6,-6,-8,0,0
1512354373665839,2,-3,-1,-3,-1,1,0,2
1512354373679839,0,1,-7,-3,-2,-7,-3,-2
1512354373679839,-1,0,7,3,-2,4,-1,-3
1512354373688839,-1,1,-1,2,1,4,0,-3
1512354373688839,-1,-3,-1,-4,-1,2,-2,1
1512354373703839,0,0,-3,1,-1,1,-2,1
1512354373703839,1,3,1,1,-1,-3,0,-2
1512354373704839,-4,-9,-5,-2,0,0,-3,-4
1512354373704839,1,1,0,0,-1,3,1,-1
1512354373716839,2,-5,-2,-3,1,0,1,1
1512354373716839,0,3,8,1,0,6,-2,1
1512354373725839,-2,-6,-3,2,-2,-3,0,-3
1512354373725839,-6,4,-10,-5,1,2,-3,-1
1512354373739839,-3,-4,-3,-2,-4,2,5,2
1512354373739839,1,-3,2,1,-1,0,0,-3
1512354373748839,5,5,7,-3,1,4,-2,0
1512354373748839,-2,-4,-5,-2,-2,1,-4,-4
1512354373763839,0,1,-4,2,-3,-5,-1,-3
1512354373763839,1,-3,-3,-2,2,-1,-4,1
1512354373764839,-2,6,6,0,0,4,-2,0
1512354373764839,-3,-4,3,4,-4,-1,-1,-2
1512354373776839,-3,0,-1,1,3,-1,-4,-1
1512354373776839,0,4,1,1,0,-2,-5,-1
1512354373785839,-5,-10,-6,-1,-6,-5,0,0
1512354373785839,2,0,4,-2,8,8,-1,-1
1512354373799839,-2,-4,-5,-2,-2,-2,-1,0
1512354373799839,1,3,1,-2,2,0,2,-3
1512354373808839,-3,0,4,3,0,-2,-2,-1
1512354373808839,1,5,2,2,1,-3,-2,-3
1512354373823839,1,-2,-7,-3,1,3,-1,1
1512354373823839,0,-4,-4,-5,-3,0,1,3
1512354373824839,2,-1,-8,-7,0,4,0,-2
1512354373824839,0,-5,-10,0,-1,-2,5,2
1512354373836839,0,3,11,6,1,3,-1,2
1512354373836839,-4,-3,3,4,2,2,-1,1
1512354373845839,2,3,11,5,-1,0,0,3
1512354373845839,0,2,4,2,-5,-4,1,0
1512354373859839,-2,-4,-12,-6,0,-1,3,-1
1512354373859839,0,-6,-4,1,-3,0,1,0
1512354373868839,0,-2,-2,-3,-1,-2,2,-1
1512354373868839,-4,1,0,-2,-2,0,-1,0
1512354373883839,-2,-1,4,2,-2,-4,-1,0
1512354373883839,-4,0,1,1,1,4,-1,-2
1512354373884839,-2,2,-4,2,3,0,-4,-2
1512354373884839,1,-2,-2,-3,-4,-6,-1,3
1512354373896839,-1,0,0,-2,1,1,-4,-2
1512354373896839,3,-1,2,-2,-2,-2,0,1
1512354373905839,-1,2,-3,-2,2,1,-1,0
1512354373905839,3,0,4,1,3,2,-1,-2
1512354373919839,-1,-3,-2,-1,0,-2,-1,0
1512354373919839,-1,-3,-8,-3,0,1,0,-2
1512354373928839,0,-3,-2,0,-1,-1,0,-2
1512354373928839,1,0,3,2,0,1,0,-1
1512354373943839,-1,2,1,0,-1,-2,2,3
1512354373943839,0,0,-1,-5,-3,-3,-4,-1
1512354373944839,-1,-2,-3,-3,1,2,3,1
1512354373944839,-4,-4,-5,-1,1,0,-1,-4
1512354373956839,-1,3,5,1,0,2,0,-3
1512354373956839,-4,2,2,-2,-2,-3,0,2
1512354373965839,-1,1,0,-1,-1,-2,-2,-2
1512354373965839,-3,1,4,0,-3,-3,-3,2
1512354373979839,0,-4,-2,-2,-3,3,-3,-1
1512354373979839,0,-3,-8,-5,3,0,1,0
1512354373988839,-2,0,-8,-5,0,3,-2,2
1512354373988839,-2,-1,-3,-3,-2,5,-3,2
1512354374002839,0,2,4,5,2,3,1,-2
1512354374002839,-1,5,9,5,-1,0,0,-4
1512354374009839,-3,-4,-4,-1,-1,-1,-1,-1
1512354374009839,0,0,0,-1,0,-1,-1,-1
1512354374016839,0,-1,1,0,-2,0,-2,1
1512354374016839,-1,-4,-8,-1,-6,-4,0,0
1512354374025839,1,1,3,2,4,-1,-1,0
1512354374025839,0,0,-1,2,2,2,4,0
1512354374039839,2,2,8,1,0,-5,-1,-3
1512354374039839,0,-3,-8,-4,3,3,-3,0
1512354374048839,0,-1,-4,-6,-5,0,0,-2
1512354374048839,1,-1,-5,-5,-2,-2,3,-2
1512354374062839,2,1,2,0,0,-2,-1,-1
1512354374062839,-4,0,8,4,0,-2,-2,-1
1512354374069839,1,0,5,0,0,3,-4,-1
1512354374069839,-5,-2,-9,-9,-1,1,0,-5
1512354374076839,1,-5,-11,-7,-5,1,-2,-2
1512354374076839,-1,0,4,1,-4,-2,-3,3
1512354374085839,-2,2,5,6,1,-6,0,1
1512354374085839,0,-1,11,7,1,1,0,-1
1512354374099839,-3,-1,-9,-6,-3,1,-5,1
1512354374099839,-4,-1,-15,-8,-3,1,2,-2
1512354374108839,1,0,0,2,-2,-3,-1,-1
1512354374108839,-2,3,5,4,-1,-1,1,0
1512354374122839,-2,1,10,5,4,-4,2,-1
1512354374122839,0,-1,3,3,-3,-7,-2,-1
1512354374129839,-1,-3,-5,-3,-3,-1,3,-1
1512354374129839,2,-2,-9,-5,-2,-1,-1,1
1512354374136839,-2,-3,-4,-5,-2,-2,-3,-2
1512354374136839,0,-1,4,1,2,-2,2,1
1512354374145839,-2,2,2,1,-1,3,0,-2
1512354374145839,2,0,1,3,2,-2,-1,1
1512354374159839,0,0,1,-3,0,1,1,-1
1512354374159839,3,3,3,6,4,3,0,1
1512354374168839,-2,-4,-3,-2,-2,-1,1,3
1512354374168839,-2,2,-1,-5,-1,0,-4,-4
1512354374182839,-1,0,-9,-2,-2,0,-1,-4
1512354374182839,0,-1,-3,-1,1,0,3,2
1512354374189839,3,0,4,-2,0,-1,1,-3
1512354374189839,-4,-6,-1,-1,-8,-5,-2,2
1512354374196839,1,3,1,-3,2,-2,1,0
1512354374196839,2,1,-4,-1,0,-1,-4,-3
1512354374205839,-3,2,5,-3,-2,1,-2,-2
1512354374205839,-2,-5,-1,0,0,-5,-3,-2
1512354374219839,-1,-2,-5,-2,-2,2,0,-1
1512354374219839,-2,-1,-3,-5,0,2,-4,-2
1512354374228839,0,6,3,3,-1,-2,1,0
1512354374228839,0,-4,2,3,-2,4,2,1
1512354374242839,-2,2,3,1,0,2,0,0
1512354374242839,-4,-2,2,2,-3,-1,0,0
1512354374249839,-2,-3,-8,-6,1,2,-3,-3
1512354374249839,0,1,-9,-6,0,1,1,1
1512354374256839,-1,-1,-2,2,-2,-3,0,1
1512354374256839,-1,2,4,2,-2,0,1,-2
1512354374265839,1,2,3,3,0,-3,-1,-1
1512354374265839,3,0,4,0,2,2,0,-3
1512354374279839,-3,-4,-2,-5,2,1,-3,3
1512354374279839,-1,-5,-4,-2,-1,-4,0,-2
1512354374288839,0,-3,-10,-7,-6,-1,-6,-1
1512354374288839,-1,7,3,0,0,-1,2,0
1512354374302839,-3,0,0,1,-1,0,0,0
1512354374302839,-1,0,11,6,0,-4,0,1
1512354374309839,-4,-4,-7,-3,-1,-2,0,-1
1512354374309839,-1,1,-7,-4,0,1,-2,0
1512354374316839,2,0,2,-1,-3,1,1,0
1512354374316839,-2,-1,-7,-4,0,0,-2,-1
1512354374325839,0,2,4,3,-1,1,0,2
1512354374325839,0,-2,2,2,-1,-2,-2,2
1512354374339839,-2,0,-6,-1,2,7,-3,-2
1512354374339839,1,-1,-2,0,1,0,-2,-1
1512354374348839,0,2,2,3,2,1,-1,-2
1512354374348839,5,-4,-1,-4,-4,-4,-2,0
1512354374362839,-1,-1,-7,-3,-4,-3,-5,-4
1512354374362839,-1,1,-2,-5,-2,4,1,0
1512354374376839,0,0,5,2,1,-1,3,0
1512354374376839,2,-1,1,4,-1,1,-4,2
1512354374385839,0,1,5,-1,0,-2,3,1
1512354374385839,-4,-4,-4,-4,-2,-1,2,-2
1512354374387839,-3,-4,-2,-2,2,-2,-1,1
1512354374387839,-2,0,-2,-3,-2,0,-2,-3
1512354374399839,0,-3,1,3,1,-2,1,1
1512354374399839,1,-1,1,3,-1,-2,-2,-3
1512354374408839,-1,-6,-1,-1,-7,-1,-4,-1
1512354374408839,0,0,-5,-3,-1,5,-5,1
1512354374422839,2,2,11,2,2,-3,-1,1
1512354374422839,-2,-2,-8,-4,1,3,0,0
1512354374429839,4,2,-3,1,-2,-2,-1,0
1512354374429839,-2,-2,0,4,6,-2,0,-1
1512354374445839,0,0,4,-7,-5,5,2,0
1512354374445839,0,-1,-4,-3,-1,1,1,0
1512354374447839,0,1,-3,-1,4,2,1,0
1512354374447839,-6,3,4,2,2,-1,0,0
1512354374459839,-6,-4,-3,4,-2,-2,-2,-1
1512354374459839,2,0,2,-1,-1,-1,0,-3
1512354374468839,0,-1,-2,-1,0,-1,-1,1
1512354374468839,0,-3,1,1,-2,1,2,0
1512354374482839,-1,1,0,-1,-2,1,-3,0
1512354374482839,1,1,-1,-1,-3,1,-1,2
1512354374489839,-2,1,-4,-4,0,1,0,-2
1512354374489839,-3,-5,-1,-1,-2,0,-1,-1
1512354374505839,-1,0,3,4,-5,-4,-3,-1
1512354374505839,-1,-3,-4,-2,1,2,-2,0
1512354374507839,-1,-1,-1,-1,-1,0,0,-1
1512354374507839,0,-5,-8,-5,-1,-5,-4,-1
1512354374519839,-1,2,-8,-3,1,1,1,-1
1512354374519839,-3,-2,16,9,2,-3,3,-1
1512354374528839,-1,-2,-2,-2,-4,-1,1,4
1512354374528839,2,0,-7,-4,-3,4,0,-1
1512354374542839,-2,-5,-9,-5,0,0,-1,-2
1512354374542839,1,0,1,0,-3,-2,-4,0
1512354374549839,-1,-4,12,6,0,-1,1,-1
1512354374549839,-5,0,2,-1,0,1,-2,-2
1512354374565839,1,0,-5,-1,-3,-3,1,0
1512354374565839,1,0,-2,-1,0,-3,-3,-1
1512354374567839,1,2,-2,0,1,0,-1,-2
1512354374567839,-2,2,1,2,-2,-1,-3,-2
1512354374579839,1,-3,7,4,1,0,-1,-4
1512354374579839,-5,-2,-5,0,-5,1,-1,-1
1512354374588839,-1,-1,4,-3,1,7,0,0
1512354374588839,1,-5,-5,-4,-2,-4,-2,-1
1512354374602839,-2,-1,-6,0,-1,-2,2,2
1512354374602839,-1,-3,-2,-6,-2,0,-1,4
1512354374609839,0,4,-8,-2,1,0,-3,0
1512354374609839,-3,1,6,-2,-2,1,-1,-3
1512354374625839,0,-3,1,1,-2,-2,0,-2
1512354374625839,-1,0,-3,1,2,4,0,-1
1512354374627839,-3,-3,3,0,-1,-3,-1,-1
1512354374627839,2,2,4,2,4,1,2,-1
1512354374639839,0,1,-5,-1,-1,-2,-2,1
1512354374639839,-3,2,-3,1,1,-4,-3,3
1512354374654839,-1,-4,-5,-2,0,-1,-2,-3
1512354374654839,0,-4,-1,4,2,-2,1,2
1512354374662839,-1,1,5,-1,0,4,-1,-1
1512354374662839,1,-1,-2,3,1,1,2,-4
1512354374669839,0,2,-1,0,-2,0,0,2
1512354374669839,0,0,-5,-4,-2,-5,0,0
1512354374685839,-2,-1,0,-1,0,2,-1,-2
1512354374685839,0,-3,4,2,0,-2,0,-2
1512354374687839,-1,0,-5,0,-3,-1,0,-1
1512354374687839,-1,1,1,-1,-1,-2,0,-2
1512354374699839,0,-1,-4,-3,-1,-1,2,2
1512354374699839,-3,-5,-7,-5,-2,-2,-2,-5
1512354374708839,-2,2,-1,-1,-1,-1,0,1
1512354374708839,0,4,12,5,0,1,-3,0
1512354374721839,0,-2,3,2,2,2,-1,-1
1512354374721839,4,1,-2,-5,-2,1,-3,1
1512354374730839,-2,-5,-5,2,0,1,2,-3
1512354374730839,0,-7,-5,1,0,0,0,2
1512354374745839,0,0,-2,-1,-2,-1,-1,-1
1512354374745839,-2,1,4,-1,1,3,2,-3
1512354374747839,-1,2,-3,-1,-4,-2,1,2
1512354374747839,2,3,-1,-7,-3,1,-1,2
1512354374759839,-2,-2,3,3,4,-1,2,-2
1512354374759839,-3,-4,3,1,0,-4,1,0
1512354374768839,2,0,-2,-3,4,2,-3,-4
1512354374768839,0,-3,-2,-2,1,3,-4,-2
1512354374781839,-1,-1,-4,-1,-3,2,-2,-1
1512354374781839,-2,3,3,-3,-3,0,0,3
1512354374790839,-2,-4,3,3,-1,-5,-3,-2
1512354374790839,1,3,-8,-4,-2,-2,-1,-2
1512354374805839,1,0,-3,-9,1,6,1,1
1512354374805839,-4,2,10,7,-4,-4,-5,-4
1512354374807839,-2,-1,4,-1,-1,-1,-2,1
1512354374807839,-1,-5,-11,-5,-4,0,-1,-1
1512354374819839,0,0,-9,-3,-1,0,1,-3
1512354374819839,-1,-2,-6,-4,-1,-2,1,1
1512354374828839,-2,-4,8,-1,-3,5,-1,-1
1512354374828839,0,3,4,3,0,3,1,-1
1512354374841839,-1,-5,-5,-6,-4,-1,-1,2
1512354374841839,-1,-1,-3,-2,1,3,-2,-1
1512354374850839,5,2,1,2,-2,0,-2,0
1512354374850839,0,1,5,6,0,-1,3,1
1512354374865839,-2,0,5,-1,0,-4,-3,-2
1512354374865839,-1,-1,-6,-3,-1,-1,2,-1
1512354374867839,-2,-2,-10,-4,1,1,1,-2
1512354374867839,-2,-3,5,3,4,-1,-1,-2
1512354374879839,0,2,2,-2,-8,-4,0,2
1512354374879839,2,1,-2,-3,-1,-1,-1,0
1512354374888839,2,-1,-1,-3,-1,3,2,-3
1512354374888839,1,-1,2,3,1,5,-2,1
1512354374901839,-3,1,5,2,0,-2,0,-1
1512354374901839,-2,-3,0,-1,-1,-4,-1,1
1512354374910839,0,0,-3,-5,0,0,1,1
1512354374910839,1,-1,-6,0,1,-1,2,-2
1512354374933839,0,0,3,0,-1,0,1,-3
1512354374933839,1,0,0,-4,-1,2,-1,-4
1512354374934839,-4,0,-6,-2,-3,-2,-4,3
1512354374934839,-1,-1,1,-1,0,-3,1,2
1512354374939839,0,-2,-6,-2,-1,-4,-5,-2
1512354374939839,0,3,3,1,0,4,-1,-3
1512354374948839,-2,-2,3,2,0,-4,-5,-3
1512354374948839,-1,2,1,-3,-2,0,-1,-1
1512354374961839,-3,-4,-1,1,-1,3,0,1
1512354374961839,2,1,4,4,1,-1,3,0
1512354374970839,1,0,0,-1,-3,-2,1,-3
1512354374970839,-2,-3,-11,-7,-2,-3,2,-1
1512354374985839,3,1,0,-2,7,0,1,0
1512354374985839,-4,-5,-6,-1,-4,-4,0,0
1512354374987839,-3,-1,7,4,1,2,-1,0
1512354374987839,1,2,-4,-6,-5,-2,-1,0
1512354374999839,-4,1,0,-3,-1,1,1,0
1512354374999839,-1,3,3,2,0,3,-3,0
1512354375008839,2,1,-3,6,1,-2,1,0
1512354375008839,0,0,2,-3,-1,-1,-2,1
1512354375021839,2,0,-7,0,-4,-2,-2,-2
1512354375021839,1,-1,-2,-2,-4,-3,1,-1
1512354375030839,0,4,6,-4,-2,-1,-2,-1
1512354375030839,-4,-3,2,4,1,-2,2,0
1512354375045839,0,-1,-1,-2,-3,-3,-4,-1
1512354375045839,-2,-1,-8,-2,-1,-1,-4,1
1512354375047839,-4,-2,-6,-3,1,-3,3,0
1512354375047839,0,-3,0,-1,-3,1,2,-2
1512354375059839,4,3,0,-1,1,-2,-1,1
1512354375059839,-1,-3,-7,-2,-1,1,2,2
1512354375068839,2,-1,1,-2,-5,0,2,1
1512354375068839,-1,3,8,2,2,1,-3,-2
1512354375081839,-5,-3,4,4,-3,2,1,-3
1512354375081839,1,0,-4,-3,1,-1,-3,0
1512354375090839,-1,-2,-7,-3,-2,-3,0,1
1512354375090839,0,1,0,0,1,-1,-2,-3
1512354375105839,3,5,6,4,3,-3,-2,1
1512354375105839,-3,-4,-4,-3,3,-3,-1,0
1512354375107839,0,-1,1,-4,-3,-2,0,-1
1512354375107839,0,-3,-9,-4,-2,3,0,-1
1512354375119839,-1,2,-1,-1,1,-4,0,0
1512354375119839,-1,1,3,0,-3,3,-3,-2
1512354375128839,-1,0,7,1,1,-1,-4,-2
1512354375128839,-4,-4,-5,0,-2,1,-3,1
1512354375141839,1,-2,-7,-5,-3,-2,-1,-1
1512354375141839,3,2,4,0,0,-2,-1,-3
1512354375150839,-3,-4,4,2,-1,-3,0,0
1512354375150839,-2,2,4,-1,-5,-2,-3,-1
1512354375164839,-1,-7,-17,-6,2,2,1,-1
1512354375164839,-1,-2,-9,-7,0,2,-1,-2
1512354375171839,1,3,-1,-1,1,4,-4,-3
1512354375171839,-2,-3,6,2,2,-2,1,2
1512354375179839,-2,0,7,7,5,3,-2,-1
1512354375179839,3,3,4,5,-4,-5,1,2
1512354375188839,2,-5,-3,-1,0,-3,1,-1
1512354375188839,-2,-3,-6,0,-1,-4,-2,-4
1512354375201839,2,1,10,0,-4,1,-3,-1
1512354375201839,-3,-3,-1,-1,1,0,-2,-2
1512354375210839,1,3,-6,0,-4,-4,2,-1
1512354375210839,2,0,-3,-3,0,-1,1,2
1512354375224839,-2,-2,0,2,0,-1,-4,0
1512354375224839,0,0,4,3,0,8,1,-2
1512354375231839,-1,-4,-1,0,3,2,0,-1
1512354375231839,0,-2,-9,-5,-2,-3,-2,-1
1512354375239839,-2,-3,-1,-4,-3,-1,1,0
1512354375239839,1,-4,-7,-4,0,-1,1,-1
1512354375248839,2,-2,1,-1,2,0,-2,1
1512354375248839,-1,5,6,6,2,1,-4,2
1512354375261839,-3,-3,1,2,-3,1,-1,2
1512354375261839,-1,-4,-5,-3,-4,-4,0,2
1512354375270839,-2,0,-4,-7,-2,4,-1,-3
1512354375270839,1,-2,7,0,1,2,2,-4
1512354375284839,1,-2,2,2,-1,-2,1,0
1512354375284839,-1,-2,-3,0,1,-1,1,1
1512354375291839,-3,3,-2,1,0,-2,-3,1
1512354375291839,-2,1,-1,-2,-2,-2,-3,-1
1512354375308839,-1,-2,-5,1,1,0,0,-2
1512354375308839,2,2,4,-2,-5,0,-4,-2
1512354375309839,0,-3,-5,-1,-3,-2,-1,1
1512354375309839,0,0,1,-1,-1,-2,1,-1
1512354375321839,0,0,-2,-5,-1,-1,1,-1
1512354375321839,1,0,0,-2,2,2,-3,0
1512354375330839,1,0,-1,-1,0,-1,-2,-2
1512354375330839,-2,1,3,3,-2,0,0,0
1512354375344839,-2,-1,4,5,-1,0,0,0
1512354375344839,-3,1,3,0,-4,-1,-1,0
1512354375351839,-4,-3,-12,-9,-1,8,2,0
1512354375351839,-3,-4,-12,-3,-1,-9,0,-2
1512354375368839,-3,-2,2,-2,2,-1,0,-2
1512354375368839,2,2,12,6,0,-1,0,-2
1512354375369839,0,0,10,6,2,-4,0,0
1512354375369839,4,-1,1,-5,-3,1,3,1
1512354375381839,-2,-4,-20,-6,-6,0,-1,1
1512354375381839,-1,-1,-2,-2,2,-2,-2,0
1512354375390839,0,0,1,2,0,1,0,0
1512354375390839,1,3,12,3,1,-2,-1,-1
1512354375404839,3,3,13,7,6,4,0,0
1512354375404839,-1,-3,-14,-7,-6,-1,-3,1
1512354375411839,0,-2,-13,-5,-2,-3,-1,-3
1512354375411839,-2,-4,-6,-1,0,1,2,3
1512354375428839,0,0,0,-1,-2,0,-2,0
1512354375428839,-1,-1,6,2,2,-1,0,-2
1512354375429839,1,3,11,6,0,2,-1,2
1512354375429839,-1,-2,3,0,-2,2,-5,-2
1512354375441839,2,-1,-1,-2,0,-2,-1,-3
1512354375441839,0,-4,-12,-6,-1,-2,2,-1
1512354375450839,0,0,-7,-5,-1,-3,0,0
1512354375450839,2,-2,-1,-2,1,3,-1,0
1512354375464839,-3,2,4,3,-1,-4,-4,-1
1512354375464839,-3,1,4,4,-4,-3,2,-1
1512354375471839,-2,-5,-1,-1,0,-5,-1,-1
1512354375471839,0,0,-4,0,-3,-1,-2,-3
1512354375488839,1,0,2,-1,2,3,1,1
1512354375488839,-2,0,6,3,-3,0,1,1
1512354375489839,-2,-6,-7,-3,0,1,1,-1
1512354375489839,-1,-1,-2,-3,-3,1,0,-2
1512354375501839,-2,-1,-6,-6,-1,-1,-2,-1
1512354375501839,-1,0,0,1,1,3,-5,0
1512354375510839,1,-1,11,3,-5,-2,-2,1
1512354375510839,-1,2,2,5,4,2,3,1
1512354375524839,-2,-3,-6,-4,-4,-2,-1,-1
1512354375524839,2,0,-6,-3,-1,1,-3,-3
1512354375531839,0,3,3,-2,-1,-1,0,-1
1512354375531839,0,-1,3,0,-1,1,1,0
1512354375548839,1,0,2,-3,-4,1,-2,-2
1512354375548839,2,-3,-7,-2,2,-5,1,-2
1512354375549839,0,1,-8,-1,-2,0,-3,-2
1512354375549839,0,1,-2,-1,-2,3,0,-1
1512354375561839,-1,1,8,2,0,-3,2,-1
1512354375561839,0,-2,6,1,0,1,-1,-2
1512354375570839,-3,-2,-7,-5,-2,1,-1,-1
1512354375570839,-3,-1,-8,-1,0,6,0,0
1512354375584839,1,-1,-3,2,-1,3,2,0
1512354375584839,-4,0,-3,-1,0,2,0,4
1512354375591839,-1,-2,4,3,-2,1,2,0
1512354375591839,2,-1,6,-2,0,-1,-2,-2
1512354375608839,0,-2,-5,-2,-3,5,0,-1
1512354375608839,2,-2,-10,-1,-4,-1,0,-2
1512354375609839,-2,1,3,-3,4,0,-1,1
1512354375609839,-3,-2,1,0,2,-2,-2,1
1512354375621839,0,-2,3,-1,1,3,-1,0
1512354375621839,-4,2,2,0,2,0,3,-2
1512354375630839,0,-2,-3,-2,1,-2,-1,-4
1512354375630839,-2,-3,-5,-2,-1,-2,1,2
1512354375644839,-1,3,1,3,-1,-4,-2,-2
1512354375644839,-2,-3,-4,1,-1,0,-1,2
1512354375651839,2,2,6,-3,-2,2,0,0
1512354375651839,-3,-4,-5,-6,-1,-4,-3,-3
1512354375668839,-3,-4,-10,-3,-2,-2,0,-2
1512354375668839,0,1,8,1,4,2,1,1
1512354375669839,-2,-5,-3,1,-1,-4,-1,1
1512354375669839,3,0,1,-1,0,-2,-2,0
1512354375681839,-2,0,-6,-2,0,-3,-2,0
1512354375681839,-1,0,-2,-4,-6,-4,1,-2
1512354375690839,3,4,3,3,0,0,-1,1
1512354375690839,0,-2,3,-1,-3,-4,0,0
1512354375704839,0,-1,-2,0,3,0,2,1
1512354375704839,-1,-1,-5,-6,-2,-4,-2,-4
1512354375711839,0,-1,1,3,2,-2,-1,0
1512354375711839,-2,-1,2,5,0,-2,1,-2
1512354375728839,2,2,0,-2,-3,2,-4,-1
1512354375728839,-3,-2,-1,-1,-2,-4,-2,0
1512354375729839,-3,-2,-4,-1,-1,-2,0,-3
1512354375729839,-1,3,2,-1,2,2,0,-2
1512354375741839,1,0,2,-3,-4,-2,-3,1
1512354375741839,0,2,0,1,6,5,0,2
1512354375750839,-1,0,5,4,-7,-3,-2,-3
1512354375750839,-2,-3,-17,-7,1,-4,-2,-1
1512354375764839,-3,-1,-4,-5,0,0,3,0
1512354375764839,1,1,0,-4,-2,2,-3,0
1512354375771839,-3,-1,1,-1,3,4,-3,-4
1512354375771839,-1,2,6,4,-3,-5,-1,2
1512354375788839,-3,1,7,4,-2,-2,-1,-2
1512354375788839,1,-1,-1,3,0,1,1,0
1512354375789839,-1,-1,1,1,0,1,0,-1
1512354375789839,-1,-2,-6,-1,-3,4,2,-1
1512354375801839,-1,-2,-8,-4,-3,-2,1,0
1512354375801839,-1,-1,4,-3,-1,-2,0,0
1512354375810839,1,1,-1,0,0,-2,-2,0
1512354375810839,-2,6,4,-1,0,0,-2,0
1512354375824839,-1,-2,3,5,-2,-2,2,0
1512354375824839,-4,-4,-7,-4,4,0,1,0
1512354375831839,-3,-3,-12,-10,-4,2,0,0
1512354375831839,0,0,-6,-3,-1,-6,-3,-2
1512354375848839,-2,-3,7,0,3,-1,-2,-1
1512354375848839,0,-1,-1,4,-1,-2,-1,-2
1512354375849839,1,-1,5,1,3,1,0,0
1512354375849839,1,-2,3,0,2,1,-2,0
1512354375861839,1,2,-1,-3,1,3,-1,-2
1512354375861839,1,-2,2,3,-1,0,-1,0
1512354375870839,-2,1,-8,-2,-2,-4,-1,0
1512354375870839,-3,-1,-7,-5,-3,3,0,0
1512354375884839,1,-1,-2,-3,0,-3,1,-1
1512354375884839,0,-2,4,0,-5,2,-4,-1
1512354375891839,4,5,0,-2,-1,0,4,-1
1512354375891839,-3,-1,5,2,0,-5,7,-1
1512354375908839,-1,0,-1,1,2,0,-3,0
1512354375908839,0,2,6,2,-1,-2,-4,-2
1512354375909839,-1,-6,-6,-5,-4,0,0,1
1512354375909839,3,-4,-5,-5,0,3,-2,-3
1512354375921839,0,2,-4,-2,-3,2,-2,0
1512354375921839,-1,-4,3,-2,0,-4,-2,-3
1512354375930839,-2,1,2,3,1,-1,0,1
1512354375930839,-2,-2,-2,-5,-1,3,-1,0
1512354375944839,0,-1,0,1,1,-1,0,-1
1512354375944839,1,3,4,2,0,0,-2,1
1512354375951839,-2,-2,1,4,0,3,3,-2
1512354375951839,0,-3,-8,-4,-5,-2,-3,-3
1512354375968839,-2,-2,8,2,-3,-3,-6,2
1512354375968839,1,1,-5,-5,-3,-3,2,0
1512354375969839,-1,0,4,1,3,4,1,-2
1512354375969839,2,-5,-4,1,0,1,-2,-1
1512354375981839,1,-1,-2,-5,-5,2,0,-2
1512354375981839,0,0,4,3,3,2,1,0
1512354375990839,-1,0,-4,-2,-2,1,-6,-1
1512354375990839,0,3,2,2,3,1,-2,2
1512354376004839,0,-1,-3,1,0,0,1,-3
1512354376004839,1,-2,0,-3,1,3,-2,-2
1512354376011839,0,0,-2,-2,-3,-3,1,0
1512354376011839,-3,-3,1,0,0,2,0,-1
1512354376028839,1,0,-3,0,0,-4,1,-4
1512354376028839,0,-2,-1,0,-3,-4,-2,0
1512354376029839,3,-3,0,1,-2,0,-1,-3
1512354376029839,-2,1,1,-2,-2,-2,0,2
1512354376041839,0,-1,1,1,1,1,1,2
1512354376041839,-3,-2,2,3,-1,-2,0,-1
1512354376050839,6,0,-1,0,-2,0,-1,2
1512354376050839,-3,-6,-5,-4,1,-1,0,-4
1512354376064839,0,-2,-6,-4,-3,-2,3,0
1512354376064839,2,0,1,4,1,3,-1,0
1512354376071839,-4,-3,6,3,2,-8,0,-1
1512354376071839,-2,0,2,1,-3,-1,-2,-2
1512354376087839,0,-3,-5,-3,-2,1,-2,-2
1512354376087839,-2,-2,-11,-9,-1,-4,1,-1
1512354376094839,0,0,3,-1,1,0,1,-1
1512354376094839,-2,4,6,3,-2,-1,2,-1
1512354376101839,-3,-4,-4,-2,-1,2,1,-2
1512354376101839,1,2,2,-1,-1,-3,-1,0
1512354376110839,-1,-4,2,0,4,-2,-5,-2
1512354376110839,2,-1,0,-2,1,-3,0,0
1512354376124839,-2,-3,-4,2,5,0,-2,-1
1512354376124839,0,1,-1,-3,-5,1,2,1
1512354376131839,-1,4,2,-1,-2,1,3,0
1512354376131839,1,2,-3,1,-4,-3,-1,-3
1512354376147839,0,-2,0,-1,0,-5,1,4
1512354376147839,0,-3,-4,1,0,2,0,1
1512354376154839,1,-1,-3,-1,-1,-3,-2,1
1512354376154839,0,1,0,-2,2,1,-3,-1
1512354376170839,2,4,4,-1,-3,-7,1,3
1512354376170839,-2,3,0,-1,1,-1,1,0
1512354376172839,0,1,-4,-6,-1,0,2,0
1512354376172839,0,-5,-2,-3,0,-4,2,1
1512354376184839,0,-1,2,-1,-1,-4,-2,-4
1512354376184839,-3,-4,-8,-3,-2,-2,-1,-2
1512354376191839,1,-1,-7,-3,-1,2,-3,-1
1512354376191839,-4,0,9,2,0,-1,-2,-1
1512354376207839,-2,1,4,2,1,2,0,2
1512354376207839,1,0,-3,-2,-1,-2,-3,-2
1512354376214839,-2,-1,0,3,-2,-3,1,-1
1512354376214839,-2,-2,-5,0,1,5,0,0
1512354376230839,0,-2,-3,-4,0,2,-2,0
1512354376230839,-1,0,-4,-1,-2,-2,-1,-1
1512354376232839,1,1,-1,2,0,0,4,-2
1512354376232839,1,4,10,3,4,6,0,-2
1512354376244839,0,-1,-3,0,-2,-3,-6,-5
1512354376244839,-1,-1,0,-2,0,2,-2,3
1512354376251839,0,1,1,0,1,-2,0,-1
1512354376251839,0,0,3,3,0,3,0,3
1512354376267839,-4,0,1,1,0,-1,-1,-1
1512354376267839,1,-2,-2,-1,6,5,0,0
1512354376274839,-5,0,-5,-7,-3,-2,-1,0
1512354376274839,3,3,-5,-3,-3,-4,-2,3
1512354376290839,1,-1,5,-4,-2,3,0,0
1512354376290839,1,-2,-1,-1,-2,-4,0,-1
1512354376292839,1,-2,2,-2,0,1,-1,-4
1512354376292839,4,-3,-2,0,-1,-1,-1,0
1512354376304839,0,0,-7,0,-1,-3,-1,-2
1512354376304839,-1,2,8,1,1,1,-3,0
1512354376319839,3,0,4,-1,1,2,-3,1
1512354376319839,2,-2,1,1,-2,-3,-2,0
1512354376327839,-1,2,6,1,1,3,-2,0
1512354376327839,-1,-2,-2,0,-1,-4,1,-3
1512354376334839,-2,-4,-12,-4,-5,-6,1,1
1512354376334839,1,2,-2,-1,-1,0,1,-1
1512354376350839,-4,0,3,1,1,4,-2,-2
1512354376350839,-3,-3,1,-4,-1,-5,0,-2
1512354376352839,-3,-1,0,-2,-3,3,-1,-1
1512354376352839,-1,0,-11,-9,0,1,-1,-1
1512354376364839,0,0,-2,4,-1,-4,-1,0
1512354376364839,-1,1,6,2,-3,0,-1,-1
1512354376371839,-2,-3,-4,-2,2,0,-6,-3
1512354376371839,1,-4,-1,1,0,-1,0,-2
1512354376387839,2,-1,-4,0,-2,-1,0,2
1512354376387839,-1,-1,5,2,0,1,0,2
1512354376394839,2,4,7,3,0,-2,1,-1
1512354376394839,0,0,0,-1,-3,4,-2,-2
1512354376410839,1,-3,-7,-10,-2,-1,-4,-3
1512354376410839,-5,1,-5,1,1,2,1,-1
1512354376412839,-1,-2,-1,1,-3,-5,-1,2
1512354376412839,-2,2,4,3,5,-2,-1,4
1512354376424839,-4,-3,1,3,1,1,0,-1
1512354376424839,1,-1,-6,-1,0,-2,-2,0
1512354376431839,0,-1,-5,-2,1,1,-1,-2
1512354376431839,-4,-2,2,3,-3,0,0,0
1512354376447839,1,-1,1,-1,2,4,1,-2
1512354376447839,0,1,0,-2,-1,1,0,-2
1512354376454839,1,1,6,0,2,2,-1,-1
1512354376454839,-1,-1,-3,-2,-1,-1,-3,-5
1512354376470839,1,1,-8,-7,-4,-5,-1,2
1512354376470839,3,-2,-5,-4,-4,-1,1,1
1512354376472839,1,1,4,4,3,4,1,1
1512354376472839,-1,3,6,-1,-1,3,2,1
1512354376484839,-2,4,8,7,3,-1,2,-3
1512354376484839,-2,-3,-1,-4,-5,0,-1,-4
1512354376491839,-1,-5,-27,-13,-5,-3,0,1
1512354376491839,2,1,5,3,1,-1,1,0
1512354376507839,-1,-5,1,-1,0,-2,2,-1
1512354376507839,-1,2,5,4,-2,1,-4,-1
1512354376514839,-2,-3,2,-4,-1,-3,1,-1
1512354376514839,-4,-1,-4,-2,-2,-4,-3,1
1512354376530839,-3,0,3,2,0,3,2,-2
1512354376530839,1,-1,-2,-3,0,0,0,-3
1512354376532839,1,-3,3,2,2,2,-3,0
1512354376532839,0,-1,-4,-1,0,-6,1,-3
1512354376544839,-3,0,0,-2,-3,-1,-4,0
1512354376544839,-1,-3,-4,-3,0,-1,1,1
1512354376553839,-1,1,0,4,1,0,-1,-4
1512354376553839,0,-3,-3,-6,0,-2,0,1
1512354376567839,-2,-2,-1,1,1,-1,-1,-1
1512354376567839,2,2,1,4,1,-3,-1,-1
1512354376574839,-1,-2,-2,-6,-1,0,3,3
1512354376574839,0,-1,1,2,-2,4,-3,-2
1512354376590839,1,0,-3,-1,-2,-4,1,0
1512354376590839,-1,2,0,0,0,0,-1,-4
1512354376592839,0,1,7,1,-3,-2,1,2
1512354376592839,-5,-2,-3,-2,-2,0,-1,-1
1512354376604839,0,0,-2,-2,-3,-3,-1,2
1512354376604839,-2,-2,-1,3,3,-1,0,-1
1512354376613839,1,-6,0,1,2,3,-2,0
1512354376613839,0,-1,-1,-5,-1,3,2,-4
1512354376627839,1,1,1,0,0,4,-4,-3
1512354376627839,0,1,-1,-3,-5,-3,-1,-1
1512354376634839,-2,1,-3,0,-3,-1,0,-3
1512354376634839,0,-2,-3,0,1,1,-1,0
1512354376650839,1,0,-2,-2,1,-2,0,-1
1512354376650839,-1,2,0,2,2,0,0,3
1512354376652839,1,-1,1,-1,-1,-2,-4,-2
1512354376652839,-3,-1,-1,0,-1,2,-1,-3
1512354376664839,-1,-4,-3,-2,3,2,-2,3
1512354376664839,1,0,-1,-3,-1,0,-1,2
1512354376673839,-2,0,1,0,-3,1,-3,-3
1512354376673839,1,2,0,-2,-3,-6,5,-1
1512354376687839,1,-3,0,-2,-5,0,-3,-2
1512354376687839,-1,-4,-1,-2,-4,-2,-3,-1
1512354376694839,1,-1,2,-1,1,-2,0,-1
1512354376694839,-4,-1,-2,-5,-1,-12,6,-2
1512354376710839,0,0,-1,1,-2,-2,0,0
1512354376710839,0,1,-2,-5,4,2,-10,0
1512354376712839,0,0,0,1,1,4,-2,-2
1512354376712839,-2,-3,-1,2,0,6,1,1
1512354376732839,-1,-1,-1,-2,-2,-2,-1,-4
1512354376732839,0,1,0,2,-1,2,-1,-4
1512354376734839,-2,-2,-3,-1,1,-9,4,-1
1512354376734839,-1,-3,0,0,0,5,-5,-1
1512354376747839,-1,3,-2,1,0,7,-1,1
1512354376747839,-1,0,-2,2,-1,0,0,-1
1512354376754839,0,1,-1,-1,-2,3,-5,-1
1512354376754839,3,-1,-4,-2,1,-1,-2,-2
1512354376770839,-2,-2,-2,-3,2,-2,3,-1
1512354376770839,0,-2,2,0,0,-4,3,1
1512354376772839,-3,0,0,3,1,2,-2,0
1512354376772839,-1,0,0,2,-1,0,-5,2
1512354376784839,0,1,-1,0,4,2,-3,-1
1512354376784839,0,0,0,0,2,3,0,-2
1512354376793839,-5,2,-2,-3,0,-1,-1,-3
1512354376793839,-2,-2,0,-2,-4,-4,5,-2
1512354376807839,-2,-1,0,-1,-3,-1,0,0
1512354376807839,1,-2,-3,-4,0,1,2,0
1512354376814839,1,0,2,1,-4,0,-3,0
1512354376814839,0,-2,-1,-1,-1,1,-2,-1
1512354376830839,-1,-1,-1,-3,-5,-3,1,-1
1512354376830839,2,1,1,-1,-2,2,-3,-3
1512354376832839,-8,-3,2,2,2,-3,-5,-2
1512354376832839,2,-1,-3,-2,-2,0,-3,-1
1512354376844839,0,2,1,1,-1,4,-7,-2
1512354376844839,-1,-1,-2,-1,-3,6,4,2
1512354376853839,-1,-2,-2,-2,-1,2,0,0
1512354376853839,2,0,-1,-4,-3,-1,0,0
1512354376867839,-2,-3,0,3,2,-3,4,-2
1512354376867839,-3,-2,-1,-3,-2,1,-2,0
1512354376875839,-1,-1,1,-3,-1,0,-3,-1
1512354376875839,-3,2,-2,0,4,5,-6,-1
1512354376890839,2,1,-1,-2,-2,0,2,1
1512354376890839,-2,-1,0,-1,1,0,1,-1
1512354376892839,0,1,0,-3,-3,-2,4,1
1512354376892839,-1,-1,3,2,1,0,-2,-1
1512354376904839,-2,-3,-2,0,-3,-2,-2,0
1512354376904839,-4,0,-2,2,0,1,-3,-2
1512354376913839,0,1,-1,-2,-3,2,1,1
1512354376913839,-1,-2,-1,-2,2,1,-1,0
1512354376927839,-2,-1,-2,-3,-2,-7,1,-1
1512354376927839,1,1,-2,1,0,-3,0,1
1512354376934839,2,-2,0,-3,-3,-4,-2,-1
1512354376934839,-3,-4,-4,-2,-1,0,-2,0
1512354376949839,1,0,1,0,1,2,5,3
1512354376949839,2,-2,2,1,-1,-1,-6,-1
1512354376956839,-1,5,-2,0,-1,-1,-1,-2
1512354376956839,1,-1,1,2,-2,-1,1,1
1512354376964839,-3,-2,-1,-3,0,-4,-3,0
1512354376964839,2,1,2,0,0,-4,0,-3
1512354376973839,1,-2,-1,4,3,2,2,2
1512354376973839,-4,0,1,-2,1,-1,-4,-1
1512354376987839,2,0,-4,-3,-2,0,-8,-3
1512354376987839,-3,-2,0,-2,-5,3,6,2
1512354376994839,0,-1,3,-4,-4,-2,0,1
1512354376994839,2,1,0,3,0,-8,7,3
1512354377009839,0,-2,0,0,-2,-2,-2,-2
1512354377009839,0,-1,-2,-5,-1,2,-6,2
1512354377016839,-1,0,-5,1,-1,3,4,0
1512354377016839,-3,-1,0,0,-1,1,1,-3
1512354377024839,-1,-2,-3,-7,-4,0,11,2
1512354377024839,2,0,-1,-1,0,-8,-2,0
1512354377033839,-2,-5,-1,-2,0,1,5,-1
1512354377033839,3,1,3,3,-1,0,0,3
1512354377047839,-2,2,-3,-1,0,0,-1,0
1512354377047839,0,2,1,5,7,1,3,-1
1512354377054839,0,-3,-2,-5,-2,-3,-6,-6
1512354377054839,0,-1,-1,-3,-2,-2,-1,1
1512354377069839,-1,0,3,1,0,2,-4,0
1512354377069839,-1,-3,-1,-4,-3,-3,2,0
1512354377076839,-3,-1,1,2,4,-2,-3,-1
1512354377076839,-2,-1,-2,-1,-2,2,-3,0
1512354377084839,2,-3,0,-1,0,2,-1,-1
1512354377084839,0,-1,-2,-3,-1,-1,-1,-1
1512354377093839,-1,0,-1,-1,-6,0,0,1
1512354377093839,0,1,-3,-3,-3,2,-2,-3
1512354377107839,-3,0,0,1,1,0,0,1
1512354377107839,-2,-1,-2,-2,-1,1,-1,-2
1512354377114839,4,-2,0,0,1,3,1,-2
1512354377114839,0,-3,0,1,0,-4,1,-3
1512354377129839,1,-1,0,2,-1,1,0,-4
1512354377129839,-3,-1,0,-1,0,4,0,4
1512354377136839,1,3,-2,3,2,-2,-1,2
1512354377136839,1,0,0,-2,3,4,-9,-4
1512354377152839,0,2,1,2,3,1,1,0
1512354377152839,-3,-5,3,0,-5,-4,1,0
1512354377154839,-1,1,1,1,-2,0,-1,0
1512354377154839,-1,-3,-2,-1,-1,0,-1,-2
1512354377167839,0,-2,1,-4,1,-2,-3,1
1512354377167839,0,0,-3,1,0,0,-2,0
1512354377174839,-2,1,-2,-1,1,-2,-3,-1
1512354377174839,-1,0,-1,2,-1,-1,-3,0
1512354377189839,-2,-1,1,-1,0,0,2,0
1512354377189839,-1,-4,-2,-4,-2,1,-3,-3
1512354377196839,0,1,0,-3,-1,2,-2,-2
1512354377196839,0,0,-3,-3,-3,1,1,0
1512354377212839,-2,0,0,0,1,-2,-2,-1
1512354377212839,-1,1,3,4,-1,-4,0,-5
1512354377214839,-2,-2,1,1,3,1,-1,1
1512354377214839,-1,0,1,-3,-2,0,-2,2
1512354377227839,-5,-2,-3,-3,-1,-2,-2,0
1512354377227839,-1,-1,-3,0,1,-1,-1,0
1512354377234839,-1,-4,-5,-3,-3,-3,3,-1
1512354377234839,-4,-5,1,-1,0,0,-2,-1
1512354377249839,0,-3,-2,-1,0,6,-2,0
1512354377249839,1,3,3,-1,-1,0,4,4
1512354377256839,1,-5,3,-1,-2,-2,-2,1
1512354377256839,2,2,-3,-3,-2,-4,2,0
1512354377272839,2,0,-1,4,-2,-1,-5,0
1512354377272839,1,2,3,1,0,0,3,1
1512354377274839,-6,-8,-2,3,4,6,1,-2
1512354377274839,-3,-2,-4,-4,0,-5,2,2
1512354377287839,1,-1,-3,-4,-3,-1,-1,-3
1512354377287839,0,0,1,3,0,0,-5,-3
1512354377294839,-1,1,1,0,2,2,-10,-3
1512354377294839,-1,1,1,-1,-2,0,-3,-1
1512354377309839,0,1,-4,-4,1,1,-2,-1
1512354377309839,-1,-2,-3,-4,-2,3,-2,0
1512354377316839,2,3,1,-3,-1,-2,0,1
1512354377316839,-1,-2,0,-3,2,-1,0,-4
1512354377332839,-3,-1,1,2,1,-3,0,0
1512354377332839,3,3,-2,-3,-1,0,-1,0
1512354377334839,0,4,3,6,0,3,4,0
1512354377334839,-2,-4,-3,-6,-4,3,-4,-4
1512354377347839,-1,2,9,6,3,-2,3,3
1512354377347839,-1,0,5,5,1,-1,1,-1
1512354377354839,-1,-6,-13,-8,-3,-1,-2,-2
1512354377354839,2,-1,-5,-8,-1,-3,3,0
1512354377369839,0,-1,4,2,-3,-1,1,-1
1512354377369839,0,0,1,1,3,-2,-2,1
1512354377376839,-5,0,-1,2,-5,-1,-4,0
1512354377376839,0,1,0,3,1,-1,-3,1
1512354377392839,-1,-2,-3,-5,-3,2,-1,-1
1512354377392839,0,-1,0,-2,2,1,1,1
1512354377394839,0,2,0,-2,1,0,0,0
1512354377394839,0,1,3,4,-1,-1,1,-3
1512354377407839,0,-1,-1,-2,-2,4,-3,-1
1512354377407839,-5,-2,-6,-6,-4,-1,-2,-6
1512354377414839,-1,3,-2,-3,-1,-4,4,6
1512354377414839,-2,-1,5,2,1,1,0,-3
1512354377429839,-2,-1,-1,-1,0,-1,2,-1
1512354377429839,-3,-2,-4,0,1,0,-1,1
1512354377436839,4,0,-1,-2,0,-2,-1,-2
1512354377436839,0,2,-2,-1,0,0,0,0
1512354377452839,1,0,-3,0,-1,-3,5,-1
1512354377452839,-2,-1,-4,-3,-3,0,2,0
1512354377454839,-2,-2,0,-2,3,1,-5,-3
1512354377454839,-1,0,4,2,-2,4,-7,3
1512354377466839,-1,-1,-1,-2,-2,0,-5,-1
1512354377466839,-2,-3,-2,-2,-4,-2,-2,0
1512354377475839,2,3,4,1,1,-3,-2,0
1512354377475839,-4,-6,-6,-4,-3,-7,1,-3
1512354377489839,0,4,0,-1,0,3,-2,1
1512354377489839,-3,-2,0,0,1,0,-3,-3
1512354377496839,-3,-5,-2,-3,-1,-1,1,-1
1512354377496839,0,-1,-1,-1,0,2,3,0
1512354377512839,-4,0,-1,-1,3,1,-3,-1
1512354377512839,2,0,-2,-2,-2,-3,1,0
1512354377514839,0,3,-1,4,-1,-2,0,-1
1512354377514839,0,-1,0,0,0,3,0,1
1512354377526839,0,-1,-2,-4,-2,-1,-1,0
1512354377526839,-2,1,1,-2,1,0,1,-6
1512354377535839,-3,-1,2,2,2,-3,0,-1
1512354377535839,-1,-1,-4,0,1,-6,1,2
1512354377549839,1,0,-1,3,0,2,-2,1
1512354377549839,0,3,1,1,4,7,-2,1
1512354377556839,-1,-5,0,-1,-6,0,3,-1
1512354377556839,2,1,-3,-1,-1,-1,1,1
1512354377572839,-1,-1,0,0,1,-2,0,-1
1512354377572839,2,-1,0,-5,-2,1,1,-2
1512354377574839,-1,1,-1,1,1,-3,-1,-1
1512354377574839,-4,2,-1,1,0,9,-5,2
1512354377586839,1,0,-1,-3,-3,-7,-3,1
1512354377586839,-2,-3,-2,2,-1,-3,-2,0
1512354377595839,3,0,1,-2,-2,-2,1,-1
1512354377595839,-1,-1,2,0,-1,-5,2,-2
1512354377609839,-4,-2,-3,1,0,-1,-1,-1
1512354377609839,-4,1,-4,-3,-2,-4,-2,4
1512354377616839,-1,0,2,0,-1,-1,-3,-1
1512354377616839,-1,-1,-1,-1,1,3,1,0
1512354377632839,-2,-3,0,-2,-3,5,-1,-1
1512354377632839,1,2,0,1,1,0,0,2
1512354377634839,0,1,1,1,0,1,2,-2
1512354377634839,0,-3,0,0,-2,3,-2,-1
1512354377646839,1,0,1,-1,1,-6,2,-4
1512354377646839,2,-1,-6,-5,-2,1,0,0
1512354377655839,-1,0,-6,-1,2,3,0,-2
1512354377655839,1,1,3,-4,-4,-6,-5,0
1512354377669839,-2,1,3,2,1,2,0,-1
1512354377669839,2,-2,4,3,-1,0,0,0
1512354377676839,1,0,-2,2,5,-3,-1,-2
1512354377676839,-3,-3,-4,-1,-2,-5,-1,-2
1512354377692839,2,-3,-3,0,2,3,-2,0
1512354377692839,0,0,4,-6,-3,0,1,-2
1512354377694839,1,-1,3,1,-2,2,-2,2
1512354377694839,1,2,1,1,-1,-2,1,0
1512354377706839,-1,0,-1,-2,-2,0,-1,1
1512354377706839,-1,-3,-6,-5,-1,-1,0,-1
1512354377715839,-1,-1,0,3,3,-3,4,-2
1512354377715839,-1,-1,0,-3,-2,-1,0,-1
1512354377729839,0,0,0,-1,-5,-3,-2,0
1512354377729839,1,1,6,5,4,-3,2,-1
1512354377736839,-3,-2,0,-6,-5,4,-3,2
1512354377736839,-3,-3,-10,-1,-1,0,-4,-2
1512354377752839,3,1,-5,-2,6,0,1,3
1512354377752839,0,-1,5,1,-3,0,-2,-3
1512354377754839,-2,0,0,0,-4,0,1,-3
1512354377754839,-1,0,1,-2,-2,3,1,0
1512354377766839,-3,-3,-3,-1,-1,-1,2,-1
1512354377766839,0,-3,-5,-2,1,0,-2,-2
1512354377775839,0,0,1,-3,-1,0,-2,0
1512354377775839,-1,-1,9,4,-3,-3,0,-2
1512354377789839,0,-3,-3,-3,-2,0,-2,0
1512354377789839,-3,2,-2,0,0,-3,-4,1
1512354377796839,-1,0,3,4,-4,5,1,2
1512354377796839,2,2,0,-5,2,0,-1,-1
1512354377812839,1,1,5,2,2,-4,4,0
1512354377812839,-3,-6,-20,-11,-7,-3,-1,-1
1512354377814839,-1,2,-6,-5,7,-4,-1,-2
1512354377814839,-3,1,8,10,3,1,2,0
1512354377826839,0,2,7,3,-4,1,0,2
1512354377826839,-1,-1,9,8,0,-2,2,-3
1512354377835839,-1,-5,0,0,-2,-1,-2,-2
1512354377835839,2,2,-4,0,1,-1,0,1
1512354377849839,-4,-1,-1,3,2,0,-11,-5
1512354377849839,0,-2,-13,-5,-1,1,1,1
1512354377856839,2,-2,-1,-12,-5,-3,5,2
1512354377856839,-5,3,12,7,6,4,-4,0
1512354377872839,0,0,16,10,7,1,-3,-4
1512354377872839,-3,-6,-19,-9,-3,5,-5,-1
1512354377874839,-4,-9,-41,-25,-6,-5,2,1
1512354377874839,4,-1,-5,-5,-4,-4,4,-1
1512354377886839,0,4,9,2,-2,-6,5,-1
1512354377886839,-1,5,24,10,-1,-4,2,3
1512354377895839,-2,-1,6,7,-5,-6,-9,-6
1512354377895839,-2,-2,5,2,8,3,-8,-6
1512354377909839,1,2,-9,6,1,-2,-8,-4
1512354377909839,3,0,3,-4,3,11,5,1
1512354377916839,-2,1,-1,6,3,-3,-5,-3
1512354377916839,-1,-1,-1,-4,-6,0,0,-3
1512354377932839,-3,-5,-4,-3,-2,-1,5,2
1512354377932839,-2,-3,-16,-6,-2,-9,-2,-2
1512354377934839,1,4,9,0,2,5,-3,0
1512354377934839,-4,-2,6,1,0,2,-1,1
1512354377946839,-2,-3,-5,-4,-5,1,3,1
1512354377946839,-1,-2,-3,-1,-5,-5,-3,-7
1512354377955839,1,0,-4,-2,1,-1,0,3
1512354377955839,3,-1,-6,-1,-1,-5,4,2
1512354377969839,-1,-4,-4,-9,-3,0,-4,3
1512354377969839,0,1,3,2,-1,-3,1,3
1512354377976839,-2,-1,7,7,0,4,1,-1
1512354377976839,1,-1,-4,-5,1,-3,3,-1
1512354377992839,1,1,-2,-3,-2,-2,-3,-2
1512354377992839,0,0,10,6,5,3,1,3
1512354378007839,1,2,5,3,0,3,-1,1
1512354378007839,-1,-3,-1,2,-5,-4,-2,2
1512354378008839,-2,0,-10,-9,-1,0,-2,0
1512354378008839,-1,-1,4,2,0,-2,2,-3
1512354378015839,0,1,3,-4,-9,-6,-1,-1
1512354378015839,1,0,-11,2,7,-1,-1,0
1512354378030839,-1,-3,-6,-5,-6,-2,0,-3
1512354378030839,-1,1,1,0,5,1,2,-2
1512354378036839,1,-2,4,0,3,2,-3,-3
1512354378036839,3,0,10,1,-5,0,0,-3
1512354378052839,-1,-2,0,1,3,1,-1,0
1512354378052839,0,2,-6,3,-4,-1,-4,1
1512354378059839,-1,-9,0,-1,-2,2,-1,1
1512354378059839,-5,0,-13,-6,-2,-1,-4,0
1512354378066839,1,-2,-5,-3,2,3,5,1
1512354378066839,0,-1,3,-2,-3,-1,-3,-2
1512354378075839,0,-2,6,0,1,-1,1,-3
1512354378075839,-1,1,-6,1,0,1,-2,-2
1512354378089839,0,0,4,-1,-2,1,-2,2
1512354378089839,-1,0,-11,-3,-2,-2,-3,-1
1512354378096839,2,6,3,2,3,-3,0,2
1512354378096839,-3,-2,9,2,0,3,-1,-1
1512354378112839,-2,-1,0,-3,-3,0,1,0
1512354378112839,-1,0,2,1,2,2,-2,-2
1512354378119839,-2,1,-2,0,2,-3,2,1
1512354378119839,0,-6,-5,-5,-4,3,4,-2
1512354378135839,-2,-3,-10,-7,-5,-4,-1,0
1512354378135839,0,1,1,0,2,0,0,-1
1512354378137839,-1,-4,0,2,-1,-5,-5,2
1512354378137839,-2,0,3,2,-1,1,0,-1
1512354378149839,0,0,5,2,0,-4,-1,0
1512354378149839,-1,-4,-5,-4,-1,2,-3,-2
1512354378158839,0,-3,-5,1,-1,-2,2,-1
1512354378158839,2,2,0,-1,-1,1,0,-1
1512354378172839,5,0,11,5,2,0,-1,-4
1512354378172839,-3,-2,-4,-2,-2,-2,-2,2
1512354378179839,-4,-1,-10,-5,0,0,-1,-2
1512354378179839,-1,-3,-3,-2,-4,-4,0,1
1512354378195839,-3,-1,-3,3,-1,3,-1,0
1512354378195839,4,3,15,4,2,0,1,2
1512354378197839,-4,0,5,2,-2,0,2,-5
1512354378197839,0,-7,-18,-7,-3,1,0,-3
1512354378209839,-3,2,-2,-5,4,1,-2,1
1512354378209839,-1,-2,2,2,-3,-5,0,-1
1512354378216839,2,1,3,1,0,6,-1,0
1512354378216839,-3,0,2,0,3,-4,-3,0
