timestamp,emg1,emg2,emg3,emg4,emg5,emg6,emg7,emg8
1511885898918047,-1,0,2,-3,-1,2,0,0
1511885898918047,-1,0,5,8,0,1,-1,-1
1511885898919049,-1,-3,-3,-3,-1,0,0,0
1511885898919049,0,0,-1,-2,0,0,-1,0
1511885898925231,-2,1,17,-11,-3,3,-2,-1
1511885898925231,1,-1,-20,13,1,4,-1,1
1511885898927200,1,0,11,0,-1,-2,-2,-1
1511885898927200,-3,1,-3,3,-1,4,0,-1
1511885898929205,1,-3,4,-2,0,3,-1,-2
1511885898929205,-1,-4,-11,-19,-2,5,-1,0
1511885898940227,-1,0,8,6,-2,10,-2,-1
1511885898940227,-1,-2,-7,2,-1,12,-3,-2
1511885898952260,-2,-1,7,4,-1,7,-3,-3
1511885898952260,-1,-2,2,-4,-1,6,-2,-2
1511885898960282,-1,0,-3,0,0,0,-1,0
1511885898960282,0,1,17,-4,-3,-5,-1,1
1511885898969309,0,0,-26,1,-2,-3,-1,2
1511885898969309,-2,1,6,-6,-4,-8,0,0
1511885898989710,1,-1,-5,6,1,-4,0,0
1511885898989710,1,0,-3,-3,0,-7,0,1
1511885898990620,4,4,5,9,1,-8,0,-1
1511885898990620,-6,-6,-23,-10,-1,-9,1,-1
1511885899036744,4,6,-2,-3,-5,-5,1,2
1511885899036744,0,-2,-8,-4,-2,-6,1,1
1511885899037751,-7,-4,21,0,-2,-5,0,-1
1511885899037751,-1,1,-20,-5,-2,-7,1,0
1511885899037751,-3,-6,11,6,2,-5,0,-3
1511885899037751,-2,-4,-23,-7,-1,-7,0,-2
1511885899042784,2,5,9,3,-2,-5,1,2
1511885899042784,7,5,-7,-5,2,-3,2,1
1511885899048801,-8,-7,10,0,-1,0,1,1
1511885899048801,-5,-7,-11,-7,-1,-5,-3,-2
1511885899057802,0,-2,17,12,2,-4,0,0
1511885899057802,2,4,8,-1,-3,-3,0,0
1511885899070834,5,6,-4,7,1,-3,1,2
1511885899070834,5,6,7,-2,0,0,0,0
1511885899079857,-4,-6,-13,-4,-1,-5,-1,-1
1511885899079857,-2,-1,4,2,0,-3,-1,-2
1511885899085877,7,31,1,-3,1,-1,1,3
1511885899085877,-3,-25,2,4,0,-1,0,2
1511885899108936,-10,-25,-29,-7,-1,-1,-1,-2
1511885899108936,-2,7,4,0,-1,-3,-1,-3
1511885899109958,-1,4,5,-11,-2,-2,-1,-3
1511885899109958,7,12,17,23,6,-2,1,1
1511885899124208,2,14,-22,-7,-7,2,0,3
1511885899124208,-7,-34,-15,-8,-2,-4,-1,-4
1511885899131111,-8,-10,-1,-9,-2,-5,-2,-5
1511885899131111,4,12,16,3,-3,0,-2,-3
1511885899147155,3,3,13,2,2,-3,0,2
1511885899147155,-1,5,-4,1,1,3,1,3
1511885899148155,2,-1,-6,2,1,2,-2,2
1511885899148155,-2,-1,9,-1,-1,1,-2,-3
1511885899169210,-1,0,-7,2,2,1,-2,-2
1511885899169210,-1,6,2,-4,0,1,-1,1
1511885899170213,1,-6,2,5,1,1,0,-1
1511885899170213,-3,-1,-3,-2,-1,0,-1,2
1511885899192271,9,14,2,0,0,1,-1,1
1511885899192271,-7,-11,2,-6,-1,-2,-2,-2
1511885899192271,-11,-14,-6,-1,-4,-3,-3,-5
1511885899192271,-2,5,11,6,-3,-3,1,-2
1511885899207418,10,20,4,-3,-1,1,-1,0
1511885899207418,-3,-19,9,14,-1,-2,-1,-2
1511885899207418,0,-10,-27,-3,-2,0,-2,-2
1511885899207418,-6,-13,-25,-16,-3,-3,0,1
1511885899229550,-2,0,1,0,2,-1,-6,-5
1511885899229550,5,12,21,10,0,5,2,2
1511885899230374,4,17,8,5,4,3,1,2
1511885899230374,0,-3,6,1,-7,1,-1,-1
1511885899243413,-8,-18,-4,-3,-3,-5,0,-3
1511885899243413,-3,3,-3,-5,-3,-6,-6,-3
1511885899251429,1,0,15,7,-2,0,-1,0
1511885899251429,6,15,2,-1,2,9,0,2
1511885899266494,-1,-10,-8,-3,2,-1,3,0
1511885899266494,-4,-2,4,-6,0,2,0,-1
1511885899267475,1,-3,-10,-3,-3,-5,-2,-1
1511885899267475,-2,-9,-50,-15,1,-3,-1,-2
1511885899289572,-1,2,3,-12,-3,-3,0,0
1511885899289572,11,22,13,18,0,-3,0,2
1511885899290533,4,1,17,0,3,21,-1,2
1511885899290533,-22,-34,6,4,-2,-13,-2,-5
1511885899311592,-4,-8,-6,2,-3,10,-3,-8
1511885899311592,-2,-7,-19,-11,-6,-5,-5,-1
1511885899312591,8,9,18,-4,7,-5,-2,0
1511885899312591,5,34,75,14,-3,19,4,3
1511885899326779,-6,-31,-73,-32,-18,-18,-4,1
1511885899326779,-2,3,39,3,3,-9,-8,-2
1511885899327782,-2,-6,-19,-9,-22,0,-11,-3
1511885899327782,3,7,27,13,4,4,13,1
1511885899348838,-1,4,10,7,-3,13,1,-1
1511885899348838,-1,2,-21,-8,-6,-2,-6,-1
1511885899349864,-1,-7,11,11,-2,7,18,1
1511885899349864,-1,1,-13,-26,25,-5,-7,-2
1511885899371926,3,6,-19,15,-16,-31,-8,-1
1511885899371926,0,-2,-13,3,43,18,0,-1
1511885899372929,-8,-7,13,-1,0,-8,11,1
1511885899372929,0,5,18,3,-16,1,-5,0
1511885899386969,0,-3,-56,-11,10,8,7,1
1511885899386969,0,-2,17,-2,-11,-16,-8,-1
1511885899387972,8,12,22,7,0,13,-3,2
1511885899387972,-6,-16,-52,-9,4,-13,-5,-6
1511885899408999,-11,-5,7,11,-2,-22,-8,-5
1511885899408999,-4,-3,8,3,-27,14,10,-1
1511885899410000,3,-1,2,-2,28,7,3,2
1511885899410000,2,2,-27,0,-11,5,2,-2
1511885899432059,7,12,38,7,7,1,-8,2
1511885899432059,-2,0,-3,-5,0,9,1,7
1511885899433089,-4,-6,-32,-3,-7,-27,-24,-4
1511885899433089,2,0,19,2,0,10,10,0
1511885899447126,-2,4,19,0,8,18,41,-1
1511885899447126,-13,-3,-15,-9,-7,-8,2,-36
1511885899448101,-10,-7,3,12,-7,-10,-15,19
1511885899448101,21,1,-11,3,0,-9,-3,9
1511885899469185,5,6,8,-6,1,11,-3,3
1511885899469185,4,-2,15,9,-2,-3,6,16
1511885899470161,-6,0,-11,-6,-3,3,4,-11
1511885899470161,-7,4,-1,-1,4,-3,-11,-8
1511885899492220,-4,-4,35,5,2,-5,-4,-4
1511885899492220,-1,-8,-45,-19,5,1,-7,-6
1511885899492220,-5,-4,-15,4,-6,-5,2,-8
1511885899492220,2,8,50,13,-4,-1,5,3
1511885899507286,6,3,-1,-11,-13,4,-9,0
1511885899507286,0,-4,-13,-2,-20,-6,4,3
1511885899507286,2,-1,-1,-8,19,-1,2,0
1511885899507286,1,1,23,0,-10,0,-2,1
1511885899529317,-1,1,-2,2,1,3,2,0
1511885899529317,2,-5,-37,4,-7,-8,-9,4
1511885899530320,2,1,4,-2,-9,-4,0,-1
1511885899530320,-3,-6,-6,-1,0,3,0,-2
1511885899551407,-3,-1,3,1,5,-10,-12,0
1511885899551407,2,5,20,-8,1,15,4,4
1511885899552408,0,-4,-7,3,0,-4,0,-3
1511885899552408,-4,-2,-17,0,2,-6,-7,-2
1511885899566443,2,1,7,-1,-1,-2,0,0
1511885899566443,2,4,19,4,9,1,2,6
1511885899567419,-1,-3,3,-7,-6,0,2,-3
1511885899567419,-2,-4,-39,-6,-3,-6,-3,-2
1511885899589508,0,3,10,1,1,3,0,1
1511885899589508,-1,2,17,14,5,-2,1,-2
1511885899590510,-2,-4,-18,-10,-2,0,0,-1
1511885899590510,-1,0,-2,-3,3,-1,2,1
1511885899611563,-1,0,1,0,-2,2,0,-2
1511885899611563,0,0,4,3,4,0,-2,-1
1511885899612541,-1,1,3,-2,-6,1,1,0
1511885899612541,-2,-5,-22,-9,3,0,-1,-2
1511885899626577,-2,-2,10,3,1,-3,-3,-1
1511885899626577,0,0,2,9,4,-3,0,-1
1511885899627579,1,0,6,1,-3,-1,1,0
1511885899627579,-2,0,-2,-9,-2,-3,-2,-1
1511885899649664,0,-1,1,7,2,1,2,1
1511885899649664,0,-1,0,-15,-2,0,0,1
1511885899649664,-1,0,13,5,0,2,-1,-2
1511885899649664,-1,-2,-27,-11,0,-8,-4,-1
1511885899671723,-2,-2,3,7,-3,0,-2,0
1511885899671723,0,1,3,-2,-1,-3,0,-1
1511885899672699,0,0,-3,-2,0,-4,0,-1
1511885899672699,0,0,7,0,-6,-2,1,-1
1511885899686764,0,0,2,-2,4,7,-1,0
1511885899686764,-3,-2,-7,-8,-6,-7,-4,-2
1511885899687739,0,0,-3,8,0,5,14,1
1511885899687739,-1,2,6,5,-2,1,-1,1
1511885899708796,1,-3,-4,-1,3,0,-1,-2
1511885899708796,-1,1,0,-2,-1,-3,-1,-1
1511885899709797,-2,-3,-8,-20,-5,-2,-4,-2
1511885899709797,0,1,9,19,0,1,2,0
1511885899731883,-1,0,-2,-4,0,-2,-2,1
1511885899731883,1,0,-1,3,4,0,0,-1
1511885899732859,-1,-3,-6,0,-4,3,-2,-2
1511885899732859,-2,-1,1,-4,-7,-5,-3,-2
1511885899746920,0,-1,-1,-2,-1,-1,-7,-1
1511885899746920,1,-2,-1,3,0,2,9,0
1511885899747922,0,-1,-1,2,1,-4,-3,-1
1511885899747922,0,1,0,-4,2,10,-1,-1
1511885899770961,-2,-1,-1,0,-4,-2,2,-2
1511885899770961,0,-2,-1,-3,-2,0,-3,1
1511885899771990,2,0,1,4,-2,1,-1,-2
1511885899771990,0,0,0,0,1,-2,1,1
1511885899792045,1,0,2,1,14,12,2,0
1511885899792045,1,-1,-1,-2,-1,0,4,0
1511885899799035,-1,1,-1,-1,-1,-6,-7,-1
1511885899799035,-2,-1,0,-1,-2,-9,-8,0
1511885899807083,-1,0,0,-3,-3,6,7,-1
1511885899807083,0,0,-2,2,3,5,-6,-3
1511885899808087,0,1,0,2,3,-2,0,0
1511885899808087,1,-2,2,-1,1,-2,-2,-1
1511885899829114,1,-1,1,-2,-5,-15,-3,-2
1511885899829114,-1,-2,-2,0,3,-6,2,-1
1511885899830129,-2,-1,-4,-4,-1,15,13,-2
1511885899830129,-2,0,0,-3,-20,-19,-28,2
1511885899852177,-1,-1,0,-1,-1,-10,4,1
1511885899852177,-1,0,0,1,-2,-5,-20,-4
1511885899852177,0,0,-3,1,4,4,0,-1
1511885899852177,0,0,1,1,9,5,9,-2
1511885899866214,0,0,-5,-5,-12,-7,-12,-2
1511885899866214,-1,0,2,3,6,13,14,-1
1511885899873233,-1,-2,-4,-3,3,-8,1,1
1511885899873233,-2,-1,0,-1,-5,3,2,0
1511885899889275,0,-1,-1,2,2,3,-17,1
1511885899889275,0,-1,-2,2,5,1,29,2
1511885899890278,0,-1,1,0,7,-9,-7,-2
1511885899890278,-1,-3,0,0,5,10,11,1
1511885899912337,-1,0,0,-3,-6,6,-7,-3
1511885899912337,2,-1,1,-2,-3,-3,-19,2
1511885899912337,0,-1,-2,1,-2,-1,-8,0
1511885899912337,0,-1,-3,-3,-10,-22,-11,-2
1511885899926374,-1,-1,0,-1,7,-2,6,1
1511885899926374,-2,0,0,-1,-1,-2,-5,-1
1511885899933392,0,2,0,-1,-7,-5,-3,-2
1511885899933392,-1,-1,0,2,7,12,3,-2
1511885899949435,-1,0,0,-1,-1,-2,5,-1
1511885899949435,1,-1,-1,0,-5,-8,-4,-2
1511885899950438,2,-1,-1,-2,1,8,1,1
1511885899950438,-1,1,0,-4,-13,-12,6,-1
1511885899971493,-1,-1,0,1,0,9,3,-1
1511885899971493,-1,-3,-1,-3,-2,2,-1,-1
1511885899972495,-2,-1,-1,-1,-4,-1,-3,-1
1511885899972495,1,0,-1,3,16,18,3,-1
1511885899986533,-1,1,1,-1,-27,-27,-20,-2
1511885899986533,-2,1,-2,-1,2,-7,38,-2
1511885899993552,-1,-4,-1,-1,15,-6,-13,-1
1511885899993552,-1,-2,1,-2,-25,-3,10,-2
1511885900016614,-1,0,-2,-1,7,11,-11,2
1511885900016614,1,0,1,2,-2,0,16,0
1511885900024635,-1,-1,0,-1,4,-5,7,1
1511885900024635,0,0,0,-1,4,2,11,1
1511885900031654,0,0,-1,-4,0,-19,-4,-2
1511885900031654,0,-1,1,-1,-6,-3,-20,-1
1511885900032656,-2,-1,-2,-2,-4,-5,4,-1
1511885900032656,0,0,-1,-1,-1,0,-12,-2
1511885900054715,0,1,-1,1,-1,2,13,-2
1511885900054715,2,1,0,-1,6,2,-11,-1
1511885900054715,-1,-1,-1,-1,-9,-9,4,-1
1511885900054715,1,-1,-2,-1,2,1,2,0
1511885900077776,-2,-4,-4,-3,-2,-14,-11,-2
1511885900077776,-1,-2,-2,-3,4,-9,-3,-1
1511885900078779,1,1,0,1,-9,8,1,0
1511885900078779,0,0,-1,-1,4,-4,-8,0
1511885900091814,0,0,-1,4,10,14,13,2
1511885900091814,-2,-1,-1,-1,-2,-11,-13,-1
1511885900092816,0,-1,-1,-2,-4,0,18,0
1511885900092816,0,-1,0,0,7,2,-3,-2
1511885900113872,-1,-2,-3,-6,0,-1,8,-1
1511885900113872,-2,-2,0,3,-2,7,-4,0
1511885900114875,-1,1,1,6,5,1,-7,-2
1511885900114875,-1,0,-2,-1,1,3,3,-1
1511885900137937,1,1,6,3,11,29,5,2
1511885900137937,-1,0,-6,-6,-12,1,-9,-2
1511885900137937,-1,-1,-2,-3,-1,1,-3,1
1511885900137937,1,1,-1,-1,5,-2,1,0
1511885900151974,1,0,-2,0,0,-4,-14,-1
1511885900151974,-1,-3,1,-1,12,14,30,0
1511885900152976,-3,-2,-1,-2,-28,-14,-11,-1
1511885900152976,0,-3,-1,-1,0,-1,1,-1
1511885900174032,-6,-2,0,0,6,20,8,0
1511885900174032,4,1,-2,0,-6,-5,-10,-1
1511885900175035,0,-1,-2,-3,3,0,2,0
1511885900175035,-1,0,0,1,16,7,1,0
1511885900197094,-1,-2,-1,-2,-23,-21,0,-2
1511885900197094,-2,1,1,1,1,-5,-4,0
1511885900198096,1,-2,-1,-4,4,1,-5,0
1511885900198096,-1,0,-1,2,-5,-11,-8,-2
1511885900212133,0,-1,-1,0,4,-4,7,-1
1511885900212133,-1,-1,1,-2,0,5,-6,0
1511885900212133,0,-1,0,-3,0,-3,15,0
1511885900212133,-1,-1,-1,-1,-4,4,-13,0
1511885900234192,-2,-1,-2,2,-6,2,3,-1
1511885900234192,0,0,0,-2,4,-10,10,1
1511885900235195,-4,0,-1,-2,-18,-40,-4,-4
1511885900235195,0,-1,-4,0,16,14,-2,-1
1511885900257280,2,0,-1,-1,-26,-14,-4,0
1511885900257280,-1,-3,0,0,5,0,-18,-2
1511885900258263,-6,0,-3,-2,0,-1,0,-1
1511885900258263,1,1,3,-6,1,-5,0,-2
1511885900271317,-3,-2,-3,4,11,2,-5,-2
1511885900271317,3,0,2,6,-14,-3,0,-1
1511885900272317,1,-2,-2,0,5,13,-6,-1
1511885900272317,-3,-1,0,-1,-11,-15,1,0
1511885900294353,2,2,1,-4,16,12,10,0
1511885900294353,-7,-1,-1,-3,-8,-1,9,0
1511885900295355,1,1,2,2,6,7,-15,3
1511885900295355,-2,-2,-2,-1,-5,-5,-8,0
1511885900317412,5,-3,0,0,3,6,39,2
1511885900317412,-10,-3,-4,-4,-19,-30,-63,-6
1511885900318415,9,2,-1,1,1,20,7,-5
1511885900318415,-4,0,-1,1,-2,-12,3,1
1511885900340597,-4,0,-1,2,3,9,-4,-1
1511885900340597,11,1,-2,-2,1,5,-3,6
1511885900340597,-9,-3,-2,-4,1,-7,4,-9
1511885900340597,-2,0,-4,0,-3,5,1,-2
1511885900354515,-3,1,-1,0,-1,-18,-11,-1
1511885900354515,11,2,1,1,4,6,14,-1
1511885900355517,-5,-1,-1,-2,2,-3,-5,3
1511885900355517,3,-1,0,-1,-1,6,3,2
1511885900377688,-1,0,-1,-2,1,-12,5,-2
1511885900377688,-1,-2,1,-3,3,14,11,0
1511885900378577,4,0,0,-2,2,-4,2,1
1511885900378577,-3,0,2,5,-1,5,-7,-2
1511885900391613,0,1,2,0,1,-1,-1,1
1511885900391613,-3,0,1,-1,0,-2,3,-3
1511885900392613,-3,0,-2,2,4,5,-1,1
1511885900392613,1,-2,-6,-3,-1,0,1,0
1511885900414711,-3,-2,0,-1,-4,-7,6,0
1511885900414711,-6,-2,-1,-2,1,1,3,-2
1511885900414711,-2,1,4,-3,4,9,-7,-1
1511885900414711,1,-1,4,6,-4,2,5,0
1511885900437736,-1,-3,-4,-1,5,-1,-8,0
1511885900437736,-5,1,16,7,-14,-5,-4,-2
1511885900438740,4,0,5,1,15,1,-1,0
1511885900438740,-1,-9,-48,-9,-27,-3,0,0
1511885900451795,1,0,-7,-14,-18,-16,-11,-1
1511885900451795,2,2,7,-11,12,20,18,1
1511885900452773,1,0,7,20,6,-8,-23,3
1511885900452773,1,4,21,4,12,2,9,-1
1511885900474949,-2,-1,-3,0,-38,-13,-18,-4
1511885900474949,2,-1,-1,-5,14,-4,14,1
1511885900474949,-2,1,-10,-5,-10,-5,-20,0
1511885900474949,-3,-1,5,-2,1,1,4,-4
1511885900497893,-3,-4,-1,0,-26,-11,-5,0
1511885900497893,-2,1,3,0,64,21,-1,-1
1511885900498896,0,-3,-6,-3,0,-4,-3,-1
1511885900498896,-4,-1,-2,0,1,-6,-10,-1
1511885900511087,-1,2,9,2,0,2,-2,-1
1511885900511087,-3,-2,-11,-1,-31,-12,11,-2
1511885900519103,1,-3,-3,-2,-6,16,31,2
1511885900519103,-3,-1,5,-3,12,-3,-31,0
1511885900534165,1,2,4,1,10,13,8,1
1511885900534165,-3,-3,-14,4,29,-9,-10,0
1511885900535116,0,-1,2,-3,-2,-12,8,-3
1511885900535116,-1,2,2,-4,-19,8,4,0
1511885900557177,1,-1,-2,3,21,-29,-15,0
1511885900557177,-2,-1,-5,2,-25,-12,-29,2
1511885900558176,-1,-1,3,-4,5,-4,56,-1
1511885900558176,2,-1,-1,1,27,18,9,0
1511885900571215,-1,-1,-7,-7,-69,3,-21,-4
1511885900571215,-1,-2,-5,-5,87,13,15,-4
1511885900579421,-1,-1,-2,-5,-88,-17,-15,1
1511885900579421,-1,-4,2,0,-39,-15,6,-2
1511885900594457,2,1,0,-5,34,15,8,3
1511885900594457,-3,-3,11,3,-51,-17,-4,-1
1511885900595276,0,2,-7,11,41,36,-10,1
1511885900595276,0,0,11,0,-6,1,7,-3
1511885900617337,0,-2,-9,-1,16,-5,0,0
1511885900617337,0,0,-9,-3,-13,17,14,0
1511885900618336,-1,-2,1,-2,19,9,-23,1
1511885900618336,-1,-1,1,1,-4,-10,4,-1
1511885900631373,-4,-2,5,5,18,16,4,-1
1511885900631373,7,0,0,-1,-14,-6,8,1
1511885900639536,0,-1,-3,-1,-7,-1,4,-1
1511885900639536,-1,0,1,-2,16,-9,-7,0
1511885900654563,-2,-2,-1,2,31,4,3,-1
1511885900654563,-3,-3,-8,-4,-39,-15,-10,-3
1511885900655437,-1,1,3,-6,-48,-20,-13,-2
1511885900655437,3,2,-2,5,74,15,1,0
1511885900677542,0,0,-7,1,11,7,5,0
1511885900677542,-2,-1,0,2,-1,5,-3,-2
1511885900678497,-1,-2,-2,-3,-59,-5,1,-3
1511885900678497,-1,1,2,-3,56,6,-1,0
1511885900691583,2,-1,-5,-7,-34,-3,5,-1
1511885900691583,0,-1,7,8,7,0,-1,0
1511885900699615,0,0,0,-2,-3,2,-3,-1
1511885900699615,-1,-4,-5,-3,-23,-2,5,-1
1511885900714596,-1,0,2,-1,9,-1,-13,-1
1511885900714596,-2,-1,-3,-4,-15,-18,-17,-2
1511885900715600,-2,-2,0,0,5,1,-1,-2
1511885900715600,0,0,-2,0,-34,-9,5,0
1511885900737657,1,0,-1,-2,-46,-2,-3,1
1511885900737657,-1,-2,-1,2,61,4,-7,2
1511885900738657,-2,-2,-1,-2,4,24,6,-1
1511885900738657,0,1,-3,-4,-19,10,-5,0
1511885900751691,-2,-1,2,2,-18,-7,7,1
1511885900751691,-4,-1,-3,1,-32,-24,-6,-3
1511885900759836,2,0,0,3,21,2,-3,0
1511885900759836,0,0,1,1,4,-6,2,1
1511885900774877,-1,-3,3,-5,2,-10,-2,-2
1511885900774877,-1,-1,-11,-4,-13,19,2,1
1511885900774877,-2,-2,7,3,80,-17,-5,-2
1511885900774877,0,2,1,-6,-105,-6,-1,-1
1511885900798043,0,2,2,7,39,16,6,0
1511885900798043,0,-1,2,-4,9,7,9,-1
1511885900798043,-3,-3,-5,-3,-14,-7,-9,-3
1511885900798043,0,-3,-3,2,10,7,9,-2
1511885900810975,1,1,3,1,42,6,-35,2
1511885900810975,-1,0,-1,-5,-46,2,7,-1
1511885900819998,0,0,-4,-2,4,-1,4,1
1511885900819998,0,-2,-1,0,20,-8,-1,0
1511885900834034,-3,-1,-1,-3,-14,-17,7,-1
1511885900834034,2,2,1,3,8,14,0,0
1511885900835038,0,3,2,-1,-8,3,1,2
1511885900835038,-5,-3,-3,-5,9,-29,-9,-3
1511885900858185,5,0,1,1,-5,8,9,-1
1511885900858185,-1,0,1,-1,3,6,-6,-2
1511885900858185,-1,-1,-9,-8,20,8,6,-1
1511885900858185,1,-1,4,8,-74,-7,-4,2
1511885900880157,-4,-4,-5,3,84,17,3,-1
1511885900880157,-2,2,3,0,44,-24,0,1
1511885900881228,2,1,3,-5,-64,-2,-1,3
1511885900881228,0,0,2,-9,-15,-9,-3,-1
1511885900894304,-3,0,-7,8,-1,2,1,-1
1511885900894304,-1,1,2,3,-21,-5,2,-1
1511885900895197,-1,-4,-5,-5,23,-7,-4,-3
1511885900895197,-1,0,-1,1,-15,10,-1,-1
1511885900917376,1,1,-2,-4,-24,-5,21,0
1511885900917376,1,-3,0,-2,-3,1,-44,2
1511885900918376,0,0,1,2,-5,4,4,-2
1511885900918376,-2,-1,-3,1,20,2,11,-4
1511885900940567,-10,1,1,-3,-10,10,2,-5
1511885900940567,-1,-5,-13,-9,2,-3,5,-2
1511885900940567,-2,1,5,13,4,-2,-16,1
1511885900940567,1,-4,-7,-2,25,2,-6,0
1511885900954761,0,3,7,-2,-25,-13,0,1
1511885900954761,-3,1,0,-5,-43,6,3,-2
1511885900955749,-1,-7,-13,-5,56,1,6,-2
1511885900955749,-2,-1,-9,9,12,-4,5,0
1511885900977643,1,-2,2,3,-30,-1,-3,1
1511885900977643,2,8,5,-1,-27,-4,2,-2
1511885900978646,-3,2,12,-2,-1,-10,3,3
1511885900978646,1,-8,-13,-6,0,14,-5,-3
1511885900999726,-1,-1,-2,-3,14,-12,-8,0
1511885900999726,-4,-4,-2,-3,-3,10,3,-2
1511885901000701,2,4,0,2,-6,-15,0,-2
1511885901000701,7,7,16,4,10,5,-1,4
1511885901013991,-2,-3,-3,0,-8,-5,16,-3
1511885901013991,-7,-6,-4,-2,7,-9,-23,-1
1511885901014878,-2,0,6,-6,-9,7,8,-1
1511885901014878,0,-5,-20,7,-5,4,-22,-3
1511885901036938,3,0,7,-3,7,-3,5,-1
1511885901036938,1,7,18,11,-1,-2,12,2
1511885901037942,10,7,4,-10,-3,3,-1,2
1511885901037942,-7,-13,-24,-4,9,4,1,-2
1511885901060196,-1,3,-3,5,-7,-4,-7,0
1511885901060196,-3,-15,-38,-16,6,2,3,-1
1511885901061002,1,5,11,4,-3,-5,-3,-2
1511885901061002,9,28,28,-6,-8,8,9,2
1511885901074160,-12,-48,-13,-1,-5,-4,-10,-5
1511885901074160,-10,-5,12,7,-3,-17,3,-2
1511885901075160,2,-4,-7,0,-10,3,3,-4
1511885901075160,-6,7,-2,-3,4,6,-2,1
1511885901097264,2,18,11,0,6,5,2,2
1511885901097264,6,-1,5,1,-14,0,4,0
1511885901097264,-14,-7,-20,-4,0,-7,-4,-4
1511885901097264,5,4,16,4,3,-7,-2,0
1511885901120283,-1,5,1,5,15,22,2,0
1511885901120283,-2,-1,-5,2,41,10,4,-2
1511885901121286,-1,-7,-28,-9,-48,-10,-7,0
1511885901121286,-1,-4,11,1,4,6,3,0
1511885901134320,4,5,13,-9,-6,-1,-4,0
1511885901134320,4,0,-15,1,16,14,6,1
1511885901135319,2,0,4,13,76,5,-3,0
1511885901135319,-2,-6,-10,-6,12,-8,0,-1
1511885901156621,0,5,4,4,-9,-2,-2,0
1511885901156621,-2,7,10,0,4,2,2,1
1511885901157507,1,-2,4,-1,-19,4,-4,2
1511885901157507,-5,-8,-1,0,-1,-7,10,-2
1511885901179565,6,7,-1,-3,9,-1,-6,0
1511885901179565,3,-6,-30,-10,-23,-6,3,2
1511885901180568,-3,-5,2,1,-6,2,0,-1
1511885901180568,1,-2,-10,-5,1,-13,-1,0
1511885901194796,-2,0,14,-1,-14,4,0,-2
1511885901194796,-1,-5,9,12,-5,0,-1,-2
1511885901195762,-1,-3,-21,-1,-11,-12,3,0
1511885901195762,1,-5,-18,-7,26,-4,-4,-1
1511885901216762,-2,0,2,-3,-8,8,1,-2
1511885901216762,-1,2,16,4,-4,-4,1,-1
1511885901217767,1,5,20,10,29,6,2,0
1511885901217767,-2,-1,2,1,-53,-19,-7,-2
1511885901240958,-1,-3,-18,-4,6,7,-1,1
1511885901240958,0,1,11,-3,-2,1,1,-3
1511885901240958,0,-2,-6,-7,-13,-2,-1,-2
1511885901240958,-1,2,5,0,13,7,0,0
1511885901254884,2,1,-1,7,1,-11,2,0
1511885901254884,7,6,5,7,-9,6,12,-2
1511885901254884,-1,0,4,-7,13,11,-25,-1
1511885901254884,-3,-7,-20,6,6,-3,0,-1
1511885901276949,-12,-2,-7,-6,-26,-4,0,-2
1511885901276949,8,2,5,4,-3,-10,1,-1
1511885901277922,-1,-2,14,5,25,27,-6,1
1511885901277922,0,-2,-5,-2,4,3,0,-1
1511885901299981,-12,0,-3,-1,4,-8,-4,-2
1511885901299981,1,3,15,2,1,2,1,1
1511885901300983,-1,-2,-26,-9,-37,-8,7,1
1511885901300983,-1,0,13,1,0,6,-2,2
1511885901314018,0,-3,-6,-2,7,-14,-2,-2
1511885901314018,-2,4,9,-6,-14,14,-4,1
1511885901315021,-1,0,5,-2,-22,-11,6,-1
1511885901315021,-2,0,10,3,-8,-7,-3,-1
1511885901337082,6,1,-7,-4,16,-1,0,1
1511885901337082,-3,-1,6,-1,27,2,-3,0
1511885901338085,5,10,5,3,-1,-6,5,0
1511885901338085,-2,-10,-25,-4,-41,0,2,-1
1511885901360263,5,3,16,-2,16,4,1,2
1511885901360263,-5,-7,-14,-2,-21,-4,-8,-3
1511885901361146,-3,0,-3,2,28,-4,5,-1
1511885901361146,0,6,21,-10,-5,0,-2,-2
1511885901374221,2,4,-12,1,-16,1,0,-2
1511885901374221,-1,4,21,-9,27,3,-2,-1
1511885901375181,-3,-24,-53,7,-28,-19,-2,-2
1511885901375181,-9,-5,-13,2,2,16,2,3
1511885901397242,23,-4,-11,-10,36,-1,0,-4
1511885901397242,-4,9,29,13,-8,-8,2,0
1511885901398242,0,4,20,-4,-18,-8,-3,0
1511885901398242,6,9,-3,-7,14,9,-2,2
1511885901420432,-7,-3,16,-1,-25,2,-1,-1
1511885901420432,-5,-3,-2,-1,-9,0,0,-4
1511885901421305,3,-2,-24,-12,22,10,-1,-2
1511885901421305,0,-11,-11,5,1,-5,0,-2
1511885901434479,-1,7,-53,-14,0,-3,0,1
1511885901434479,-2,-17,41,22,-6,-11,-5,-2
1511885901441824,1,8,2,8,-16,-10,5,2
1511885901441824,6,20,21,-4,47,3,1,0
1511885901456774,-7,-8,24,3,-20,-9,-1,-1
1511885901456774,-2,-22,-21,-9,-11,6,0,1
1511885901457733,-2,4,-25,-24,3,4,1,-4
1511885901457733,-1,2,38,16,7,-8,-2,1
1511885901479815,0,1,-48,-2,-53,-7,-3,-3
1511885901479815,12,18,-2,-13,23,3,2,4
1511885901480821,-13,-37,-34,11,-36,-11,-1,-4
1511885901480821,-6,-5,-1,-9,64,-18,-2,-2
1511885901493958,-1,12,44,-1,-23,13,0,0
1511885901493958,-1,5,45,-3,13,14,-2,-1
1511885901501980,4,4,-47,-6,-10,6,-1,0
1511885901501980,0,0,2,8,-23,-7,-1,0
1511885901517018,0,-1,1,8,29,7,-1,0
1511885901517018,-7,-10,-2,-3,-11,-17,-3,-3
1511885901518116,1,-1,-8,-19,13,14,0,2
1511885901518116,-1,-6,-18,13,-21,0,-2,-2
1511885901540081,7,21,80,10,-7,-7,-1,1
1511885901540081,-3,-18,-107,-10,19,-2,0,0
1511885901541085,-4,13,90,12,-6,0,0,-2
1511885901541085,2,1,-17,-12,-16,-3,0,0
1511885901554119,-2,-7,11,-3,17,0,-1,0
1511885901554119,2,5,-61,-14,-46,-21,-3,-1
1511885901562320,-1,-3,22,16,53,5,-1,-1
1511885901562320,-1,-1,13,-7,-54,-4,-2,-1
1511885901577293,-2,1,9,3,32,4,-2,-1
1511885901577293,-2,2,-8,-21,-9,-8,0,-1
1511885901578206,3,3,4,11,4,3,0,-1
1511885901578206,-2,-3,5,2,4,1,-2,-1
1511885901600282,-1,-4,-19,7,-6,-5,0,0
1511885901600282,0,-1,-20,2,13,-1,0,0
1511885901601243,0,8,28,-11,-21,-7,-1,1
1511885901601243,-1,-1,-3,-4,9,6,0,0
1511885901613277,-4,-10,-27,-3,1,0,0,-1
1511885901613277,2,10,42,7,-4,1,-1,-1
1511885901622297,-1,-2,17,6,-2,-1,-2,0
1511885901622297,-4,-13,-42,-7,0,-1,0,-2
1511885901636452,-3,-9,5,7,-1,-12,-3,-1
1511885901636452,1,7,7,-1,-7,21,3,1
1511885901637452,2,8,25,3,0,-2,0,-1
1511885901637452,0,0,6,0,5,-3,-4,-2
1511885901659670,-2,-6,-26,-10,-7,1,-1,0
1511885901659670,-2,3,18,10,2,-4,-3,0
1511885901660514,2,-3,-13,-2,-2,-2,0,0
1511885901660514,0,0,-7,-3,6,-1,2,-1
1511885901673652,1,-1,8,3,1,2,3,0
1511885901673652,0,1,-17,-2,-4,3,0,-2
1511885901681570,-1,-2,12,1,-3,-4,-2,-1
1511885901681570,1,1,-9,-8,2,-4,3,0
1511885901696762,2,-1,5,5,1,4,3,-2
1511885901696762,-2,-1,-3,-6,-5,-5,3,-2
1511885901697613,1,1,0,8,3,2,-4,-1
1511885901697613,1,5,38,5,6,2,-13,0
1511885901719712,-2,-4,-36,-6,-6,-1,21,1
1511885901719712,0,-2,-5,2,2,-5,-2,2
1511885901720708,-2,3,-1,-7,-6,-3,-15,-3
1511885901720708,-3,0,7,2,-2,-6,12,-5
1511885901733711,-1,0,-4,-1,5,13,-15,-2
1511885901733711,-1,-2,1,-3,-2,-1,-5,-4
1511885901741919,-1,1,1,-4,-1,-3,4,0
1511885901741919,-1,0,-1,3,-2,0,-1,-1
1511885901756877,-3,-3,-2,-3,2,-9,-1,-2
1511885901756877,1,0,-5,3,0,-6,1,1
1511885901757772,-1,-1,-4,-1,5,18,4,-1
1511885901757772,-5,-2,-1,3,1,1,4,-1
1511885901779943,1,-1,0,-1,0,-9,-6,1
1511885901779943,-3,-2,6,1,0,-2,-2,-1
1511885901780942,-1,1,-3,0,-3,-8,6,-1
1511885901780942,4,2,-2,-6,-6,3,-2,1
1511885901803115,-1,-3,1,0,-1,1,0,4
1511885901803115,2,1,2,4,11,2,5,0
1511885901803115,-4,-4,-9,-12,-9,6,-15,-3
1511885901803115,2,1,3,9,6,2,5,0
1511885901817175,-7,0,-1,-1,-4,-11,-1,-5
1511885901817175,1,2,1,7,20,22,0,0
1511885901817175,0,-3,-2,-4,1,-4,25,7
1511885901817175,3,0,-1,-4,-8,-8,-80,-4
1511885901840257,3,0,0,1,7,12,53,-3
1511885901840257,-4,-2,1,-1,-6,-10,9,0
1511885901841215,-1,2,1,4,6,-4,2,-4
1511885901841215,-4,-3,-1,-2,1,13,5,4
1511885901862459,10,1,-2,-3,-4,-3,-19,-2
1511885901862459,-13,-2,-1,-1,-10,-8,-11,2
1511885901863274,2,-1,-1,1,-1,-3,3,0
1511885901863274,-4,1,-2,-1,2,-7,19,-1
1511885901877472,-4,0,-1,-1,-1,-3,-18,0
1511885901877472,4,0,-2,-1,49,26,8,-1
1511885901877472,0,-2,-2,-3,-66,-19,-10,-2
1511885901877472,-2,-2,1,1,26,7,3,2
1511885901900372,-2,-2,-4,-3,-18,-17,-8,-4
1511885901900372,4,0,0,1,13,40,-15,-3
1511885901900372,0,2,0,3,17,10,1,5
1511885901900372,1,-3,-2,-2,10,-6,6,-1
1511885901922557,-5,-5,-2,-4,-9,4,5,-1
1511885901922557,1,0,0,-4,-62,-39,-3,-2
1511885901923434,4,1,0,0,42,9,-1,-1
1511885901923434,-4,-2,1,-4,-53,-25,14,-1
1511885901936468,-1,-1,-6,1,16,0,-9,2
1511885901936468,1,-2,-1,-3,-16,-36,-4,-3
1511885901937471,-2,0,-4,-6,-53,18,12,-4
1511885901937471,1,1,2,13,99,13,-14,0
1511885901960532,-1,2,2,-1,-35,-6,9,1
1511885901960532,-1,-1,-2,-5,10,-4,-8,0
1511885901960532,0,0,1,0,8,-4,-48,-3
1511885901960532,1,-1,-2,-3,-11,8,25,0
1511885901982699,-5,-1,-1,0,2,10,-12,0
1511885901982699,0,-1,1,2,-2,5,4,-1
1511885901983593,-2,-3,-2,-1,10,-12,5,-1
1511885901983593,0,-1,0,-1,-29,-7,-11,-4
1511885901996657,1,2,-2,-1,23,3,-4,2
1511885901996657,-3,-2,-3,-4,-15,-24,10,-3
1511885901997631,-1,-2,-2,8,-12,-25,-17,-2
1511885901997631,1,0,-2,-2,8,-19,7,0
1511885902019689,0,0,7,1,19,12,8,-3
1511885902019689,2,-2,-10,-3,5,-3,-7,2
1511885902020692,0,2,1,-4,15,12,13,-1
1511885902020692,-5,-1,-3,-4,-23,10,8,2
1511885902042911,-1,-4,-1,0,13,-32,-24,-3
1511885902042911,0,-1,0,-1,-22,-3,32,-2
1511885902043887,2,-2,-2,0,10,-17,-1,2
1511885902043887,3,4,1,-6,-55,2,-8,0
1511885902056977,-12,-3,0,-3,-13,12,-5,-1
1511885902056977,0,-1,-2,2,2,-2,-38,-2
1511885902057792,-4,-1,-5,-4,60,-22,44,-1
1511885902057792,4,-1,0,2,7,13,3,-2
1511885902079849,2,-1,-5,-3,-21,-37,0,-1
1511885902079849,-1,0,4,0,1,6,-9,-2
1511885902080852,-1,-2,2,-2,-29,23,4,0
1511885902080852,-2,-1,-1,-5,-12,-25,-16,-1
1511885902103001,2,-2,-2,2,66,44,18,3
1511885902103001,-3,1,1,0,-23,17,10,3
1511885902103001,-1,0,-12,-3,17,11,-7,-2
1511885902103001,-2,-2,9,10,67,19,7,-1
1511885902116951,3,0,-1,-3,-104,-28,-9,0
1511885902116951,-1,-1,1,-6,-15,0,1,0
1511885902117955,1,1,3,-4,-10,1,-11,-1
1511885902117955,-1,-7,-26,-6,-17,-5,1,-4
1511885902140179,6,2,10,-1,10,-7,2,3
1511885902140179,0,-2,-11,9,20,33,3,0
1511885902141164,-3,1,8,-12,-26,-20,-2,-2
1511885902141164,8,1,0,-4,-1,10,1,2
1511885902162312,-1,0,0,5,23,9,-6,-2
1511885902162312,1,-1,-1,-7,19,9,-1,-2
1511885902163199,-5,-4,-2,8,-10,9,-6,-2
1511885902163199,-1,0,3,-2,-71,13,51,1
1511885902176273,4,2,-4,4,115,23,6,-1
1511885902176273,1,3,6,3,10,-27,-15,2
1511885902185257,-2,-2,-4,0,-26,8,3,0
1511885902185257,-1,0,1,-4,-23,-37,-11,-1
1511885902200300,-2,-2,0,-2,-31,4,-4,0
1511885902200300,-4,-1,-3,-2,13,-5,16,-3
1511885902201304,2,-1,0,6,26,-2,-13,3
1511885902201304,-3,0,5,-11,10,-47,-13,-4
1511885902222486,-5,-4,-16,2,-119,-32,-1,-1
1511885902222486,1,-1,9,-2,-17,-9,-8,-1
1511885902224492,1,1,0,1,-29,-12,-1,3
1511885902224492,-1,-1,3,5,34,31,-8,2
1511885902236522,-3,-2,3,-6,-16,12,2,-5
1511885902236522,-2,-3,-8,-5,-2,-13,-1,-2
1511885902245569,-2,-3,-1,1,-16,-7,-3,-3
1511885902245569,7,4,5,2,16,10,-1,2
1511885902259710,-2,-3,-1,-4,8,-4,5,0
1511885902259710,-1,-1,0,0,-9,-3,-14,-2
1511885902266701,1,-3,0,-2,-15,7,5,-1
1511885902266701,-6,-1,-2,4,9,-16,-3,-3
1511885902282684,-2,2,3,4,55,14,-1,-1
1511885902282684,2,2,1,0,-7,16,5,1
1511885902284649,-2,2,0,3,12,-2,1,0
1511885902284649,1,-3,-7,-5,-7,8,2,1
1511885902296681,-4,-1,-6,-2,-31,-3,-5,-1
1511885902296681,-4,-3,-3,-4,11,0,3,-1
1511885902304847,-3,-3,-3,5,44,15,3,-2
1511885902304847,-2,0,5,4,4,3,3,1
1511885902319845,3,2,2,-8,-8,1,2,3
1511885902319845,-3,-2,-5,11,19,-4,-16,-2
1511885902321847,1,3,7,7,-16,-9,-1,0
1511885902321847,-4,-5,-5,-4,-2,4,-6,-2
1511885902343124,-5,2,-2,-6,-15,-25,-5,-3
1511885902343124,-1,0,5,-5,-22,-10,4,-2
1511885902343968,1,-1,6,-4,7,4,1,-1
1511885902343968,0,-1,-13,-1,-3,-3,-6,-1
1511885902356176,1,1,5,9,39,11,0,-2
1511885902356176,-1,0,0,0,-13,3,0,2
1511885902364996,0,-1,-2,2,-3,-3,11,-2
1511885902364996,-4,2,4,-8,-7,4,-13,-1
1511885902380065,0,-3,-2,-4,-7,-9,1,-1
1511885902380065,0,-1,-1,-1,0,2,8,0
1511885902382073,-1,-1,-3,-2,27,-5,-4,1
1511885902382073,-2,1,3,-2,-92,-56,-4,0
1511885902402130,-1,-3,-11,1,75,16,3,-2
1511885902402130,1,0,4,1,9,-17,-9,-2
1511885902404132,-2,-3,-5,-4,-21,6,7,0
1511885902404132,-8,1,7,7,30,20,1,-3
1511885902416168,7,1,-3,-9,-22,0,-8,2
1511885902416168,-2,-1,9,14,-8,-9,11,0
1511885902425309,0,-1,-9,-1,8,3,-6,-1
1511885902425309,1,2,8,-2,-1,10,4,0
1511885902440528,-3,-4,22,7,-14,0,-2,-1
1511885902440528,1,0,-29,-16,13,15,1,1
1511885902442355,-1,-3,3,4,-5,-6,-2,-3
1511885902442355,2,0,-1,1,16,8,-7,-1
1511885902462594,-1,1,-1,-2,-8,-3,0,-1
1511885902462594,2,0,-1,0,-5,0,3,1
1511885902464415,-1,-1,-5,-4,-8,-11,-5,1
1511885902464415,0,-3,0,-6,-5,2,2,1
1511885902476448,-2,0,-8,-5,-41,-5,-2,-2
1511885902476448,-1,0,-3,-1,-12,-2,-1,0
1511885902485480,-1,-1,-1,-4,8,0,-5,-1
1511885902485480,-2,-3,-3,6,24,4,3,-1
1511885902500509,0,-1,2,4,-30,-21,-3,-2
1511885902500509,-1,-1,3,-2,30,4,-4,-1
1511885902501510,-1,0,2,-6,-20,7,-1,-3
1511885902501510,1,-2,-3,2,2,7,1,0
1511885902522789,-1,0,-7,-4,9,0,-3,-2
1511885902522789,0,3,19,3,-27,-12,-1,0
1511885902523747,1,-5,-14,-6,8,6,-3,1
1511885902523747,-1,-4,-17,-1,6,4,-1,-2
1511885902535813,-1,-1,-10,-1,-3,3,1,0
1511885902535813,1,-2,5,2,-7,0,1,0
1511885902544827,0,6,19,0,-4,0,1,0
1511885902544827,-2,-7,-23,-7,-2,1,-3,-2
1511885902559884,-1,-5,3,1,5,-2,1,0
1511885902559884,-2,-3,-14,-12,-1,2,-1,-1
1511885902561849,-1,0,16,20,6,-3,0,0
1511885902561849,3,5,12,0,0,3,2,0
1511885902582908,0,0,-16,1,4,3,0,0
1511885902582908,-2,1,21,1,0,-1,2,-1
1511885902583916,-1,-1,-15,-7,-19,8,-1,-1
1511885902583916,-1,-1,-18,-10,1,-4,0,-1
1511885902596056,1,5,3,7,3,3,3,-1
1511885902596056,0,-4,-11,1,-6,5,-1,0
1511885902604961,-1,-1,-1,-7,-7,-18,-3,-1
1511885902604961,2,7,42,3,-6,2,-1,-1
1511885902620131,-1,-4,-25,-3,11,7,-2,1
1511885902620131,-2,-5,-11,-7,-16,4,0,-1
1511885902622140,0,4,11,-3,3,-12,-2,-1
1511885902622140,-3,-9,-26,-16,6,6,-2,-3
1511885902643152,-1,-1,3,4,-2,-37,-4,-1
1511885902643152,0,3,5,-3,-37,30,2,0
1511885902644069,0,-4,6,16,25,9,3,1
1511885902644069,0,3,7,-1,0,-16,-1,0
1511885902656102,-1,2,18,9,12,6,-2,-2
1511885902656102,-3,-1,-10,2,-5,-7,-1,3
1511885902665126,1,-2,-9,-9,-7,1,-3,-3
1511885902665126,-2,0,3,5,-5,5,0,1
1511885902679200,1,-1,-1,-2,-3,12,1,0
1511885902679200,-1,-2,-1,4,23,-6,0,0
1511885902686181,0,2,-1,-4,-4,11,4,1
1511885902686181,-1,0,1,6,7,-7,-3,2
1511885902702224,-1,-1,11,-2,-6,3,-1,0
1511885902702224,2,0,-14,1,10,-5,1,-2
1511885902704226,-2,-1,1,-3,3,4,0,0
1511885902704226,1,1,3,8,-4,9,2,2
1511885902725285,0,0,7,-5,1,4,3,-1
1511885902725285,-1,0,4,-2,-10,-11,-4,-2
1511885902726288,1,-2,-4,-1,-1,-9,-2,1
1511885902726288,-1,-1,-10,4,9,-3,0,-4
1511885902739511,-2,-1,-1,-6,-6,-8,-2,-4
1511885902739511,1,-1,-4,4,14,-6,-1,4
1511885902746339,0,-1,-5,-2,-11,-6,1,-1
1511885902746339,-2,0,4,-5,-11,-17,-3,-2
1511885902762603,-1,0,2,-1,-1,7,-2,-4
1511885902762603,-1,0,4,1,4,2,-1,-4
1511885902764534,-2,-3,-16,-4,0,-5,-2,-1
1511885902764534,0,0,4,3,10,21,3,0
1511885902784567,-1,0,1,-1,-2,-4,2,2
1511885902784567,-1,1,4,-1,2,-4,-1,-2
1511885902786569,0,-1,1,0,0,9,1,0
1511885902786569,0,-1,1,3,-1,-4,-1,-1
1511885902799607,2,-1,-10,-2,0,5,-2,0
1511885902799607,-2,0,5,-3,0,2,-1,-2
1511885902806626,1,-1,-1,-2,3,-3,-2,-2
1511885902806626,-2,-3,-6,0,-4,1,1,0
1511885902822668,-1,1,4,0,-3,-1,-2,1
1511885902822668,3,1,-1,0,2,1,1,-1
1511885902824674,1,1,0,3,-2,-2,-1,0
1511885902824674,-2,0,0,-2,-2,0,0,-1
1511885902844895,2,0,2,0,-1,2,0,0
1511885902844895,-1,0,0,-1,-1,-3,-2,1
1511885902846730,-6,-3,-3,-4,-3,-1,0,-3
1511885902846730,1,-1,0,-1,-2,-3,1,2
1511885902859932,-1,0,0,-3,-2,-1,1,-2
1511885902859932,0,-1,0,1,0,-1,-3,0
1511885902865779,-1,1,1,0,1,2,-2,1
1511885902865779,0,-1,-1,2,-1,0,0,-1
1511885902882860,0,-1,-1,1,-2,0,3,1
1511885902882860,-1,-1,1,1,1,-3,1,-1
1511885902883868,-2,-1,0,-1,0,-4,-3,-1
1511885902883868,-1,-2,-2,-2,1,1,-2,-1
1511885902904887,-1,0,-1,1,1,-4,-2,-2
1511885902904887,-1,-2,-1,-2,3,10,1,-1
1511885902906889,-1,1,1,-1,-3,0,2,0
1511885902906889,0,0,-2,0,-1,13,0,0
1511885902918924,-2,0,0,-2,0,-6,-1,0
1511885902918924,-1,-1,-2,0,-1,-6,-1,-2
1511885902925939,1,1,1,0,0,2,-2,-1
1511885902925939,2,2,1,1,0,-3,0,1
1511885902942076,-3,-2,-4,-3,-2,-6,0,-2
1511885902942076,-4,-4,-4,-1,2,1,-4,-2
1511885902943987,-2,-4,-1,-1,-9,-2,-1,-1
1511885902943987,0,0,0,-1,-2,-3,-2,-2
1511885902965044,0,0,0,0,-3,-1,-1,-1
1511885902965044,1,0,1,1,-1,-6,-1,-1
1511885902967052,0,0,-1,-1,2,-2,1,1
1511885902967052,-1,-2,-2,-2,-1,-3,-2,-1
1511885902979084,-2,-2,-2,0,0,1,0,-1
1511885902979084,-2,-2,-2,-4,-3,-4,1,-1
1511885902988109,1,-1,0,0,0,3,0,-1
1511885902988109,-3,-1,-2,0,0,-6,0,1
1511885903003194,1,0,1,1,2,0,-3,-1
1511885903003194,-1,0,0,-2,0,1,2,0
1511885903004153,-1,-1,-2,-2,1,-4,2,-2
1511885903004153,-3,-3,-1,-1,-2,-4,-1,-2
1511885903025330,0,-2,-2,-2,-3,1,-3,0
1511885903025330,1,-1,-1,0,-4,0,6,0
1511885903027211,1,2,1,0,-2,5,-2,-1
1511885903027211,1,2,2,3,10,9,3,1
1511885903038356,-1,-1,-4,-2,1,2,1,-1
1511885903038356,0,-2,0,-4,-20,-9,-5,-1
1511885903047261,0,1,5,2,2,-2,-2,1
1511885903047261,-3,-5,-17,-7,-2,-2,-1,-1
1511885903062424,0,1,8,7,3,1,-1,1
1511885903062424,-2,2,0,0,7,-3,-1,-1
1511885903064311,0,0,1,1,0,-5,1,-2
1511885903064311,-2,0,3,-4,-7,-8,-1,-1
1511885903085374,-2,0,-2,-3,-2,-2,0,0
1511885903085374,-2,-1,-2,0,2,-1,-1,-2
1511885903086367,0,-1,1,-1,-1,1,-1,0
1511885903086367,2,0,4,2,0,-1,0,-1
1511885903098524,-2,0,-4,-2,-1,0,6,0
1511885903098524,-2,-1,-1,2,4,-4,-7,-2
1511885903107457,0,-2,-3,-3,0,2,5,0
1511885903107457,-2,-1,2,1,-3,-2,0,-2
1511885903121507,0,0,-1,-2,-6,-2,1,1
1511885903121507,-2,0,-1,0,0,0,5,-2
1511885903130487,1,0,-4,-1,-5,-8,-3,0
1511885903130487,-1,-1,-1,-2,5,-2,-3,-3
1511885903144525,-2,0,1,0,-2,-1,5,-1
1511885903144525,0,0,0,3,6,2,1,-2
1511885903146525,0,-1,-4,-3,-3,-4,-2,0
1511885903146525,1,-1,0,0,-4,-2,8,2
1511885903159587,1,-1,-4,-4,-2,-1,-13,-3
1511885903159587,2,1,1,4,4,0,4,2
1511885903167582,-3,-1,0,0,-2,-7,-15,-9
1511885903167582,-1,-1,-2,0,-5,-4,5,6
1511885903182621,-2,-2,-2,0,0,2,4,-1
1511885903182621,-1,-1,-2,0,5,3,26,3
1511885903184627,0,-2,1,-10,-12,0,-18,0
1511885903184627,1,1,3,10,8,11,-24,-1
1511885903204683,1,0,-3,1,-5,-13,7,-5
1511885903204683,2,-1,4,4,6,5,22,5
1511885903206686,-3,-5,-7,-5,-7,-4,22,1
1511885903206686,-2,-1,-1,-46,-15,-8,-3,-2
1511885903218721,-1,-3,-14,1,4,6,1,0
1511885903218721,2,1,-3,-10,-11,-18,-18,7
1511885903227862,-1,1,-3,0,0,-18,14,2
1511885903227862,0,3,2,4,6,-13,13,-7
1511885903242902,3,3,7,-1,1,-29,-10,14
1511885903242902,0,6,1,-5,-1,-50,0,-1
1511885903243906,7,8,4,4,7,-84,28,5
1511885903243906,-1,2,-3,-3,-12,-7,-1,6
1511885903264960,2,-13,-3,0,-1,99,-17,-7
1511885903264960,-5,6,3,7,4,-92,3,0
1511885903266970,2,17,12,9,11,-81,38,9
1511885903266970,3,13,9,19,10,-55,-7,4
1511885903278998,-1,-9,-2,1,4,71,54,3
1511885903278998,-7,-40,-20,-14,-15,127,-79,-15
1511885903288022,-13,-44,-24,-17,-13,127,-97,-24
1511885903288022,-11,-26,-13,-15,-18,22,-30,-17
1511885903302062,-6,-3,2,-6,-3,-81,-30,-6
1511885903302062,0,-1,-1,-14,-15,31,-4,-3
1511885903304078,-1,12,21,28,31,-106,20,-2
1511885903304078,6,17,3,5,6,-72,-13,7
1511885903325244,5,27,17,13,13,-128,57,15
1511885903325244,27,27,10,11,9,-128,54,17
1511885903327128,-17,12,0,-3,-2,-7,23,8
1511885903327128,5,-6,0,4,2,81,5,0
1511885903339158,-1,-8,-2,-2,-5,75,-43,-9
1511885903339158,-6,-5,-2,-3,-1,67,-6,-9
1511885903347180,6,-4,-3,-2,-6,47,-14,-3
1511885903347180,-1,-2,0,4,6,-26,4,-2
1511885903362221,-5,1,0,-2,-4,-38,0,-2
1511885903362221,-3,-1,-1,3,3,-24,2,1
1511885903364230,4,0,-2,-2,-2,-18,-5,3
1511885903364230,-2,1,3,8,4,-20,14,2
1511885903385397,3,-2,-4,-3,-4,24,-10,-4
1511885903385397,-3,-5,-2,-1,2,87,-17,-4
1511885903386393,2,-7,-6,-5,-4,76,-11,-3
1511885903386393,-1,-7,-2,-1,-1,57,0,-3
1511885903398318,-3,-6,-3,0,-4,7,-15,-5
1511885903398318,-1,0,2,-1,-1,-37,-5,-4
1511885903408343,2,4,0,-1,-2,-37,8,1
1511885903408343,1,1,0,0,1,-43,15,3
1511885903422380,0,4,3,-3,-2,-62,-13,1
1511885903422380,-4,5,2,3,5,-53,17,1
1511885903424385,3,3,1,0,-2,-35,7,0
1511885903424385,0,3,-1,1,0,-18,5,1
1511885903444461,-1,3,1,-3,0,-27,9,1
1511885903444461,-1,0,0,-1,0,-12,3,0
1511885903446443,1,-2,-2,1,0,3,-3,2
1511885903446443,-2,0,1,0,-5,-1,2,0
1511885903458667,2,1,-2,-1,-2,12,-1,-1
1511885903458667,-2,-1,-1,-1,-1,15,-5,-1
1511885903467499,0,-3,-2,-3,0,18,-4,-1
1511885903467499,-2,-3,-1,-3,-2,5,-11,-1
1511885903482542,-2,-2,-2,-4,-1,9,11,1
1511885903482542,-1,-1,0,1,-1,-5,-5,0
1511885903484549,-1,0,0,0,-2,-8,-3,0
1511885903484549,0,0,-2,-1,-2,-8,1,-2
1511885903504601,-1,0,-2,-1,-1,-15,-3,-1
1511885903504601,1,0,-2,-1,-2,19,-3,-1
1511885903506603,-1,-5,-2,-1,-1,38,-4,-1
1511885903506603,0,-3,-2,-2,-4,29,-3,-1
1511885903518751,-2,-3,1,0,1,11,-8,-4
1511885903518751,-2,-1,-1,-1,-1,-8,2,-2
1511885903527899,2,-1,-2,-1,3,-1,-6,3
1511885903527899,-1,-1,-2,-4,-1,2,0,-2
1511885903542049,-1,0,-1,0,-1,-8,-2,0
1511885903542049,-3,1,0,0,-1,-11,0,1
1511885903548958,0,2,1,-2,-3,-15,0,0
1511885903548958,-1,-1,0,-2,2,-3,2,0
1511885903565128,-1,0,-1,-1,1,17,0,-1
1511885903565128,-1,-3,-2,0,-2,21,-5,-2
1511885903567135,0,-3,-3,-1,-3,27,-4,-2
1511885903567135,0,-5,-4,-2,-3,23,-4,0
1511885903579162,-1,-3,-1,-1,-3,20,-5,-5
1511885903579162,0,0,-1,0,-2,9,-7,-4
1511885903587453,-1,-1,-1,-2,-2,-8,-2,-1
1511885903587453,-1,0,0,0,2,-7,2,-1
1511885903602350,1,0,-2,-1,-3,-8,2,-1
1511885903602350,-1,-2,0,-1,1,-7,1,1
1511885903608507,-1,0,1,-2,-2,-8,3,-1
1511885903608507,0,0,0,0,0,-7,-1,-2
1511885903625537,-2,-1,0,0,0,4,0,1
1511885903625537,0,-1,1,0,-2,-2,-2,-1
1511885903626507,-3,-2,-1,-1,0,5,0,-6
1511885903626507,-5,-1,-2,0,-2,-2,-3,0
1511885903638577,13,0,-1,0,-1,-5,-4,6
1511885903638577,-1,1,-4,-1,0,-11,4,0
1511885903647562,-1,1,2,-1,2,-1,2,-1
1511885903647562,-3,-1,-2,-1,-3,-16,4,-3
1511885903661637,-6,-1,0,-1,-1,-13,0,-2
1511885903661637,0,1,1,-1,0,-8,-2,0
1511885903668658,3,2,-1,-1,-2,-15,3,0
1511885903668658,0,0,2,1,-2,-9,4,0
1511885903684775,-2,-1,0,0,1,-4,2,0
1511885903684775,0,0,-1,-2,-1,-10,2,-2
1511885903686661,-1,1,0,1,1,3,0,1
1511885903686661,1,1,-1,-1,1,-5,-1,2
1511885903707905,-2,1,0,0,2,-2,0,0
1511885903707905,-3,-2,-1,0,-3,-3,0,-2
1511885903708891,0,-1,0,-2,-1,-5,-2,1
1511885903708891,1,0,1,2,0,-2,-1,0
1511885903721947,-2,-1,0,0,-2,-3,0,-3
1511885903721947,-1,-1,-1,0,-1,-4,0,1
1511885903728777,1,0,-2,0,0,-1,1,0
1511885903728777,0,-1,-1,-1,-1,1,1,0
1511885903744816,-2,-1,-2,-2,-1,-1,-1,-1
1511885903744816,-1,-2,1,-2,0,2,0,-3
1511885903746825,-1,-2,1,-1,-1,-2,-3,-1
1511885903746825,-1,-3,0,0,0,5,-1,-3
1511885903768005,-1,-2,0,-1,-1,7,-3,-3
1511885903768005,0,-1,-2,0,-2,7,-2,1
1511885903768884,-1,0,-2,-1,0,0,0,-1
1511885903768884,-2,0,-2,0,-2,4,-1,-1
1511885903781915,-1,0,1,0,1,-4,-2,0
1511885903781915,1,0,-1,-1,1,0,-3,0
1511885903788937,0,1,-1,-1,-4,-2,-2,-1
1511885903788937,1,0,-2,0,0,0,0,0
1511885903805170,-1,-1,1,0,2,-1,1,0
1511885903805170,-2,-2,0,-1,0,-3,-1,-1
1511885903806983,-1,-1,-1,1,0,-2,0,-1
1511885903806983,0,-1,0,-4,-1,0,-1,-1
1511885903828122,-2,1,-3,-1,-2,1,0,-2
1511885903828122,0,1,-1,-1,1,2,0,1
1511885903829041,0,-2,-3,0,-1,0,2,-1
1511885903829041,0,-2,0,-1,-1,-1,-1,1
1511885903842270,1,0,0,0,0,0,5,-4
1511885903842270,0,-1,0,-1,-1,-1,6,9
1511885903849097,18,2,0,1,-2,0,11,1
1511885903849097,-30,-2,0,2,1,4,-9,1
1511885903865137,19,3,-4,-3,-5,-3,0,-1
1511885903865137,-24,-9,-1,2,3,5,-20,-9
1511885903866180,58,-1,-2,0,-2,-6,-43,-2
1511885903866180,-45,-6,-2,-1,-1,-8,44,8
1511885903887199,2,3,1,1,-2,1,20,18
1511885903887199,-4,7,2,0,-1,-7,20,2
1511885903889202,-15,2,3,0,2,1,-7,5
1511885903889202,44,1,-1,0,0,6,-33,-10
1511885903902417,2,-5,-3,0,0,3,-13,1
1511885903902417,-1,-2,-2,-3,-3,11,0,-1
1511885903908482,-7,-2,-1,1,-2,13,2,-3
1511885903908482,14,0,0,-1,-2,9,-1,0
1511885903925621,-18,-4,0,1,-1,4,-4,-4
1511885903925621,8,-2,-5,-5,-1,-1,-6,-1
1511885903926474,-19,-2,2,-3,-2,-4,4,-3
1511885903926474,3,-1,-11,-2,-2,-5,2,-2
1511885903947529,-8,-3,2,1,-1,-7,-5,-5
1511885903947529,3,2,4,2,-1,-7,-2,-2
1511885903949538,1,0,0,-1,-1,-7,9,1
1511885903949538,-3,-1,2,-1,-1,-7,0,0
1511885903961750,1,-2,-1,-1,0,2,-3,-4
1511885903961750,7,1,1,0,-1,-2,-2,-1
1511885903970665,-16,-3,0,-1,-2,-3,5,-1
1511885903970665,4,1,1,-3,-1,-2,-4,-2
1511885903984749,-5,0,-10,4,0,-5,-1,-3
1511885903984749,3,1,5,3,0,-3,0,2
1511885903986634,-8,0,-2,1,0,-2,4,2
1511885903986634,0,-2,-4,-1,0,-3,-3,-3
1511885904007797,8,3,2,-6,-1,-3,1,1
1511885904007797,-3,3,6,1,-1,-4,2,-1
1511885904008695,-9,-6,-12,1,0,-2,0,-2
1511885904008695,3,1,6,-3,-2,-6,-2,-2
1511885904021774,0,12,31,3,0,-2,-2,0
1511885904021774,-1,-21,-66,-6,1,-7,-3,-1
1511885904029975,-9,6,54,-1,-2,3,9,-1
1511885904029975,2,-3,-46,3,-1,4,0,-2
1511885904045109,-3,-6,5,-11,-2,-1,-2,-1
1511885904045109,5,6,13,-2,-1,4,-3,0
1511885904047021,4,2,2,7,-1,9,-1,0
1511885904047021,0,2,22,4,0,8,-4,1
1511885904067192,-5,-5,-3,3,0,3,-2,-2
1511885904067192,0,-2,4,-7,-2,7,-2,-1
1511885904069198,-5,-4,-2,1,-1,4,-2,-2
1511885904069198,2,2,-1,-3,-1,0,0,0
1511885904081230,2,14,-8,-3,-1,2,-2,1
1511885904081230,-3,-15,17,9,0,-2,-1,0
1511885904090254,-3,-8,3,-7,0,-6,0,-4
1511885904090254,-2,4,-28,0,-1,-6,-3,-4
1511885904105414,1,-8,24,0,-2,-6,-1,-2
1511885904105414,-8,-6,-48,-9,1,-3,0,-1
1511885904106377,7,8,17,6,-2,-5,0,1
1511885904106377,-1,7,0,-1,2,0,2,3
1511885904127352,-6,-4,-5,-6,0,-7,-3,-5
1511885904127352,-3,-5,5,5,-16,-3,0,-2
1511885904129357,1,-2,10,11,34,-5,-4,-1
1511885904129357,0,-1,-7,-10,-2,4,6,2
1511885904141433,2,6,5,8,-2,2,0,-2
1511885904141433,1,12,14,-9,1,2,-1,-1
1511885904150413,-3,-10,-33,-2,-8,-2,-3,-1
1511885904150413,11,30,38,5,-1,-1,-1,4
1511885904165454,-10,-29,-15,-7,4,2,0,-2
1511885904165454,-7,-19,-35,-6,-3,-6,-1,-4
1511885904166456,-7,-4,-16,-8,-10,-9,-2,-3
1511885904166456,1,4,12,3,2,-7,-2,-1
1511885904187573,8,11,2,-7,-6,-1,4,4
1511885904187573,-4,6,9,1,7,-4,1,1
1511885904189626,4,6,-7,-4,-4,1,-1,0
1511885904189626,3,-5,9,2,-1,2,0,-2
1511885904201550,0,3,13,12,3,2,0,1
1511885904201550,-3,3,2,6,1,3,0,-2
1511885904209694,0,5,1,-6,-1,2,1,-1
1511885904209694,-4,-12,-3,-3,-4,-2,-1,-2
1511885904224752,-3,-2,17,0,-1,4,-3,-2
1511885904224752,2,2,-21,-4,-3,2,-2,1
1511885904226740,-3,-2,-1,6,-5,-6,-2,0
1511885904226740,-4,-6,-3,-6,-2,0,-2,-1
1511885904247798,-1,-5,-15,9,1,-3,0,-2
1511885904247798,3,12,20,6,2,0,-1,2
1511885904248802,-1,-2,1,-5,-5,-3,1,0
1511885904248802,-1,-6,3,2,1,-3,-3,1
1511885904260834,3,7,-5,-7,-3,-1,0,2
1511885904260834,2,2,17,3,1,2,1,2
1511885904269863,-4,-2,-23,-14,-2,0,-4,-3
1511885904269863,-10,-35,-30,-2,0,-4,-1,-2
1511885904284894,-1,8,11,6,-3,-4,-1,-3
1511885904284894,0,0,-21,-4,1,-5,0,-2
1511885904286903,9,14,23,3,2,3,1,5
1511885904286903,2,7,21,0,-2,1,-2,1
1511885904307955,-4,-19,-37,-11,-2,-1,-3,-1
1511885904307955,0,6,12,-7,-11,1,0,1
1511885904308958,4,6,14,20,16,5,1,2
1511885904308958,-6,-5,-26,-13,-4,-3,0,-1
1511885904320993,-6,-4,23,10,0,-2,0,-1
1511885904320993,9,14,-28,-13,-3,-4,0,0
1511885904330014,-12,-37,-10,3,-5,-4,-3,-3
1511885904330014,2,8,21,4,1,2,1,-1
1511885904345059,0,0,-15,-6,-1,0,1,-1
1511885904345059,5,25,-1,-8,-6,2,0,2
1511885904347067,1,-10,11,8,7,0,0,1
1511885904347067,-1,-13,-15,4,2,-2,-3,-2
1511885904368116,-6,0,10,-3,-2,-5,-1,-4
1511885904368116,-1,-1,4,-5,-4,1,-3,-1
1511885904369119,2,14,1,3,-5,1,2,2
1511885904369119,3,0,8,9,1,-6,2,2
1511885904381192,3,5,-1,-1,-1,-1,-1,0
1511885904381192,-6,-14,-12,0,7,1,-3,-1
1511885904390176,-3,-1,-11,-2,-4,1,-1,-1
1511885904390176,-6,-4,15,-5,-2,1,-1,-3
1511885904405258,4,4,-26,-3,1,-2,0,-1
1511885904405258,1,-2,20,8,3,-5,2,0
1511885904406222,-4,3,7,-11,-5,-2,-1,-4
1511885904406222,-2,-8,9,6,-6,-7,-3,-3
1511885904427275,-1,-1,-29,-17,1,3,-2,-1
1511885904427275,-1,-11,14,11,2,-1,0,-2
1511885904429283,0,6,-3,-3,-3,-1,2,1
1511885904429283,4,10,-2,17,0,2,-3,-2
1511885904441353,0,11,50,-1,-3,-1,-1,2
1511885904441353,-4,-21,-45,-13,-5,-7,-2,-3
1511885904450334,-1,2,-6,0,8,7,4,2
1511885904450334,-1,3,5,-3,0,7,0,-1
1511885904465488,1,-2,-9,1,-1,-1,0,1
1511885904465488,-3,0,10,8,1,-5,-4,-2
1511885904466377,1,-3,-10,-12,-11,-7,-2,0
1511885904466377,-1,3,1,-12,-3,-13,-4,0
1511885904487621,3,7,8,-9,2,10,-7,-1
1511885904487621,-3,-5,-3,25,1,-2,8,1
1511885904489439,-3,-7,-15,-5,-2,2,-2,-4
1511885904489439,-3,3,-3,-8,3,-3,0,0
1511885904501580,-2,-6,-8,8,-4,-9,-3,-1
1511885904501580,5,4,16,5,4,3,4,0
1511885904510740,-3,-1,-3,-1,-1,-1,-2,-2
1511885904510740,-1,2,-4,8,4,3,0,-1
1511885904524956,-2,-5,-13,-6,-2,-4,1,0
1511885904524956,-1,0,23,4,1,3,-2,-1
1511885904530795,1,4,-4,-12,-5,0,1,-2
1511885904530795,0,-1,13,-6,-1,-7,0,1
1511885904547941,-2,-5,-23,2,1,17,2,0
1511885904547941,1,-1,7,-4,1,-4,-3,0
1511885904548858,0,-2,-3,0,-1,-9,-3,-1
1511885904548858,0,1,-2,-1,-3,3,-1,0
1511885904560981,-1,-3,12,9,3,-2,1,0
1511885904560981,-1,3,13,-12,1,6,-1,0
1511885904569896,0,-1,-3,8,-2,-3,-2,-2
1511885904569896,-1,-3,-6,-14,-2,-2,0,-2
1511885904583933,-2,-1,-2,6,4,6,3,1
1511885904583933,-2,-1,1,-14,-7,-8,-4,-1
1511885904591049,1,0,-1,11,3,-4,3,3
1511885904591049,1,2,-4,-6,-3,7,0,-1
1511885904608093,-3,-5,-3,-2,-7,-7,-2,-2
1511885904608093,-1,-2,-2,-7,0,-5,0,-2
1511885904609000,-2,-1,4,7,-2,1,-2,-2
1511885904609000,-1,0,-5,4,1,3,2,2
1511885904630057,0,-2,-6,-3,3,0,2,0
1511885904630057,0,0,9,6,1,1,-3,0
1511885904632077,-1,-1,-1,-8,-4,-4,-3,-2
1511885904632077,0,-3,-4,-2,-1,-4,-8,-1
1511885904644217,0,-3,-5,-2,-1,0,27,2
1511885904644217,0,0,7,6,2,7,-12,-4
1511885904651391,-1,1,-6,-17,-1,1,-1,-1
1511885904651391,-1,-1,-1,16,0,-5,-7,-1
1511885904667437,-1,0,-1,-8,-4,-6,-4,-1
1511885904667437,1,2,2,0,0,-3,6,2
1511885904669442,-1,-2,-3,-11,-2,-1,1,1
1511885904669442,-1,-1,1,9,4,2,-18,-1
1511885904690494,0,-3,0,14,-1,3,9,-1
1511885904690494,-1,-1,-4,-26,-12,-16,1,-2
1511885904691498,0,0,-1,13,3,5,-3,0
1511885904691498,3,0,-2,-11,-2,-2,10,1
1511885904704534,-5,2,6,33,5,-2,-13,-1
1511885904704534,-1,0,-3,-2,0,0,-3,-1
1511885904711555,1,0,-3,-6,-5,-2,5,-3
1511885904711555,0,-1,-5,-11,-3,-1,2,-1
1511885904727596,0,-1,-3,-5,0,-2,-2,1
1511885904727596,0,0,2,1,8,5,1,-3
1511885904729598,-1,0,-2,-2,-1,-9,-16,0
1511885904729598,0,0,0,5,4,0,6,0
1511885904749652,2,1,0,-9,-5,5,0,-1
1511885904749652,1,-2,2,5,1,2,-2,-1
1511885904751656,1,-1,0,-1,12,5,7,1
1511885904751656,-3,0,-3,11,-8,-13,3,1
1511885904764795,0,-2,-2,-9,3,-1,-5,0
1511885904764795,0,1,2,3,-3,5,-1,0
1511885904770818,-1,-1,-1,1,-3,-6,3,0
1511885904770818,0,-3,-1,-5,14,20,10,-2
1511885904787756,1,-1,0,-3,6,-11,-2,-1
1511885904787756,0,-2,-1,-7,-5,-9,2,2
1511885904788759,0,3,5,15,1,1,-2,-1
1511885904788759,-2,0,-5,-15,-10,-1,-4,-3
1511885904809813,-4,0,0,-9,-11,-14,-8,-2
1511885904809813,-1,-3,1,36,-3,9,7,0
1511885904811817,-1,-2,-2,-10,4,7,-14,-1
1511885904811817,1,0,1,0,-3,4,37,2
1511885904824875,-1,0,-4,-7,5,5,4,-4
1511885904824875,-1,1,-1,-9,-6,-4,-4,0
1511885904830960,-1,0,0,-2,12,20,2,-1
1511885904830960,-8,-1,-3,2,-4,-9,-10,-1
1511885904847994,4,-2,-4,-5,-4,-1,-7,1
1511885904847994,0,-1,0,-3,8,-5,1,-1
1511885904848915,1,-1,0,2,11,23,17,1
1511885904848915,0,0,1,0,-1,8,-13,-2
1511885904869974,-3,-3,-4,-6,-17,-19,-12,-2
1511885904869974,-1,0,-1,-6,-8,-14,18,1
1511885904871980,0,-1,-1,-2,-12,-27,-2,-2
1511885904871980,-2,-2,-1,1,9,-1,-9,0
1511885904884012,-3,-1,0,2,-1,7,-5,-1
1511885904884012,0,0,0,-1,-2,-6,-6,-1
1511885904893034,-2,-2,-1,-7,-8,-12,5,-1
1511885904893034,1,0,-2,3,0,3,-11,-1
1511885904908112,1,0,0,-5,3,13,1,-1
1511885904908112,0,-1,1,6,8,16,2,0
1511885904909078,-1,0,0,0,-15,-16,-8,-1
1511885904909078,-1,-1,-2,1,3,-3,-11,-1
1511885904930173,0,1,1,-4,1,-12,-3,-1
1511885904930173,-1,-1,-2,-3,-8,7,-2,0
1511885904932144,1,0,-2,2,13,21,-6,3
1511885904932144,-1,-2,-1,-3,-5,1,22,-5
1511885904944168,0,1,1,2,-1,-7,2,-1
1511885904944168,-4,-1,1,2,5,15,-9,-3
1511885904953211,0,-1,-1,-1,-2,1,-6,-1
1511885904953211,0,1,-1,-6,-24,2,-4,1
1511885904967346,-1,-2,-1,7,10,5,10,-1
1511885904967346,3,0,1,0,19,37,-29,2
1511885904969235,-5,-2,-3,-4,-13,-21,6,-2
1511885904969235,1,-2,0,-3,6,6,0,1
1511885904990401,1,1,-2,1,-6,-6,-9,1
1511885904990401,0,0,0,0,9,13,5,0
1511885904991296,0,1,0,-1,-27,-1,0,-1
1511885904991296,1,0,1,-2,-1,-17,-8,-1
1511885905003385,-1,-1,0,-1,2,2,-8,-1
1511885905003385,1,-2,-3,-4,-3,-26,35,1
1511885905012354,-1,-2,0,1,8,9,-2,-2
1511885905012354,0,0,0,2,-1,-11,5,1
1511885905027389,-3,-1,0,-1,8,18,7,-2
1511885905027389,-1,-1,0,-1,-10,7,-14,-2
1511885905029395,-1,-1,1,2,0,-15,-1,-4
1511885905029395,0,-1,-1,0,4,11,19,1
1511885905050533,2,-1,0,-2,-5,0,-42,0
1511885905050533,-3,-1,-3,-1,-7,-33,10,-1
1511885905051453,0,0,-2,-1,1,9,-2,0
1511885905051453,-5,-1,-1,-1,3,7,2,-3
1511885905063489,-6,0,0,-2,-6,-12,10,3
1511885905063489,2,-1,-4,-1,3,-7,-9,-4
1511885905072509,1,1,-2,-1,-17,-18,-8,2
1511885905072509,-1,-1,-1,-1,4,19,4,-1
1511885905087550,0,1,-1,2,4,8,6,-2
1511885905087550,-2,-2,1,-2,-5,-9,-8,1
1511885905089559,1,0,-1,-1,5,-2,38,2
1511885905089559,0,1,1,-2,3,-3,-64,1
1511885905110649,-1,-3,-5,-3,-7,-4,2,-3
1511885905110649,-3,-1,-1,-2,-2,10,-3,-1
1511885905111621,-4,2,0,1,8,7,-25,-2
1511885905111621,10,-1,0,1,-3,-4,55,5
1511885905123773,6,1,0,0,-2,-3,1,4
1511885905123773,-6,3,0,-3,-4,-13,0,-1
1511885905132675,1,-2,-1,-2,6,1,-5,3
1511885905132675,5,-1,-4,-9,-5,2,-5,-2
1511885905147719,-5,2,4,12,5,-3,0,-1
1511885905147719,-12,-4,0,-5,-7,-5,7,0
1511885905148715,2,2,5,5,4,1,1,-2
1511885905148715,-5,-5,-3,-1,1,-19,-21,0
1511885905169770,10,0,-3,-9,-4,7,-6,-2
1511885905169770,6,0,0,4,0,3,5,0
1511885905171774,-11,0,0,-1,5,1,10,3
1511885905171774,1,-1,1,1,-2,-9,-26,-10
1511885905183810,23,-1,-3,-6,-3,-11,-10,0
1511885905183810,2,-2,0,2,2,5,13,1
1511885905192831,1,-2,-1,-2,-2,15,4,-5
1511885905192831,4,0,6,1,3,-10,-1,4
1511885905207987,-14,0,-4,-13,16,47,18,1
1511885905207987,0,-4,-1,13,-7,-6,-6,-5
1511885905208896,6,-6,-6,4,-11,-13,0,2
1511885905208896,-10,3,7,-2,-2,9,2,-1
1511885905230045,-3,0,-4,13,11,-4,7,-1
1511885905230045,2,-1,-10,-16,-4,-4,-13,1
1511885905231934,-2,1,3,-1,34,-1,-7,-3
1511885905231934,-1,0,-2,-3,-66,-12,12,1
1511885905243993,-6,-4,-4,-20,-19,-19,0,-1
1511885905243993,5,2,3,26,39,17,-2,-1
1511885905260008,-6,-4,-12,-8,-11,-18,-7,-3
1511885905260008,-1,0,5,4,14,11,5,0
1511885905268029,1,1,16,5,1,0,4,0
1511885905268029,-1,0,-8,-4,-6,-8,-1,0
1511885905269032,-3,1,14,-6,-21,-5,-5,-4
1511885905269032,-2,-5,-18,-6,16,4,6,1
1511885905290310,-3,-1,8,10,17,9,0,-1
1511885905290310,-2,0,17,-3,-5,-9,-30,0
1511885905292236,0,-2,-28,-12,-8,6,2,-1
1511885905292236,0,-1,-15,-6,-33,-14,1,-1
1511885905303241,-2,-1,-3,9,39,-20,2,2
1511885905303241,0,2,14,-1,-13,-9,6,-3
1511885905312382,2,-3,-8,-3,-19,11,1,0
1511885905312382,-2,0,-6,-4,0,-9,-7,-2
1511885905327306,0,-3,8,9,-25,1,4,0
1511885905327306,0,0,-6,-13,-3,1,-1,-3
1511885905329312,0,1,11,5,19,7,1,0
1511885905329312,-4,-3,-14,10,-2,9,4,1
1511885905350364,-3,2,1,-1,-1,-9,-4,-2
1511885905350364,1,-1,-6,-2,0,1,9,0
1511885905351367,-2,0,1,-2,-9,0,-4,1
1511885905351367,2,3,8,-3,18,-1,0,1
1511885905363400,5,1,-4,-5,-8,-7,2,-1
1511885905363400,-1,-1,-1,-2,-1,-2,-2,-1
1511885905372460,1,-1,-2,0,-1,6,0,0
1511885905372460,0,2,9,3,17,8,-2,-1
1511885905387508,-4,-3,-3,-1,-6,3,2,-3
1511885905387508,2,-3,-8,-3,-6,-7,7,2
1511885905389472,0,1,5,3,9,12,-5,-2
1511885905389472,-6,-2,6,3,13,-18,-3,-2
1511885905410561,-3,-1,-5,-9,-12,0,-4,1
1511885905410561,-2,-2,-7,3,5,1,1,-1
1511885905411542,1,1,5,8,-2,-4,3,1
1511885905411542,-1,-1,-2,-6,23,-2,-1,1
1511885905423568,-3,-6,3,3,-15,-9,1,-3
1511885905423568,-1,2,-3,-6,-19,6,-23,0
1511885905432587,0,-2,-3,-4,5,-7,15,-4
1511885905432587,1,2,11,-3,10,5,-18,-2
1511885905447626,0,-4,-15,-3,-64,-5,2,-1
1511885905447626,0,-2,3,1,45,-9,-5,-2
1511885905449633,2,1,0,4,-6,5,-19,2
1511885905449633,0,-3,-14,-12,-26,13,31,0
1511885905469681,0,1,3,1,0,0,-6,-2
1511885905469681,-2,-1,5,2,-21,-4,7,-2
1511885905471686,-2,-1,-6,-5,3,-4,9,-1
1511885905471686,0,1,2,2,19,18,-7,-2
1511885905483831,-5,-2,0,1,-19,-5,-3,0
1511885905483831,-3,-1,-4,-3,-2,19,4,-2
1511885905492743,7,0,8,0,20,7,5,1
1511885905492743,1,-1,-1,7,-23,2,-3,0
1511885905506783,-2,-1,-4,-3,13,-1,1,-1
1511885905506783,0,0,1,-10,-6,-1,1,0
1511885905513802,-3,-2,-10,7,-6,-10,-6,-1
1511885905513802,0,-3,1,-1,-1,-2,3,0
1511885905529869,0,0,-4,-3,-15,-5,12,-2
1511885905529869,0,2,4,2,6,-16,-18,2
1511885905531849,0,1,5,-1,-7,7,-1,1
1511885905531849,1,-1,-5,1,15,0,-22,0
1511885905552995,-2,1,0,-3,-34,-10,17,-4
1511885905552995,0,-2,-3,-3,9,-14,-11,-1
1511885905553905,-1,-1,-1,-1,-10,18,11,-1
1511885905553905,-1,-1,3,3,24,-8,-12,-1
1511885905566943,1,0,-2,1,37,10,-19,1
1511885905566943,-1,-1,-3,-2,-36,0,30,-1
1511885905573962,-2,-1,0,0,5,-13,-10,-1
1511885905573962,0,0,0,3,-8,-2,14,1
1511885905590087,2,0,-1,-1,30,-2,-6,1
1511885905590087,-1,-1,-2,1,-10,-11,2,0
1511885905592092,0,-4,-5,-2,-5,-6,1,-1
1511885905592092,-1,0,3,1,15,22,11,0
1511885905612258,0,0,1,1,9,1,-5,-1
1511885905612258,-1,0,1,3,12,23,-4,1
1511885905614065,-2,-3,-2,-9,-96,-21,-5,-1
1511885905614065,-3,1,4,6,64,3,0,-1
1511885905627228,-1,0,-7,-8,-37,0,-3,0
1511885905627228,1,-3,-9,-1,-6,24,2,-1
1511885905634124,1,1,5,3,-6,-7,-3,0
1511885905634124,-2,-3,-2,-2,-28,-6,2,-2
1511885905650221,-5,-1,4,0,0,-5,10,-2
1511885905650221,3,2,1,-2,5,-6,-27,1
1511885905651223,-5,-1,-3,-3,19,-23,1,-2
1511885905651223,-1,-2,1,-3,-9,8,-2,-1
1511885905672275,-1,0,-1,-1,21,5,-4,1
1511885905672275,1,-1,0,9,-4,-10,4,-1
1511885905674278,-4,-2,-2,-2,19,8,6,-3
1511885905674278,1,0,-1,-1,-5,-13,-7,-2
1511885905687313,1,-1,-1,-3,-1,-2,-1,-2
1511885905687313,-1,-2,-3,-7,-3,-8,3,-1
1511885905693332,2,1,4,6,21,25,4,1
1511885905693332,0,-2,-1,1,-16,-8,5,1
1511885905710573,-2,-2,0,-3,-5,-16,-7,-1
1511885905710573,-1,1,10,-1,-17,-4,4,-1
1511885905711406,-1,-1,-12,2,54,-6,-6,-1
1511885905711406,0,0,3,-2,-21,-2,-1,1
1511885905732436,-2,0,1,-1,15,7,0,0
1511885905732436,1,0,-2,-2,-39,-9,-1,0
1511885905738451,1,1,7,0,-13,-8,-5,-1
1511885905738451,-3,-1,-4,4,-18,-5,0,-1
1511885905746598,-4,-2,0,2,20,12,2,0
1511885905746598,3,-2,-1,-2,-10,-2,7,-1
1511885905753618,-1,-1,-2,-1,15,5,-4,-2
1511885905753618,1,1,1,0,-39,-14,-2,-1
1511885905769700,1,3,3,1,-6,-7,1,0
1511885905769700,-2,-1,-5,-2,20,22,6,-2
1511885905771667,0,-4,-6,-8,-8,-11,-1,1
1511885905771667,1,-1,-1,-5,23,11,-1,0
1511885905792880,0,1,15,9,-16,2,7,0
1511885905792880,-1,-3,-19,-3,10,-6,-1,0
1511885905793892,2,-1,-5,0,11,-1,-1,0
1511885905793892,-2,-1,-5,-11,-32,-16,2,-3
1511885905806786,5,-1,9,-4,5,6,-6,2
1511885905806786,-2,1,4,11,17,-4,-1,1
1511885905814844,0,-1,3,-2,-19,4,-1,-1
1511885905814844,-1,0,-3,-4,12,-6,-1,1
1511885905829841,0,-2,-10,1,4,-6,-4,1
1511885905829841,-1,4,6,-3,4,11,2,-4
1511885905831824,5,0,-1,-1,-33,-3,1,-2
1511885905831824,-5,-12,1,5,81,13,2,3
1511885905852882,-7,-6,-9,-5,-3,-14,-7,-5
1511885905852882,-2,-2,1,-7,-15,-29,-1,-1
1511885905853882,1,2,2,6,3,27,-2,0
1511885905853882,4,4,-2,-4,-19,8,0,-1
1511885905866092,4,0,4,5,4,4,1,1
1511885905866092,0,-2,-2,2,16,-5,2,2
1511885905880957,-6,3,8,-4,-6,-5,-3,-2
1511885905880957,-5,-5,-27,-6,-14,-8,10,-1
1511885905890097,3,1,-2,16,13,8,-12,2
1511885905890097,4,7,8,-5,-18,-1,2,1
1511885905892097,1,-6,-13,2,13,-7,0,2
1511885905892097,-3,3,-8,-12,-21,-2,4,0
1511885905912203,2,0,10,2,6,-2,1,-4
1511885905912203,-9,-12,-5,-16,0,7,-2,-3
1511885905914043,-5,-2,-2,8,4,-18,2,1
1511885905914043,1,3,14,3,0,10,-5,-1
1511885905926075,3,2,-13,-2,2,5,4,2
1511885905926075,4,-1,1,9,11,-1,-5,1
1511885905935098,-8,-3,-3,-6,-6,-9,1,-3
1511885905935098,4,9,23,3,-6,-6,-5,1
1511885905950141,2,2,-19,-7,-2,-6,-2,-2
1511885905950141,-8,-8,-4,7,5,10,7,-3
1511885905952147,-6,-1,-1,-3,6,4,-1,3
1511885905952147,5,1,20,13,-6,-7,-3,-1
1511885905972320,-3,0,-10,-7,-4,4,1,-2
1511885905972320,3,0,-4,-14,-3,-12,-2,0
1511885905974321,0,-4,-14,2,10,6,1,-1
1511885905974321,-2,-1,12,5,-4,-4,-5,1
1511885905986356,-2,2,15,-1,-2,1,1,2
1511885905986356,-2,-4,-28,-6,-7,0,-2,-3
1511885905995378,-1,-3,19,9,-4,-8,-4,-3
1511885905995378,-1,0,-7,-4,-5,-8,-3,-5
1511885906009415,-3,-4,2,1,1,2,4,1
1511885906009415,0,2,10,6,-3,13,-2,1
1511885906017436,3,1,8,-8,-8,7,-3,-1
1511885906017436,-4,-8,-32,-15,-21,-27,-2,-1
1511885906032600,0,5,7,4,-4,-5,-3,-1
1511885906032600,-3,0,14,11,-1,-2,1,0
1511885906034489,1,-2,0,-5,-2,-13,-11,-1
1511885906034489,3,4,45,14,8,11,-2,1
1511885906046518,-6,-15,-85,-27,2,13,0,-2
1511885906046518,-4,-5,-3,10,-4,-14,-1,1
1511885906055541,1,3,14,5,-2,-6,2,-1
1511885906055541,1,0,10,10,4,1,-1,-1
1511885906069619,1,1,12,-5,-4,-1,-3,0
1511885906069619,3,0,1,-4,20,39,6,2
1511885906071584,1,3,0,-2,38,17,2,2
1511885906071584,-3,-5,-17,1,-57,-5,1,-2
1511885906092639,-1,-2,14,1,2,-12,-1,-2
1511885906092639,-1,1,-14,-8,3,-3,-4,-1
1511885906093641,0,3,4,-1,8,9,3,1
1511885906093641,-2,0,-8,-4,17,3,-2,1
1511885906106673,0,-1,5,5,1,4,1,-1
1511885906106673,-2,2,6,0,-9,-11,-2,-3
1511885906114695,-1,-1,-3,-3,-10,-16,0,-1
1511885906114695,0,-3,-12,-3,9,11,13,-1
1511885906129927,-8,0,9,4,-10,2,-26,-2
1511885906129927,2,3,6,-3,1,-9,0,1
1511885906131740,0,-2,-7,-4,-16,-4,3,-1
1511885906131740,-3,-1,-11,2,8,-3,2,1
1511885906152903,0,1,22,2,6,3,9,0
1511885906152903,1,2,4,-9,-1,-6,-6,-1
1511885906153823,-2,-4,-23,1,-25,-18,-5,-2
1511885906153823,-2,-3,-8,2,11,-4,-2,0
1511885906165831,-1,-7,2,-3,-19,-12,1,1
1511885906165831,1,1,15,2,-4,-7,-4,0
1511885906174975,0,-4,-10,-7,9,4,3,0
1511885906174975,2,4,-6,-7,-49,-4,-4,-3
1511885906190033,0,-7,-37,4,-1,-4,3,-3
1511885906190033,-4,-3,7,7,85,-10,2,0
1511885906192139,-2,0,7,-6,-49,6,1,0
1511885906192139,3,9,21,3,46,21,-1,1
1511885906212262,-2,-10,-2,4,-28,-9,1,-2
1511885906212262,0,3,-3,0,-2,-10,-3,-1
1511885906214080,2,5,10,-3,1,9,0,2
1511885906214080,-2,-9,-18,1,1,-17,-5,-1
1511885906226142,1,6,11,-6,6,1,3,1
1511885906226142,-1,2,33,6,-6,9,-1,-3
1511885906235134,-1,-4,-38,-8,4,-5,-3,-1
1511885906235134,4,10,54,-10,-6,3,1,1
1511885906250347,0,-3,-26,6,18,-2,0,1
1511885906250347,0,-7,-36,-6,-44,-1,0,-1
1511885906251331,3,7,36,8,13,1,3,5
1511885906251331,-1,-4,-13,-8,8,2,-1,-1
1511885906272237,-4,0,8,-11,-73,-8,-3,-2
1511885906272237,1,19,102,32,15,7,0,0
1511885906274239,11,9,-71,3,2,3,5,3
1511885906274239,-20,-54,-55,-20,3,-21,-6,-4
1511885906286275,-5,9,49,11,21,27,-1,-6
1511885906286275,3,-1,-27,-14,-56,-10,3,0
1511885906295332,1,3,17,18,92,-8,-4,-2
1511885906295332,10,23,37,12,17,19,0,-1
1511885906310380,1,-14,-62,-19,-7,6,7,4
1511885906310380,-1,0,-23,-2,18,1,-2,-2
1511885906311339,1,3,18,-10,20,9,0,4
1511885906311339,1,9,13,11,-13,-21,-7,1
1511885906332429,-8,-6,-12,-18,18,-7,-1,-2
1511885906332429,1,9,24,1,3,4,1,-1
1511885906334399,-10,-21,-19,-3,-40,-13,-5,-5
1511885906334399,-3,-5,-18,-7,14,3,-1,-2
1511885906346465,7,8,14,9,22,2,-3,2
1511885906346465,-4,-7,-21,-10,-36,-14,1,-1
1511885906355459,-6,-6,17,2,-4,22,0,-3
1511885906355459,1,5,41,24,-14,-7,0,-2
1511885906369492,-1,-7,-46,1,10,-1,1,0
1511885906369492,-1,-3,-18,-9,1,-5,-3,1
1511885906376511,1,9,50,0,-10,10,1,0
1511885906376511,-1,2,-22,-4,-3,-9,0,1
1511885906393557,1,-1,32,15,15,17,2,1
1511885906393557,3,3,-22,-17,-19,-11,-2,1
1511885906394559,-4,-8,-36,-27,-20,0,-1,-2
1511885906394559,0,-2,34,34,42,5,1,-2
1511885906406702,-2,-7,-38,-9,5,-19,-5,-3
1511885906406702,-2,-5,-3,4,-2,9,2,-1
1511885906415616,0,5,1,-7,-36,-12,-5,-3
1511885906415616,2,3,-8,-12,11,2,0,-2
1511885906429781,-1,5,30,-1,-3,-10,0,1
1511885906429781,-2,-2,-9,2,2,11,0,0
1511885906435790,-1,2,14,5,-3,-12,0,0
1511885906435790,-2,-11,-41,-11,-12,5,-1,0
1511885906452837,-1,7,45,13,-1,0,-1,0
1511885906452837,-1,-9,-68,-21,-4,3,0,-1
1511885906453868,0,1,21,14,8,-4,-1,-1
1511885906453868,-1,3,-1,-5,-14,4,0,-1
1511885906474895,2,5,7,-1,-14,-1,1,-1
1511885906474895,-2,-4,11,11,15,-4,-2,0
1511885906476897,0,-2,2,0,0,-1,0,-1
1511885906476897,-1,0,-38,-25,-10,2,-1,2
1511885906489961,3,6,38,4,-4,-1,-2,-1
1511885906489961,-3,-6,-28,8,10,-3,-1,-2
1511885906496043,-1,-6,-9,6,-1,-5,-1,-1
1511885906496043,-4,1,4,-1,-11,0,2,-2
1511885906512127,-3,-1,3,-8,7,-3,0,0
1511885906512127,-2,3,17,0,-3,-1,-1,0
1511885906514129,-1,2,-1,-3,-10,2,-3,0
1511885906514129,0,-3,-6,-2,2,0,-2,1
1511885906535211,0,-1,-9,5,1,-3,2,-1
1511885906535211,-1,1,15,5,2,6,-6,-2
1511885906536189,-2,-4,-12,-10,-2,-3,11,0
1511885906536189,1,2,5,1,0,0,-11,-1
1511885906548223,-1,-1,-5,-9,0,-9,-1,0
1511885906548223,-1,-2,1,0,-8,-3,6,-1
1511885906557289,-1,0,3,3,6,14,-1,-3
1511885906557289,-1,0,-2,-3,-8,0,2,0
1511885906572287,5,0,-2,-1,1,2,0,0
1511885906572287,0,-3,-4,-2,1,-12,-3,1
1511885906574289,-5,-1,-4,-4,-6,-15,-1,-1
1511885906574289,-3,1,4,1,-2,1,11,-1
1511885906595536,8,0,-5,4,5,17,-16,-1
1511885906595536,-22,1,8,0,-1,-5,3,-4
1511885906596352,1,0,0,-1,0,-1,-9,-2
1511885906596352,0,-1,-5,1,-5,1,6,0
1511885906608511,-7,-1,0,-2,-1,-4,7,0
1511885906608511,4,-5,-1,2,-1,2,-3,-1
1511885906617408,-2,1,1,0,2,-5,4,-1
1511885906617408,-3,1,5,4,1,-5,-2,-2
1511885906632448,1,0,-4,-6,-3,-6,1,-1
1511885906632448,4,0,3,-1,4,6,6,-2
1511885906634451,-1,-2,-10,-1,0,-1,-3,-1
1511885906634451,3,1,9,2,-2,-1,-2,-1
1511885906655505,-3,-2,-2,2,-1,0,2,0
1511885906655505,16,0,-2,-3,1,3,-14,1
1511885906656508,-19,-2,6,3,-1,-5,26,2
1511885906656508,-8,0,-4,0,-2,-5,-6,-3
1511885906668540,1,0,-3,-4,-1,7,1,1
1511885906668540,3,-1,1,-6,-1,-7,-4,0
1511885906677565,0,3,1,-1,0,1,-2,1
1511885906677565,-1,-1,-6,-6,-1,8,-10,0
1511885906692605,-9,-1,-2,15,2,-14,-1,-5
1511885906692605,4,-1,4,-6,1,7,3,1
1511885906694609,2,-3,-3,-4,-2,0,-8,-1
1511885906694609,2,-2,-2,6,0,-1,7,-1
1511885906714837,1,0,3,-4,-1,1,-12,-1
1511885906714837,-2,2,1,3,-2,-2,1,-1
1511885906716669,7,-3,-2,-4,-1,-1,-5,0
1511885906716669,-7,-2,-2,-4,-2,-2,6,0
1511885906728800,4,-1,1,0,1,1,-13,1
1511885906728800,-7,-1,0,-1,-3,-6,3,-1
1511885906737724,7,0,-3,1,1,-2,-5,0
1511885906737724,12,0,1,1,0,-6,-3,0
1511885906752767,-3,-5,-3,-2,-4,-9,-18,-5
1511885906752767,-3,0,-1,-1,7,20,46,2
1511885906753768,-3,-1,1,-1,-6,-14,-5,-1
1511885906753768,-1,0,-2,2,4,6,-1,1
1511885906775006,1,0,0,-2,1,-5,3,-2
1511885906775006,2,-1,0,0,-5,-9,-11,-1
1511885906776828,3,1,2,6,18,13,-13,0
1511885906776828,-2,-1,-5,-6,-7,2,16,-1
1511885906788863,1,3,2,5,31,53,10,3
1511885906788863,0,0,1,5,-9,17,-12,2
1511885906797886,10,-1,-1,-1,-14,-21,4,-1
1511885906797886,-12,-3,-2,-8,-3,0,-5,-1
1511885906812925,-1,0,1,-1,8,5,-9,-2
1511885906812925,-2,0,1,0,8,0,-1,-2
1511885906813928,2,-2,-4,-1,-12,17,-4,-1
1511885906813928,5,0,0,2,20,-2,-10,-2
1511885906834986,2,-1,-3,-5,-29,-22,17,3
1511885906834986,-1,1,1,-2,-14,-20,-48,-4
1511885906836991,5,-2,-2,-3,-7,-4,67,5
1511885906836991,-9,0,0,-1,12,1,-4,-1
1511885906849020,-6,0,0,0,-6,17,14,2
1511885906849020,0,-2,-4,1,32,-3,-24,0
1511885906858049,-4,0,2,-2,-37,9,-2,-3
1511885906858049,3,0,1,1,-2,3,-1,0
1511885906872085,6,3,3,0,22,1,11,-1
1511885906872085,-4,-6,-4,-8,-43,-55,-6,2
1511885906874091,-3,-1,-2,3,19,-5,-25,-2
1511885906874091,4,-1,-1,-4,-58,12,12,-1
1511885906895268,-5,-1,-3,4,50,45,-46,0
1511885906895268,1,-1,0,0,2,4,71,-5
1511885906897150,-7,-1,-3,-1,3,-14,-21,-3
1511885906897150,3,3,2,1,-16,-19,-15,0
1511885906908221,-2,-2,-3,2,6,-19,5,5
1511885906908221,-2,0,3,1,7,19,1,-5
1511885906917204,-3,0,0,1,16,25,2,-4
1511885906917204,5,-2,-5,-11,-40,-11,14,4
1511885906932286,-4,-2,-4,-8,-32,-28,-33,-8
1511885906932286,-1,-1,1,4,58,7,-3,0
1511885906934252,-6,0,2,-3,-35,-20,-4,4
1511885906934252,2,-2,0,6,57,16,6,3
1511885906955345,-3,-2,-1,-4,-42,2,-15,-7
1511885906955345,1,0,-2,1,-28,-7,23,2
1511885906956311,0,3,-1,0,21,-2,-21,0
1511885906956311,1,1,6,3,38,16,4,0
1511885906977409,0,-5,-8,5,-5,-53,23,3
1511885906977409,1,2,3,5,-11,40,-24,2
1511885906979371,-2,-2,-9,-2,17,49,10,-4
1511885906979371,-6,-2,6,2,-24,-8,1,-2
1511885906992406,-3,-4,-5,-8,-32,-54,1,-1
1511885906992406,0,0,-3,-8,1,-11,-3,1
1511885906998418,0,-4,4,14,86,26,7,0
1511885906998418,-2,1,-6,-7,-38,5,-5,-3
1511885907015466,2,0,4,-2,-7,5,6,0
1511885907015466,-2,-1,-3,-8,-48,-28,2,-4
1511885907016465,-4,-2,-3,-7,-14,-62,-44,-2
1511885907016465,2,1,1,11,36,0,29,0
1511885907028675,-2,-2,5,5,16,5,9,-1
1511885907028675,1,1,-23,-9,-6,20,-1,2
1511885907037521,-4,0,3,-5,-45,-14,-10,-2
1511885907037521,-3,-5,6,-12,38,-6,-15,-2
1511885907052565,-3,-6,-18,0,6,-2,9,-4
1511885907052565,0,0,15,6,-5,0,-3,1
1511885907054680,3,2,-17,-6,-3,15,9,1
1511885907054680,1,0,-8,2,-27,-10,-9,-1
1511885907074887,0,0,6,-12,-3,24,9,-1
1511885907074887,2,2,5,-3,-23,-16,-13,-2
1511885907076892,-10,-4,11,17,89,26,19,-4
1511885907076892,1,2,-1,-6,-32,-7,-41,1
1511885907088925,5,5,-2,9,24,18,-3,3
1511885907088925,-3,2,0,1,-6,-8,0,0
1511885907097947,-3,-9,-2,-11,-47,-17,8,-3
1511885907097947,-2,-3,-8,-2,25,17,2,-4
1511885907112092,-5,-1,6,3,12,2,1,-1
1511885907112092,8,0,2,4,34,34,-16,-2
1511885907113988,-5,2,2,-3,-24,7,21,2
1511885907113988,-4,-3,-6,0,10,6,-7,-1
1511885907135132,2,2,2,1,-11,7,9,0
1511885907135132,1,-2,4,5,13,3,2,3
1511885907137054,3,1,-5,-4,-10,-9,-9,-2
1511885907137054,-3,-2,1,2,13,-10,0,-2
1511885907149088,1,0,1,-4,-12,1,4,-1
1511885907149088,-5,-1,3,3,3,-7,2,-2
1511885907158114,11,1,-4,-4,-2,6,-5,0
1511885907158114,-10,-1,-3,2,-11,-9,5,1
1511885907172185,1,-2,-7,-5,-7,-16,-1,1
1511885907172185,-11,-2,2,7,8,-9,2,-5
1511885907174174,11,4,4,-3,-25,-28,-6,0
1511885907174174,11,-3,6,4,-8,-2,4,0
1511885907195246,-3,0,-6,-11,-10,-19,6,-1
1511885907195246,-1,-3,-2,-1,-12,-4,-29,2
1511885907196214,-2,2,12,12,-4,10,6,1
1511885907196214,0,0,-9,-5,0,-5,1,-2
1511885907208433,-4,-3,-1,-7,-39,4,-3,1
1511885907208433,2,0,-8,-5,49,11,11,1
1511885907217266,-2,-3,0,-6,-24,-1,-1,0
1511885907217266,-2,-2,1,6,6,1,-5,-1
1511885907232302,-3,0,-1,-2,15,8,4,-1
1511885907232302,0,-1,0,-4,-28,-3,1,-2
1511885907234308,-3,-2,-2,-1,-1,-7,-5,1
1511885907234308,1,-1,-3,-1,2,-5,5,-2
1511885907255410,0,-1,6,2,-18,14,-2,-1
1511885907255410,0,-2,-3,-2,10,-3,3,0
1511885907256375,-3,-2,-4,2,13,0,-9,-2
1511885907256375,-1,0,1,-7,-12,2,-1,-2
1511885907268441,0,0,3,4,-10,-5,-6,0
1511885907268441,-1,-2,-4,-1,-7,-3,2,-1
1511885907277498,-6,-1,-4,-7,1,-3,-21,0
1511885907277498,2,3,4,5,4,26,63,4
1511885907292538,0,-1,0,4,14,3,-6,-1
1511885907292538,-2,-2,-4,0,1,-3,3,1
1511885907294542,0,0,1,-1,-6,-4,3,-1
1511885907294542,-1,0,5,1,-7,-2,-19,0
1511885907314595,-1,-2,-8,3,24,-1,-1,0
1511885907314595,1,0,8,7,-8,2,3,-1
1511885907316601,1,-2,-3,-4,-2,8,4,0
1511885907316601,-2,0,-5,-7,-9,-9,-11,-3
1511885907328679,2,1,10,9,12,-3,3,-1
1511885907328679,-2,-3,-10,-13,-5,-1,-8,-1
1511885907337682,1,1,3,7,-3,1,5,1
1511885907337682,-3,1,3,0,6,-11,-6,-3
1511885907351698,-1,0,3,-6,-8,-3,-2,0
1511885907351698,0,-1,-3,-1,-3,0,2,-1
1511885907358832,-1,-2,2,-2,-5,-8,1,-2
1511885907358832,-1,-3,10,-3,-1,10,-2,0
1511885907374867,-1,-2,-25,-3,-1,-1,-4,-1
1511885907374867,-2,-2,7,6,-6,-7,0,-1
1511885907376760,-2,1,-3,-2,3,-2,4,-2
1511885907376760,0,0,4,-2,-7,-5,-12,0
1511885907388894,-1,-3,3,1,8,-3,-1,-1
1511885907388894,-3,-1,-16,-5,-1,2,1,0
1511885907397817,-1,-1,1,0,-3,-2,2,-1
1511885907397817,0,1,-2,-3,-6,-8,-4,0
1511885907412019,0,-1,1,-7,1,2,0,0
1511885907412019,-3,0,-2,1,0,-6,1,0
1511885907418875,-1,-1,2,5,-1,-4,-1,0
1511885907418875,-2,-2,-10,-2,-1,-5,-3,-1
1511885907435038,0,-1,1,-1,-13,-3,0,0
1511885907435038,0,1,3,-2,32,2,-1,0
1511885907437044,0,1,-2,-2,-11,-1,1,0
1511885907437044,-3,-3,-10,-1,-5,0,-2,1
1511885907458136,-3,1,7,6,2,2,0,0
1511885907458136,0,0,5,0,-19,-8,-1,-1
1511885907459102,0,-1,-11,1,3,4,1,-1
1511885907459102,2,0,3,0,4,-3,-1,-2
1511885907472176,0,0,13,-2,-13,-6,-3,0
1511885907472176,-1,1,-11,-5,-10,-5,-2,-1
1511885907479160,-4,-5,-11,0,5,-1,-1,0
1511885907479160,-1,2,2,-2,-5,-3,-4,-3
1511885907495307,-3,1,13,3,5,0,-1,-1
1511885907495307,0,0,-6,-3,-2,0,1,0
1511885907496201,1,1,9,3,-1,-3,0,0
1511885907496201,-2,-2,-7,-1,-1,-1,-3,0
1511885907517257,-2,0,3,12,30,0,-2,1
1511885907517257,2,1,7,-16,-57,-3,0,-1
1511885907519259,-1,-1,-17,-5,-6,5,0,0
1511885907519259,-2,-2,11,11,3,-2,-1,-1
1511885907531417,0,0,-4,-5,6,-2,-1,-1
1511885907531417,-1,-2,0,9,12,-1,-2,0
1511885907538436,0,-2,0,-2,-3,-1,-1,1
1511885907538436,1,0,1,-1,-4,4,1,0
1511885907555478,-2,-3,-14,-4,-5,-3,0,0
1511885907555478,-1,-3,-1,1,4,-2,0,-3
1511885907556482,0,1,7,-4,-4,-1,1,0
1511885907556482,2,1,-5,-2,7,-1,-1,0
1511885907577730,-1,-1,-5,-6,-14,-4,-1,-1
1511885907577730,-1,-3,-2,0,2,1,0,-1
1511885907579543,-1,1,4,-1,5,-8,2,1
1511885907579543,-2,-2,3,0,-1,0,1,-1
1511885907591773,0,-1,-15,-3,-7,16,2,0
1511885907591773,-1,-2,7,1,4,-4,-1,0
1511885907598593,2,-1,-2,1,-5,0,-1,0
1511885907598593,1,1,0,3,-3,0,0,2
1511885907614667,-3,-4,-1,-11,-3,-5,-2,0
1511885907614667,-1,0,-14,0,0,-4,0,0
1511885907620686,-2,-1,3,-1,2,18,1,0
1511885907620686,1,-2,-3,-2,-3,-10,0,-1
1511885907637731,2,0,10,0,-1,6,0,0
1511885907637731,0,1,1,1,4,-4,0,1
1511885907638829,-4,0,1,-1,-1,-8,-2,-4
1511885907638829,-2,-2,-1,-3,0,3,-1,-2
1511885907651768,1,-1,-6,0,-4,-13,-3,-1
1511885907651768,-1,-1,2,-1,4,23,4,1
1511885907658883,-1,-1,-1,-1,0,-6,0,0
1511885907658883,-1,-2,-3,-2,-1,-2,-1,-2
1511885907675007,0,-2,-4,-2,-5,-11,-1,0
1511885907675007,-1,0,3,2,-4,-13,-4,-1
1511885907676833,0,1,6,2,2,1,-1,-1
1511885907676833,-1,3,2,-5,-8,3,0,1
1511885907697891,0,1,20,4,7,-2,1,-1
1511885907697891,-5,-12,-36,5,-6,4,-1,-4
1511885907698890,0,4,7,2,3,-2,0,0
1511885907698890,-2,-4,-22,-4,1,-11,-1,-2
1511885907711190,1,1,13,-4,-7,5,1,0
1511885907711190,1,2,11,-3,2,0,0,-1
1511885907720040,0,0,6,1,1,1,0,-1
1511885907720040,0,0,3,1,-3,-3,-1,0
1511885907735102,0,1,-9,-1,2,3,-2,1
1511885907735102,-2,-2,6,0,1,-8,-3,-1
1511885907737086,-1,-3,-9,-3,-2,-10,-2,-1
1511885907737086,-1,2,4,0,0,-13,-4,-3
1511885907757254,-2,-3,-11,-2,-3,3,-3,-4
1511885907757254,1,3,5,0,7,13,8,1
1511885907759142,1,-1,0,-3,-3,4,0,-1
1511885907759142,-1,-3,-5,0,2,7,4,0
1511885907771369,-1,0,-2,0,-5,-9,-4,0
1511885907771369,0,1,3,-3,-2,-9,-4,-2
1511885907780200,-1,-3,-3,-1,-2,-1,-1,0
1511885907780200,0,0,1,1,0,0,-1,0
1511885907795364,-3,-1,-4,-3,-4,-3,2,-1
1511885907795364,-1,1,4,-3,0,1,-2,1
1511885907796247,-1,-3,-4,0,-3,-6,1,0
1511885907796247,-1,-2,0,0,-2,6,-3,1
1511885907817302,0,-1,0,-1,1,0,0,-1
1511885907817302,0,0,-2,-2,0,-2,0,-1
1511885907819304,-1,-2,-4,0,-2,2,0,0
1511885907819304,-1,0,1,-2,-1,1,1,0
1511885907831570,0,0,-3,-2,-2,-1,0,-1
1511885907831570,0,1,4,-1,1,-5,-1,0
1511885907840489,0,0,0,-3,-3,-4,0,-1
1511885907840489,0,-4,-3,2,1,5,0,-2
1511885907855504,2,0,-4,1,0,0,1,0
1511885907855504,0,3,4,0,-3,-4,-2,-3
1511885907856510,-2,1,-1,-2,-1,-5,-3,-1
1511885907856510,-1,1,-2,-3,0,-2,-1,0
1511885907877750,0,-3,-2,1,1,-1,0,1
1511885907877750,-2,0,-2,0,1,-4,0,-1
1511885907879568,-1,0,-2,-2,-1,0,0,-1
1511885907879568,-1,-1,-1,-2,0,-3,-1,0
1511885907891734,-2,-2,1,3,1,-2,1,-1
1511885907891734,0,0,2,-2,-1,-6,-23,-1
1511885907900625,-1,-3,-1,0,-1,0,12,3
1511885907900625,0,1,1,-2,0,-4,-15,-1
1511885907916699,1,-2,-4,-4,-4,-2,4,-1
1511885907916699,1,-2,2,6,1,1,-1,-1
1511885907917670,-2,-4,-6,-7,-15,-9,-5,-4
1511885907917670,3,5,8,7,20,7,13,2
1511885907937748,-2,-1,-1,-1,4,-5,-10,2
1511885907937748,-1,1,0,0,-4,-5,4,-2
1511885907938755,-1,-1,-6,-5,-5,-4,-4,-2
1511885907938755,-2,0,5,8,1,7,11,2
1511885907951758,0,2,-3,-3,-2,-4,-9,-3
1511885907951758,0,-3,1,3,3,-3,7,0
1511885907959780,-1,0,-2,2,5,0,4,-3
1511885907959780,-1,-2,-4,-6,-8,-12,-10,1
1511885907974823,-1,-1,-1,-1,-3,-1,1,-3
1511885907974823,-2,-1,-1,-2,0,-12,3,2
1511885907976825,-2,1,1,1,3,-18,4,-3
1511885907976825,-1,0,-4,-1,-5,-33,5,1
1511885907997885,-2,4,5,1,1,-66,18,5
1511885907997885,1,7,-1,-3,-2,-96,19,2
1511885907998884,6,0,1,6,11,16,0,4
1511885907998884,2,2,-3,-3,-3,-21,4,0
1511885908011046,-3,-6,-5,5,1,101,-12,-3
1511885908011046,-5,-11,-7,-9,-3,124,-23,-9
1511885908020071,-7,-4,0,0,-3,-16,-2,0
1511885908020071,-5,4,2,0,-3,-93,8,4
1511885908035115,4,12,4,0,-1,-98,12,9
1511885908035115,1,-11,-8,-5,-3,76,-6,2
1511885908037115,6,-25,-9,-2,-11,127,-44,-10
1511885908037115,-12,-31,-18,-9,-9,127,-57,-27
1511885908057286,-17,-19,-9,-8,-11,104,-38,-23
1511885908057286,-7,-14,-4,-5,-4,95,-24,-17
1511885908059182,3,-2,-1,-7,-8,68,-18,-6
1511885908059182,6,-1,2,-4,-3,-7,-6,-5
1511885908071206,10,3,4,0,4,-62,10,0
1511885908071206,2,10,4,-4,-4,-128,19,3
1511885908080442,-2,10,8,0,5,-128,26,5
1511885908080442,3,12,10,9,5,-119,30,8
1511885908095439,-3,8,1,1,0,-97,31,6
1511885908095439,6,11,5,6,5,-100,24,9
1511885908096440,0,6,0,5,7,-56,11,5
1511885908096440,-1,-3,-3,2,6,85,-11,3
1511885908117498,-1,-7,-6,-3,-1,92,-6,0
1511885908117498,-4,-5,-3,1,-5,42,-6,-2
1511885908119504,-2,-2,0,-3,-4,11,-4,-2
1511885908119504,-2,-2,-1,-3,-6,4,-3,0
1511885908131536,1,-2,0,-2,-4,-13,-5,0
1511885908131536,3,5,1,1,0,-43,1,1
1511885908140726,-3,2,2,-1,2,-28,7,2
1511885908140726,1,-1,0,-2,2,-29,6,2
1511885908155598,2,2,0,2,0,-28,3,2
1511885908155598,1,1,1,2,4,-17,3,0
1511885908156601,-1,3,1,0,0,-24,4,1
1511885908156601,-1,3,0,-1,-1,-22,4,-2
1511885908177660,1,-2,-1,-1,-1,-3,-1,-3
1511885908177660,0,-1,0,3,4,0,0,-1
1511885908178659,-2,1,-1,-2,0,-4,1,-1
1511885908178659,1,1,0,1,-1,0,8,1
1511885908191719,-2,-2,0,-1,-3,10,-8,0
1511885908191719,1,-1,-2,0,-3,4,-1,1
1511885908199717,-1,1,-2,-3,-1,3,-9,-2
1511885908199717,-1,-1,-1,2,2,7,2,-1
1511885908214778,0,1,-1,0,-1,8,-3,-3
1511885908214778,-3,-2,-3,-4,-2,6,0,-1
1511885908216760,-1,0,-1,0,0,2,0,-1
1511885908216760,-2,-2,-2,-3,-2,3,-3,-2
1511885908237866,-1,-3,-1,-1,-1,3,-3,-1
1511885908237866,0,-2,-1,-1,-2,-4,-9,-3
1511885908238818,-1,0,-1,1,1,3,3,-2
1511885908238818,0,0,-1,-2,0,-3,-3,-2
1511885908250872,-1,-2,0,-1,1,-3,-1,1
1511885908250872,-1,-1,-2,-1,0,2,1,1
1511885908259876,-1,-1,0,0,-2,-3,0,-1
1511885908259876,-2,-1,-2,-2,-4,-3,0,0
1511885908273963,0,0,0,0,1,0,1,1
1511885908273963,-1,0,-1,-1,0,-1,-2,0
1511885908280929,1,-2,-2,0,0,-1,-1,0
1511885908280929,0,0,0,-1,-1,-1,-3,-1
1511885908296975,0,-1,0,0,-5,0,-2,-1
1511885908296975,-1,-1,-1,-1,2,2,-3,-1
1511885908298977,-1,0,0,-1,0,-2,2,0
1511885908298977,-3,-1,1,0,0,0,-1,-1
1511885908311269,0,0,-1,-1,1,1,1,-2
1511885908311269,-2,-2,-1,-2,-5,2,0,0
1511885908320172,0,-1,0,-2,-3,-2,-1,0
1511885908320172,-2,-2,-2,0,-2,0,0,0
1511885908334393,-1,0,-1,0,1,-1,-1,-2
1511885908334393,0,-2,-1,0,-1,-4,1,0
1511885908341420,-2,0,-2,0,0,-3,0,-1
1511885908341420,-2,0,-1,-4,-2,-5,1,0
1511885908357431,-2,1,0,0,1,-4,2,-1
1511885908357431,-1,-1,0,-3,-1,-11,2,-1
1511885908359277,-1,0,6,-1,-1,0,1,0
1511885908359277,1,-5,-11,1,1,28,-3,0
1511885908380526,-2,-5,-3,-2,-2,55,-11,-1
1511885908380526,-1,-5,-8,-2,-1,36,-11,-1
1511885908381335,-1,-1,4,0,1,13,-4,-2
1511885908381335,-2,-2,13,0,-2,13,-6,-2
1511885908394369,0,1,-12,-4,-3,2,-5,-2
1511885908394369,-2,-2,-10,3,2,-7,0,-2
1511885908401572,-2,-2,3,1,-3,-4,-1,-1
1511885908401572,-2,-2,-1,-1,-1,5,-1,0
1511885908417455,-1,0,16,-1,-2,12,-3,-2
1511885908417455,1,2,10,-2,-2,-3,0,-1
1511885908419463,0,2,-7,4,-1,-35,5,-1
1511885908419463,-1,3,-5,-8,-2,-48,6,-1
1511885908440554,2,-3,-6,-9,-1,-27,4,3
1511885908440554,-6,-9,-30,9,1,2,1,-1
1511885908441495,3,3,11,0,-5,23,-4,-3
1511885908441495,0,-2,-2,-1,-1,17,-3,0
1511885908454533,0,1,18,5,1,-2,-1,-1
1511885908454533,6,3,-2,-1,1,3,-3,0
1511885908460764,-4,-6,-5,-2,-2,11,-3,-1
1511885908460764,-4,-6,-1,-6,-2,-4,-4,-2
1511885908477935,2,1,14,6,1,6,3,-1
1511885908477935,1,6,11,-2,-2,7,-2,1
1511885908478816,-1,-11,-53,-14,-1,6,-2,-1
1511885908478816,-1,-1,11,1,1,7,-2,-1
1511885908499872,-1,1,-8,3,-2,-10,0,0
1511885908499872,0,1,4,-7,-1,-8,2,0
1511885908501874,1,-1,8,9,4,-15,3,1
1511885908501874,0,1,-8,-3,-3,-16,2,-1
1511885908514095,-1,-1,-8,-4,-1,-17,1,0
1511885908514095,-2,7,12,0,0,-12,3,-3
1511885908521102,4,3,8,-1,-1,-12,1,3
1511885908521102,-6,-19,2,0,-1,-5,2,1
1511885908537996,-4,2,1,-1,2,-6,-1,-4
1511885908537996,-3,-9,-22,3,3,6,2,1
1511885908538972,-1,4,-1,-6,-3,5,0,-2
1511885908538972,7,17,41,11,2,11,-3,1
1511885908560293,0,-5,-22,0,-2,13,-3,0
1511885908560293,-3,-2,4,-8,1,5,-1,0
1511885908561253,-6,-4,3,-1,2,-1,-1,-2
1511885908561253,2,1,-10,-2,-2,-8,-2,-2
1511885908574310,2,5,10,-1,-4,-4,-3,-1
1511885908574310,7,-4,14,4,1,4,-1,0
1511885908581206,-7,-9,5,9,-1,5,-2,-1
1511885908581206,-7,-6,-29,-16,-2,-7,-1,-2
1511885908597268,0,-11,-19,-10,-2,-9,-1,-4
1511885908597268,7,18,-9,-4,-3,0,-1,1
1511885908599269,6,11,29,9,-14,14,0,1
1511885908599269,-3,-3,10,1,-3,2,0,1
1511885908620434,-10,-12,-18,7,-2,-5,-1,-4
1511885908620434,-8,-13,-22,-7,-4,-20,2,-3
1511885908621306,-2,9,4,-2,4,-33,-3,-1
1511885908621306,3,15,5,0,-34,-38,6,4
1511885908634343,3,5,13,12,44,-22,5,4
1511885908634343,1,5,17,3,1,0,7,4
1511885908641358,-2,-8,-20,-5,-9,2,2,-2
1511885908641358,0,3,-5,3,35,14,0,-2
1511885908657591,0,-5,-4,-11,-12,8,-2,1
1511885908657591,-2,-3,5,3,-9,19,-6,-1
1511885908659409,1,-2,1,-3,15,16,-7,0
1511885908659409,3,0,2,2,-15,51,-9,-2
1511885908679466,-5,-8,-10,-14,-6,18,-3,-5
1511885908679466,-4,-2,14,11,8,2,-4,-3
1511885908681464,3,-1,-18,-7,-4,-16,0,1
1511885908681464,5,8,-7,2,-13,-28,-1,-1
1511885908693498,13,6,17,3,3,-12,1,4
1511885908693498,-9,-10,28,1,10,1,4,1
1511885908702521,-12,-19,-55,-13,-8,-4,3,-2
1511885908702521,-3,-2,6,2,1,-9,0,-2
1511885908717599,4,10,28,4,-15,-8,3,1
1511885908717599,4,10,-16,5,1,-19,-3,1
1511885908719642,6,11,18,-6,5,3,-3,2
1511885908719642,-12,-13,4,-1,14,12,6,-33
1511885908747644,-2,11,19,6,-36,6,3,24
1511885908747644,3,1,-24,3,35,-9,-2,3
1511885908748648,2,-6,19,1,3,-19,-7,0
1511885908748648,-3,-9,-35,-2,-5,37,-6,0
1511885908753734,-9,1,21,-6,-9,15,8,-12
1511885908753734,-2,-9,-2,-9,-5,-7,10,-2
1511885908762717,11,19,13,26,1,6,7,3
1511885908762717,-3,-13,5,-3,9,-19,1,3
1511885908777760,-3,-8,-37,-11,-1,4,-6,-5
1511885908777760,-6,-13,-20,-17,-6,4,-5,1
1511885908778776,-1,9,10,-6,-4,-2,-2,-5
1511885908778776,6,11,25,9,-8,-13,0,8
1511885908800822,4,-5,-16,-1,16,-3,-2,2
1511885908800822,0,4,-15,-8,-18,-7,-3,-4
1511885908806161,0,17,55,7,0,5,-1,-1
1511885908806161,-2,-22,-57,-7,10,-8,-1,3
1511885908814151,-4,14,2,0,-4,-10,-1,-1
1511885908814151,2,-3,30,9,0,13,-3,-3
1511885908823009,-7,-18,-5,6,-4,2,0,-4
1511885908823009,7,17,-34,-19,8,2,0,8
1511885908838050,2,6,3,0,-10,-16,-4,-5
1511885908838050,-12,-26,19,2,-10,-2,-3,-1
1511885908839050,-1,-2,-13,-11,3,17,2,-1
1511885908839050,-4,-3,6,3,-3,-9,-3,0
1511885908868132,2,0,-10,-5,6,-3,-4,-3
1511885908868132,13,36,26,16,-1,-6,4,2
1511885908869134,-8,-15,-9,-1,-3,6,1,3
1511885908869134,-5,-9,6,-3,-1,-3,-5,-5
1511885908874321,-6,-15,-8,7,2,1,1,0
1511885908874321,0,4,-8,3,-3,-4,-3,-1
1511885908882340,0,1,-9,-15,4,-1,-2,0
1511885908882340,4,9,22,14,-7,0,-1,1
1511885908897392,-1,-3,-8,-3,5,-3,0,-2
1511885908897392,-1,-4,15,1,-5,0,-6,0
1511885908899417,-1,-3,-23,-4,1,-2,7,0
1511885908899417,-1,3,8,4,0,9,-3,3
1511885908920435,1,-3,9,4,4,14,5,-2
1511885908920435,0,2,-14,-6,-3,-8,-1,-3
1511885908921443,0,-3,-4,-7,-1,-4,-7,-5
1511885908921443,-4,-4,5,11,1,-4,7,2
1511885908933590,0,-1,-7,4,2,6,1,0
1511885908933590,-2,-1,-6,-10,-4,0,-2,-1
1511885908942505,1,0,-1,2,2,-2,-1,1
1511885908942505,2,2,2,-2,2,-5,0,-1
1511885908957662,-1,0,0,-2,0,-5,-3,-3
1511885908957662,-1,0,-7,-6,-2,4,3,-1
1511885908959548,0,-2,1,1,0,-4,-3,1
1511885908959548,0,0,-1,3,-2,-3,1,-1
1511885908979601,0,0,4,-1,5,6,-7,-3
1511885908979601,-2,-1,-12,-9,-4,-6,6,-1
1511885908981605,0,-2,-1,5,-3,-7,-26,-2
1511885908981605,0,-1,2,-4,-2,11,5,2
1511885908993760,2,-3,-2,3,3,-10,1,-1
1511885908993760,-2,-2,-1,0,3,3,0,0
1511885909002775,-1,-1,-2,-2,-1,0,3,-1
1511885909002775,-1,3,-1,-3,1,0,-3,0
1511885909017948,1,-2,3,0,-2,-11,-3,-1
1511885909017948,-3,-1,-1,0,1,11,-2,0
1511885909018823,-1,-1,-2,1,23,1,12,0
1511885909018823,1,1,2,-3,-33,-11,-10,0
1511885909040087,-1,-2,-3,-2,2,14,5,-1
1511885909040087,1,0,-1,-1,-5,-6,-7,-1
1511885909042055,-2,-1,-3,-2,10,-3,0,1
1511885909042055,-2,-1,-3,-2,7,-1,5,0
1511885909054083,-3,0,-1,-1,-4,-9,-6,1
1511885909054083,1,-2,-2,0,7,10,1,-3
1511885909063106,-1,-1,1,0,-2,6,15,0
1511885909063106,2,0,1,-5,-7,-4,-12,1
1511885909077144,-2,-4,-2,-2,-23,-5,-16,-2
1511885909077144,-1,-3,-2,-2,-1,1,18,1
1511885909079149,0,0,-1,0,-21,-12,-13,-7
1511885909079149,0,1,-1,-1,5,2,3,-1
1511885909100204,-1,0,-1,1,17,2,-41,2
1511885909100204,-2,0,-2,-2,-9,-13,36,-4
1511885909101211,0,1,0,-1,-7,3,11,-2
1511885909101211,0,-2,0,1,5,10,15,13
1511885909114241,1,0,0,1,-3,-14,-32,-6
1511885909114241,0,2,0,-1,6,6,-27,2
1511885909122283,0,0,1,0,-6,-14,8,-1
1511885909122283,-6,0,-2,0,8,27,-1,2
1511885909137412,1,-2,-1,0,4,-2,28,1
1511885909137412,1,-2,-1,-1,-11,-8,-18,-2
1511885909139442,2,0,1,6,19,26,12,4
1511885909139442,-1,-1,2,-1,22,14,-6,-4
1511885909160476,-1,-1,-2,1,2,4,21,3
1511885909160476,0,0,-2,-3,-9,-30,-8,-5
1511885909161470,-4,-2,-1,-1,-15,-7,-20,-2
1511885909161470,1,-1,-2,-3,11,1,0,-6
1511885909173632,-1,2,2,1,13,11,-14,-3
1511885909173632,0,-2,-2,-2,-11,0,7,2
1511885909182527,-2,-1,2,3,13,3,-8,1
1511885909182527,2,-2,-3,-2,-32,-20,-2,-3
1511885909196570,0,-1,1,-2,0,2,0,1
1511885909196570,-1,-2,-1,0,2,7,-11,0
1511885909205635,-2,0,-2,-3,-5,0,9,0
1511885909205635,0,0,1,3,8,-1,-28,0
1511885909219855,-1,-3,-2,-4,-13,-2,17,-7
1511885909219855,-3,-1,0,-1,4,-14,-6,0
1511885909221842,1,0,-2,1,18,11,-8,-4
1511885909221842,-3,-2,-2,-3,-7,-20,0,-2
1511885909234006,-1,-2,-2,-1,32,29,14,4
1511885909234006,1,0,1,3,-6,1,24,1
1511885909242992,-1,-1,0,0,8,-5,-7,0
1511885909242992,0,0,0,0,-1,-9,-2,-2
1511885909257048,0,0,-1,-1,-3,7,14,0
1511885909257048,-1,1,3,3,24,35,-7,0
1511885909264047,-2,-3,0,0,-14,-4,-2,1
1511885909264047,1,0,-2,-1,3,-1,11,-3
1511885909280088,-5,-3,-4,-5,-20,-10,3,-1
1511885909280088,0,-1,-1,0,2,-4,-4,0
1511885909282093,2,0,-1,-2,-2,-2,6,0
1511885909282093,0,-2,-1,-2,-7,-19,3,-2
1511885909294168,2,1,-1,-2,-8,-23,-25,2
1511885909294168,-2,-1,-1,-3,-5,-13,-2,-2
1511885909302161,-1,-1,0,-4,-13,3,-21,0
1511885909302161,-1,-2,0,-1,10,8,9,-4
1511885909317188,-3,-2,-1,-2,-6,-14,2,-3
1511885909317188,6,-2,-2,-6,-21,-30,-22,-1
1511885909324204,-13,-2,-1,-2,-1,-6,2,-3
1511885909324204,0,-2,-1,0,-3,-2,-6,-5
1511885909340249,1,2,0,0,5,4,0,3
1511885909340249,2,0,-2,-2,-6,11,-6,1
1511885909341253,-5,-2,-3,-1,-5,6,20,-6
1511885909341253,1,2,2,-4,0,3,-8,2
1511885909362336,3,0,1,5,-1,-20,-6,-9
1511885909362336,-17,-2,1,0,5,7,14,-1
1511885909364310,6,-1,-2,-4,-1,0,-1,1
1511885909364310,-2,-4,-2,-4,-6,-3,8,2
1511885909377350,0,0,1,7,5,2,7,-2
1511885909377350,-1,2,2,3,1,7,-29,-1
1511885909383470,2,-3,-3,-1,14,-17,-5,-2
1511885909383470,0,2,0,-5,-19,4,28,-4
1511885909400441,-2,-3,-3,-7,-5,12,5,0
1511885909400441,-6,-1,-2,1,3,-2,-15,-1
1511885909401409,-6,-5,-3,-6,-8,-3,3,0
1511885909401409,8,3,5,13,5,-1,15,5
1511885909422599,-3,-2,-1,-2,-2,-13,-1,-2
1511885909422599,-12,-3,0,2,14,22,23,1
1511885909424602,1,-6,-6,-12,-11,5,-6,0
1511885909424602,3,4,6,15,21,-6,-2,4
1511885909436510,-3,0,2,1,-1,2,2,8
1511885909436510,6,-2,-3,-5,-3,-9,1,0
1511885909443649,15,4,2,2,6,1,-2,0
1511885909443649,-10,-2,-2,-4,1,2,-11,-3
1511885909467717,10,1,3,4,-23,28,4,2
1511885909467717,6,1,5,3,0,-4,4,-2
1511885909468717,-3,0,-4,-1,-25,1,-17,1
1511885909468717,4,-4,-4,-10,2,7,20,-2
1511885909482756,-2,4,4,-8,-1,-41,2,0
1511885909482756,1,-6,-16,-2,2,5,6,-4
1511885909483760,-3,3,32,27,6,2,2,-2
1511885909483760,-2,-4,-28,-10,-10,4,-39,-3
1511885909504815,8,-4,2,-6,-3,-6,22,-2
1511885909504815,2,2,3,-1,3,6,-1,0
1511885909506817,-1,7,10,-17,-3,-7,1,-1
1511885909506817,-4,-16,-34,10,-3,-15,-22,-4
1511885909519856,-6,2,15,4,5,1,-5,-1
1511885909519856,2,-3,-7,1,16,-1,1,-1
1511885909521860,0,0,9,-2,-34,-8,2,-2
1511885909521860,1,8,29,-3,9,11,5,1
1511885909543037,-5,-4,-20,-1,-3,7,-18,-2
1511885909543037,-4,-1,14,4,18,7,-1,-1
1511885909543945,-2,-1,-12,-7,-55,-44,3,-1
1511885909543945,-3,-1,1,-2,32,2,4,-1
1511885909557058,-1,-4,-6,6,36,-5,9,-1
1511885909557058,2,3,3,-2,-12,-5,-3,0
1511885909564068,-2,-4,-17,-4,22,6,0,-2
1511885909564068,1,1,1,-2,-13,4,-2,-1
1511885909580013,-1,-1,4,0,-11,-20,5,0
1511885909580013,2,0,-1,-3,-15,17,8,-1
1511885909582018,0,-1,-4,8,7,6,-7,1
1511885909582018,-1,0,16,-1,-14,-7,29,1
1511885909602073,-9,-7,-16,-6,0,-12,-12,-1
1511885909602073,0,-4,-15,2,8,-11,2,-1
1511885909604076,-1,-1,-9,-12,-21,4,-3,-1
1511885909604076,1,1,13,6,1,-7,-15,-1
1511885909616111,-2,1,11,0,9,29,1,0
1511885909616111,-1,-4,-7,-4,-15,-26,-4,-4
1511885909625132,-2,0,-6,-4,9,6,6,0
1511885909625132,-5,0,-1,-8,7,-8,-6,-3
1511885909640281,1,1,-5,1,-14,10,0,-1
1511885909640281,2,1,8,2,-9,6,-5,0
1511885909642199,1,1,3,8,57,9,2,2
1511885909642199,0,0,-7,-8,-28,-5,9,0
1511885909662231,0,-2,2,2,3,-6,-5,-2
1511885909662231,2,1,5,2,6,7,5,1
1511885909664235,-2,-3,-10,-4,-2,-14,4,-2
1511885909664235,-1,1,2,1,8,16,-14,0
1511885909676273,-1,0,-1,0,-12,-10,-4,-3
1511885909676273,-4,-3,-10,-8,-30,-14,-4,0
1511885909685292,-1,-1,4,0,6,22,10,1
1511885909685292,0,1,-2,0,-2,1,-1,-1
1511885909700331,1,2,2,6,17,1,-3,0
1511885909700331,-4,1,4,-2,-38,8,-16,-2
1511885909701334,-2,0,0,3,4,-1,18,0
1511885909701334,-2,-3,-2,-2,6,9,8,1
1511885909722514,-1,-1,-3,-8,-13,-17,-9,-2
1511885909722514,1,1,-2,-4,3,16,-1,0
1511885909724515,-2,-4,11,15,40,3,8,-2
1511885909724515,0,1,-5,-2,7,0,0,0
1511885909736548,-1,0,7,2,-11,12,12,0
1511885909736548,-1,-4,-13,-7,-35,-12,4,-3
1511885909745575,3,2,-1,-4,35,21,-9,1
1511885909745575,-3,-3,-3,6,-25,-13,-13,-1
1511885909759775,-2,-2,0,-4,10,-6,-7,-2
1511885909759775,0,0,9,-5,-27,5,4,-1
1511885909761614,2,1,-1,0,-7,-11,0,1
1511885909761614,2,0,1,2,-1,24,-7,1
1511885909782673,-1,-1,-2,-5,-59,10,-3,0
1511885909782673,1,2,0,5,79,8,2,1
1511885909783676,-2,-4,-6,-1,17,9,-15,-2
1511885909783676,-2,0,2,-2,-28,-8,-7,-4
1511885909795885,-1,-1,-3,1,0,-1,6,0
1511885909795885,-2,-1,1,-1,6,-16,14,-3
1511885909804844,1,-2,0,2,4,15,-6,0
1511885909804844,1,-4,0,-2,28,-4,8,1
1511885909819771,0,-3,-5,-3,-34,9,4,-1
1511885909819771,-6,0,4,10,81,-4,1,-3
1511885909821774,8,1,-1,-1,-25,-3,-5,1
1511885909821774,-1,2,0,3,48,0,4,-3
1511885909843025,-2,-1,-1,-3,0,-1,-13,4
1511885909843025,-1,1,1,-1,13,-15,27,4
1511885909843960,-6,-3,-1,1,-25,11,0,-2
1511885909843960,0,1,-2,-1,-15,-9,-3,-1
1511885909856190,2,0,-3,2,10,-16,4,-2
1511885909856190,1,1,3,3,-1,2,-10,0
1511885909865016,-1,-1,-2,-3,14,-1,-2,0
1511885909865016,1,0,-2,-6,-45,-10,-4,-2
1511885909880059,-3,0,1,0,27,10,-11,2
1511885909880059,1,-1,-1,-2,-18,-5,-3,0
1511885909882065,-2,-2,-9,-4,1,-16,-2,-1
1511885909882065,-2,0,6,5,3,3,6,-1
1511885909902119,0,-1,-1,-4,-5,2,2,-1
1511885909902119,1,-1,3,-6,-38,-1,-5,-2
1511885909904154,-2,1,4,0,0,-29,-3,-1
1511885909904154,-3,0,-2,-2,-13,-10,2,-1
1511885909916178,5,0,1,-3,24,1,-2,1
1511885909916178,6,-1,-3,-2,-38,-5,0,2
1511885909925175,0,0,1,-1,-51,-12,-1,-1
1511885909925175,-1,-4,-1,-5,-2,14,3,-1
1511885909940219,-1,-1,-3,4,35,11,-2,-2
1511885909940219,-2,0,5,4,-9,-17,-3,-2
1511885909941223,0,1,-1,-2,13,1,-9,0
1511885909941223,2,1,0,-2,-6,-6,-6,1
1511885909962453,0,2,2,5,-6,10,7,0
1511885909962453,-4,0,5,-3,12,2,-6,-2
1511885909964280,2,-1,-4,4,-14,-5,-12,0
1511885909964280,-4,-1,0,-7,-1,-7,37,-1
1511885909976358,-15,-6,1,7,28,23,3,-3
1511885909976358,22,2,-5,0,27,4,-3,3
1511885909985361,-9,0,7,3,0,4,2,1
1511885909985361,2,0,0,-3,-8,-10,-5,-1
1511885910000376,2,0,0,-5,-9,-7,11,-1
1511885910000376,-6,-2,-8,1,-4,12,0,-1
1511885910001383,-2,0,0,-4,-14,8,-12,-1
1511885910001383,0,-5,-6,6,75,7,7,-2
1511885910022481,-2,-2,0,-5,-19,-15,-2,-1
1511885910022481,-5,-2,16,1,-10,-15,-9,-1
1511885910024444,2,-1,-13,4,11,-10,10,-1
1511885910024444,-6,3,4,-3,-26,10,-17,-1
1511885910036475,2,-2,-4,6,12,-19,3,1
1511885910036475,-5,0,6,-8,0,0,-3,-2
1511885910045510,0,-1,-8,1,-5,-10,0,-2
1511885910045510,-2,0,7,-2,12,4,-10,2
1511885910059560,4,4,8,4,7,2,-6,2
1511885910059560,0,1,-5,4,-13,18,7,2
1511885910061565,1,3,6,-5,-54,-4,6,-1
1511885910061565,-2,-2,-12,-2,66,2,-18,-2
1511885910082600,-2,-8,-35,-11,-33,-19,0,-2
1511885910082600,-4,-1,11,1,-8,2,2,-4
1511885910083603,-12,-2,3,1,-14,3,-3,1
1511885910083603,4,4,-1,3,-17,-4,0,2
1511885910096634,3,4,10,-2,-2,-4,-5,-3
1511885910096634,-5,0,-5,-7,-9,-11,8,-5
1511885910104700,8,-10,-5,8,19,5,-25,0
1511885910104700,-7,-8,2,-10,-35,-22,-4,-3
1511885910119809,0,4,15,9,-18,23,2,1
1511885910119809,3,15,-15,-6,-12,-3,2,1
1511885910125709,6,-1,6,3,20,18,2,2
1511885910125709,-5,-16,-5,1,-15,-14,-3,1
1511885910142916,2,8,-22,-1,6,1,-8,-3
1511885910142916,-4,9,15,-4,-6,3,1,-1
1511885910143848,-6,-19,-26,-10,23,-3,6,-3
1511885910143848,1,3,-8,15,-2,0,-2,0
1511885910155793,-5,-11,8,1,-9,-9,3,0
1511885910155793,-5,-4,-10,-6,3,-4,-7,-2
1511885910164837,0,11,20,-2,1,-1,8,-2
1511885910164837,4,-1,5,0,-12,4,-1,-1
1511885910179918,-4,4,-2,-2,4,-5,0,2
1511885910179918,6,-5,-1,9,5,5,-2,2
1511885910185872,-3,0,9,-4,-1,-5,0,-3
1511885910185872,-2,-2,-11,-6,-9,11,-2,-1
1511885910202918,-5,0,3,-2,-10,-14,-1,-3
1511885910202918,-4,-12,-8,-3,5,-1,-8,-1
1511885910203917,4,3,12,8,-3,-6,11,-1
1511885910203917,5,8,11,-3,-4,-2,0,2
1511885910215952,0,-2,-4,-1,3,-1,8,1
1511885910215952,-7,-16,-39,-12,1,-3,-26,-1
1511885910224973,2,4,-6,-5,-11,-5,4,2
1511885910224973,0,4,0,7,-10,7,1,-2
1511885910239013,2,-5,4,-9,1,10,0,0
1511885910239013,2,3,12,12,-10,10,6,1
1511885910246054,-3,3,4,5,69,1,1,0
1511885910246054,1,0,2,-4,-26,-7,-5,-3
1511885910262249,-6,-5,-25,-8,-11,10,0,-1
1511885910262249,4,0,19,11,-2,9,4,2
1511885910264079,-1,-1,-7,-15,2,-7,-3,0
1511885910264079,2,2,3,11,12,6,7,1
1511885910285177,-1,-2,4,-3,11,-4,-10,-2
1511885910285177,-2,-1,-8,1,7,-5,4,0
1511885910287163,4,-4,2,2,-17,2,4,-1
1511885910287163,-6,-2,-6,-8,3,0,-6,-3
1511885910299213,2,-2,-3,3,4,1,0,0
1511885910299213,-3,-2,-25,-17,4,0,2,-1
1511885910306231,-1,1,-6,8,-48,-23,-4,1
1511885910306231,0,-3,-6,-7,-7,-4,-1,-1
1511885910322274,0,-3,13,8,-1,-5,-1,-1
1511885910322274,2,0,11,1,13,9,8,0
1511885910324272,0,0,-5,-8,3,28,4,2
1511885910324272,0,-2,-10,-2,13,-4,-6,0
1511885910345413,1,-1,0,-2,-36,-8,5,1
1511885910345413,-2,0,10,3,10,-6,-2,-2
1511885910346301,8,1,3,-1,-7,15,5,0
1511885910346301,-3,-1,-3,-11,-21,-8,-6,0
1511885910359332,-4,-2,7,4,33,-2,1,-6
1511885910359332,2,1,-9,4,4,-15,-6,0
1511885910366352,-5,0,15,-3,2,0,-2,-2
1511885910366352,2,-3,-20,5,20,11,0,1
1511885910382438,1,-2,0,-1,-1,-6,1,-1
1511885910382438,-3,0,19,-2,-36,-27,-6,-5
1511885910384399,-2,-1,-11,-3,-3,-10,-8,-2
1511885910384399,1,-2,-2,-2,-1,4,5,2
1511885910405487,0,4,8,-3,10,6,-3,-1
1511885910405487,-1,-2,-1,-2,-9,-7,-2,0
1511885910406457,1,3,8,7,-7,3,1,2
1511885910406457,-10,1,19,-3,-7,-6,3,0
1511885910419493,1,1,9,2,8,3,-5,0
1511885910419493,1,3,5,-7,3,12,4,-1
1511885910426512,1,11,-43,-12,17,-5,1,-2
1511885910426512,-9,-34,13,18,-32,-11,-1,-3
1511885910442553,-9,-8,-15,-7,-9,-14,-5,-4
1511885910442553,10,1,12,-7,-23,12,2,3
1511885910443555,-3,1,-8,-1,3,-13,-3,-2
1511885910443555,7,14,1,-6,25,-4,-1,0
1511885910464614,2,0,14,0,-44,11,2,4
1511885910464614,-4,-1,2,11,11,7,2,0
1511885910466616,0,-4,-11,-9,0,-2,2,0
1511885910466616,11,15,18,7,3,4,-1,3
1511885910479673,4,12,17,-5,13,-10,-2,2
1511885910479673,-16,-27,-94,-21,-13,2,-4,-7
1511885910485821,-4,-7,62,22,18,-7,-2,-3
1511885910485821,0,14,57,11,-7,-1,1,-3
1511885910501980,9,-8,-90,-24,4,1,3,2
1511885910501980,4,15,60,18,49,3,0,3
1511885910503982,-2,6,-31,1,-1,2,0,1
1511885910503982,4,-12,25,-6,-14,-7,1,0
1511885910525219,-11,6,-17,6,-18,8,2,1
1511885910525219,-2,-8,4,-7,24,-10,-5,-3
1511885910527045,-3,-9,19,2,-4,5,0,0
1511885910527045,5,26,14,-8,16,9,-1,-1
1511885910539080,1,-18,-50,18,24,-2,-1,-3
1511885910539080,-4,-5,-19,-20,-1,-8,1,-1
1511885910548334,3,5,15,16,-52,-10,0,2
1511885910548334,1,1,-23,-30,-9,9,0,1
1511885910562386,0,0,42,9,-15,0,-4,-1
1511885910562386,2,9,2,3,-7,1,0,1
1511885910562386,1,6,24,-4,38,1,-3,-3
1511885910562386,-9,-14,-43,-6,-80,-11,0,-3
1511885910584450,-3,-5,10,-3,27,4,-4,-3
1511885910584450,2,0,-9,9,-5,-16,-1,1
1511885910585476,-2,1,9,-17,-4,13,0,0
1511885910585476,0,1,-9,5,9,4,1,2
1511885910607668,-2,2,3,10,10,-1,1,-1
1511885910607668,2,9,15,-3,-21,-3,-1,0
1511885910608493,-5,-21,-40,8,7,-1,0,-1
1511885910608493,0,0,-5,4,26,0,-2,-2
1511885910621617,3,5,23,1,-14,2,1,2
1511885910621617,-2,0,-4,1,3,5,0,1
1511885910622529,-2,-3,-9,-18,-10,1,-1,-2
1511885910622529,-1,-2,-5,22,17,-3,-1,-2
1511885910644864,1,3,14,-3,7,-1,1,-1
1511885910644864,-3,-11,-19,10,-3,3,0,-2
1511885910645703,-2,-1,-4,-14,-2,-3,-2,-2
1511885910645703,-1,-3,0,0,9,-1,-1,-2
1511885910674931,0,3,3,-9,-5,-2,-2,-1
1511885910674931,-1,0,10,2,4,2,1,-1
1511885910675934,1,5,35,3,-22,-4,-2,0
1511885910675934,0,-7,-62,1,14,-1,1,-1
1511885910682048,0,-1,-14,-19,-1,-3,-3,0
1511885910682048,-1,-3,11,11,-4,-4,0,-1
1511885910683040,1,2,-6,-9,4,1,0,0
1511885910683040,-5,-1,27,12,0,-2,1,0
1511885910704132,1,6,24,-6,-1,0,-1,-3
1511885910704132,0,-1,-15,11,1,0,0,-1
1511885910705132,1,1,-4,-2,-11,1,-1,-1
1511885910705132,0,-2,-4,-2,4,-1,-1,1
1511885910727265,0,-4,-1,-3,-3,-1,-2,-2
1511885910727265,-1,1,11,-10,-1,0,-1,-2
1511885910727265,0,-3,-13,3,5,-2,14,-1
1511885910727265,-4,-1,0,-6,0,-6,-29,0
1511885910742277,2,-1,4,2,2,0,17,0
1511885910742277,-2,0,4,-2,-8,-12,-5,0
1511885910742277,-3,-4,-12,3,-6,0,4,0
1511885910742277,-1,-1,-2,-4,5,-3,11,-5
1511885910764348,-2,3,7,1,-5,1,-1,0
1511885910764348,1,-2,0,-1,1,0,-11,-3
1511885910765350,-2,-3,-4,1,0,-2,2,-1
1511885910765350,1,-1,2,-6,5,-1,2,0
1511885910786382,1,0,-2,2,-23,-7,0,-1
1511885910786382,0,-1,4,1,11,4,4,-1
1511885910787381,0,1,11,5,22,5,-10,1
1511885910787381,0,-2,-20,-8,-23,-2,5,-2
1511885910801422,-2,-1,0,5,14,-4,-2,1
1511885910801422,-8,0,-2,-1,11,-3,-14,-1
1511885910802422,-1,-6,-7,-6,-20,-18,1,-2
1511885910802422,1,1,5,1,9,13,-19,4
1511885910824597,-3,-4,-2,-1,8,4,29,-1
1511885910824597,-1,1,8,-4,-13,-10,-28,-6
1511885910825606,-2,0,-6,6,5,3,-3,-1
1511885910825606,0,0,0,-1,-2,-4,2,-2
1511885910846692,-2,0,-2,-2,-4,-4,-12,-4
1511885910846692,12,0,-1,-1,2,7,16,4
1511885910847667,-10,1,-4,-2,-4,-1,-1,3
1511885910847667,-2,-1,0,0,1,-12,9,-1
1511885910861806,4,-1,2,-2,-21,-8,-10,-2
1511885910861806,-1,2,-3,-2,6,13,17,-3
1511885910862707,3,-2,-7,-1,-9,2,-7,3
1511885910862707,-7,-2,6,-2,5,16,16,1
1511885910883765,-8,-1,-3,0,8,-2,-4,-3
1511885910883765,5,-2,-4,-2,-11,-5,-10,2
1511885910884764,-1,-2,-1,1,-2,-1,-31,-12
1511885910884764,3,0,1,1,2,4,56,2
1511885910906997,-1,1,0,2,11,3,-2,-1
1511885910906997,-6,-2,-2,-4,-12,-8,1,1
1511885910907827,0,0,0,2,11,-4,-2,-1
1511885910907827,2,1,1,0,19,10,-9,0
1511885910922053,2,3,3,-1,-40,3,-17,0
1511885910922053,-3,0,4,1,-23,6,11,-1
1511885910922867,0,-3,-5,-3,39,-6,-2,-1
1511885910922867,-2,-1,0,-2,-19,-20,-12,-1
1511885910943925,3,-4,-4,-2,-4,12,10,0
1511885910943925,-18,-1,-1,-6,-6,-10,-5,0
1511885910944924,0,-1,2,5,-14,2,6,1
1511885910944924,0,-1,1,-2,-1,-3,-18,-3
1511885910966986,0,-2,-4,-5,21,15,-17,-1
1511885910966986,2,1,-2,-2,-3,-33,36,-1
1511885910968077,1,-2,-1,-2,7,16,-5,-1
1511885910968077,-10,-3,-3,-4,14,-17,-2,-1
1511885910982258,3,-1,2,3,-25,-13,-6,-3
1511885910982258,7,1,-8,1,12,15,-23,3
1511885910982258,-1,-1,-1,-3,-31,1,11,1
1511885910982258,2,-3,-3,-6,-27,4,-4,-5
1511885911004355,-3,-1,3,9,91,0,6,4
1511885911004355,0,-4,-2,-1,-55,-5,-28,-3
1511885911005321,5,2,-1,9,79,23,67,2
1511885911005321,-1,-5,-16,-14,-31,-24,-12,-3
1511885911026413,-3,-2,7,5,-21,-3,-1,-1
1511885911026413,1,3,-1,-3,5,17,13,0
1511885911027380,1,5,26,9,15,-4,-23,-1
1511885911027380,0,-1,-10,5,-7,23,2,0
1511885911041414,-1,1,-3,-3,11,-10,6,1
1511885911041414,1,-1,1,0,5,-31,-2,-3
1511885911042419,-1,-5,-10,-9,-97,-1,-7,0
1511885911042419,0,1,6,-1,23,11,4,-1
1511885911064477,-4,-5,-13,-4,-32,-15,-1,-4
1511885911064477,0,0,6,11,27,23,-12,-3
1511885911065480,0,2,-5,-6,-47,-29,-23,-3
1511885911065480,1,2,7,0,63,-2,40,4
1511885911086753,-1,-1,-5,0,-4,-15,-9,-3
1511885911086753,-2,-1,1,-5,11,-8,7,-1
1511885911087731,-2,2,-2,2,16,-2,-26,1
1511885911087731,4,1,5,8,37,11,-30,0
1511885911101772,-1,-2,0,-16,-95,-9,4,-2
1511885911101772,-1,-1,6,11,-2,32,18,0
1511885911109876,0,-2,-9,-9,-10,-21,-4,0
1511885911109876,0,0,10,12,15,7,-2,-2
1511885911124830,3,2,-9,-4,-11,-21,-23,3
1511885911124830,-2,-2,-1,-7,-6,5,3,-2
1511885911124830,-4,-1,-4,-2,17,-3,7,-2
1511885911124830,4,-2,0,0,-25,25,-6,-2
1511885911147003,-5,1,3,2,1,34,14,-2
1511885911147003,-1,-3,-1,-9,-24,-49,-10,-3
1511885911148005,3,5,9,12,47,4,5,3
1511885911148005,2,1,-8,0,-10,-5,-3,1
1511885911162136,2,4,8,-3,13,12,-5,2
1511885911162136,-2,-1,-12,1,7,12,-1,1
1511885911162985,-8,-15,-9,-4,-20,-3,2,-8
1511885911162985,-1,4,23,-9,-26,-17,-7,-2
1511885911184145,1,-5,-13,7,24,2,2,0
1511885911184145,3,4,1,-5,-6,-3,2,2
1511885911185142,0,2,4,3,0,7,7,0
1511885911185142,-1,-1,-4,1,-9,0,-8,-1
1511885911207230,0,0,5,-4,8,-3,0,1
1511885911207230,-2,-4,-4,-1,14,10,1,-2
1511885911207230,-1,-1,-6,-1,-5,3,-1,-4
1511885911207230,0,0,-8,-4,0,-5,-2,0
1511885911222340,1,2,4,0,-45,2,-2,-2
1511885911222340,-3,-4,1,1,-9,-6,4,1
1511885911222340,1,2,-1,-5,-12,0,-15,-2
1511885911222340,-2,-1,-7,0,-2,-5,0,-1
1511885911244474,-3,1,2,-2,7,0,3,-3
1511885911244474,0,-2,-6,4,16,15,-3,-2
1511885911245302,0,-1,7,-6,-9,-13,7,3
1511885911245302,0,1,-8,-1,-13,-7,-1,2
1511885911266457,-2,-7,-39,-17,17,-9,-4,-1
1511885911266457,0,1,24,12,8,-1,2,1
1511885911267360,-4,-2,-4,7,-14,2,-1,-1
1511885911267360,-3,-3,9,0,-14,-27,-4,-3
1511885911281401,-1,1,8,0,35,-5,5,0
1511885911281401,3,1,-9,-4,-9,3,2,-1
1511885911282400,1,1,1,-6,-19,-26,0,-2
1511885911282400,-2,-3,0,1,7,0,2,1
1511885911304579,-3,-5,3,8,-23,-9,1,0
1511885911304579,-1,-3,-2,-12,-6,-35,-11,-2
1511885911305542,1,-1,-5,-11,-5,9,6,0
1511885911305542,-1,-1,-7,10,8,11,-3,-1
1511885911326695,1,-1,7,1,5,26,-2,0
1511885911326695,-1,0,-1,1,10,7,-21,0
1511885911327520,0,1,-1,-2,5,23,26,-2
1511885911327520,-2,-2,-3,-10,-16,-8,-5,-1
1511885911341558,1,-2,7,4,18,18,1,-1
1511885911341558,-2,-3,-4,-1,-3,9,-13,0
1511885911342562,0,1,-4,0,12,8,-7,-1
1511885911342562,-2,0,-3,-3,1,4,5,0
1511885911364792,-1,0,4,5,12,8,-10,-3
1511885911364792,0,0,-3,-4,-3,1,9,1
1511885911364792,0,-1,-1,-1,19,-13,-5,0
1511885911364792,-1,-4,-2,-3,-38,-4,8,-3
1511885911386725,0,3,7,-3,3,-18,1,1
1511885911386725,0,-1,-3,-7,0,2,4,0
1511885911387719,-1,-1,-3,8,14,6,0,-1
1511885911387719,-1,1,4,0,0,1,-11,-2
1511885911401720,-1,0,0,2,7,0,0,-1
1511885911401720,-1,-1,2,-3,-2,4,4,-2
1511885911402720,1,0,0,-4,-12,0,-2,-2
1511885911402720,0,0,16,9,13,8,1,-1
1511885911424856,-1,-1,-10,-1,3,-6,0,-1
1511885911424856,0,2,-1,1,6,0,7,0
1511885911424856,-1,-1,1,-5,-2,1,-6,1
1511885911424856,0,1,0,-2,2,-1,-2,0
1511885911447054,0,2,7,0,-3,-2,-1,-2
1511885911447054,1,-2,-2,0,-2,2,-1,-1
1511885911448053,-1,-4,-4,1,0,2,-2,-1
1511885911448053,0,0,-3,-3,-2,-1,-2,-1
1511885911462205,-2,1,2,-1,-7,-4,1,0
1511885911462205,-1,-3,-5,1,3,2,0,-1
1511885911463016,-2,0,2,-2,-5,-5,-3,0
1511885911463016,-1,-1,-4,-1,4,1,2,-2
1511885911484143,-1,-3,-2,-1,10,7,0,0
1511885911484143,-1,1,1,1,-7,-11,-1,-2
1511885911485105,2,-1,0,-1,-8,0,-1,1
1511885911485105,-2,-2,-3,-3,0,1,-3,-1
1511885911507276,1,-1,-2,0,6,-5,1,-1
1511885911507276,1,0,4,1,0,1,-1,0
1511885911507276,-1,0,4,-4,5,0,0,-2
1511885911507276,-2,-2,-17,1,-1,-4,-1,-1
1511885911521364,0,0,6,-3,-2,-5,-1,-1
1511885911521364,-2,-1,-11,1,3,2,2,-1
1511885911522317,0,2,3,0,-1,-2,-2,-2
1511885911522317,0,0,3,0,1,-2,1,0
1511885911544413,-2,-2,-6,-3,-3,-1,-2,-1
1511885911544413,-1,0,1,2,0,2,-1,1
1511885911545381,-1,-1,-4,1,1,7,2,1
1511885911545381,0,-2,2,-2,-2,0,1,0
1511885911566435,0,2,1,-1,-3,-3,-1,-2
1511885911566435,-1,0,-3,-2,-3,-1,1,0
1511885911567437,1,0,-1,4,-2,-1,0,0
1511885911567437,-1,-2,-1,-3,-1,-5,-1,-2
1511885911581514,-1,-4,-3,-3,-2,-4,-1,-2
1511885911581514,-1,-1,1,-2,-1,-1,0,-3
1511885911582507,-3,-2,-1,0,-3,-1,-2,-2
1511885911582507,-1,0,0,-3,0,1,-3,1
1511885911604727,0,2,-1,0,-2,3,-1,-1
1511885911604727,-2,-2,-2,-2,2,2,2,1
1511885911605612,1,-1,0,1,0,0,-1,0
1511885911605612,-4,-2,0,-2,-2,-1,-1,-3
1511885911627261,-2,-3,0,1,-1,-3,-1,-1
1511885911627261,0,-1,1,1,2,-1,0,0
1511885911628107,-2,-1,-2,0,-3,-1,-2,-1
1511885911628107,0,-2,-2,-1,0,1,-2,-1
1511885911642306,2,0,0,0,2,-2,0,0
1511885911642306,-1,0,0,0,-1,1,-1,0
1511885911642306,2,1,-1,0,-1,-1,-1,0
1511885911642306,-1,1,-1,-1,-2,1,0,-1
1511885911664153,-3,-3,-1,0,-1,-2,2,0
1511885911664153,-3,-1,-1,-4,-5,-1,-2,-2
1511885911665156,-2,-1,-1,7,6,0,1,0
1511885911665156,-1,-2,-1,-1,0,-1,-1,0
1511885911686417,0,4,1,1,0,2,-1,0
1511885911686417,1,-1,1,-2,-1,1,7,-1
1511885911687379,-4,-4,-4,-4,-1,-1,-3,-4
1511885911687379,-3,0,1,2,-1,-1,0,-1
1511885911701417,2,2,1,0,-3,5,4,0
1511885911701417,-2,-1,-2,0,-3,-4,-11,-3
1511885911702433,2,1,3,-2,-4,-1,1,0
1511885911702433,1,-2,-4,-2,-1,-3,-2,2
1511885911724593,-1,0,6,-2,0,-1,2,-3
1511885911724593,0,-1,-7,1,1,-3,1,0
1511885911724593,0,2,5,-1,-1,-2,0,0
1511885911724593,0,0,-2,-2,0,0,-3,-2
1511885911746669,-1,-1,18,4,7,0,-4,-1
1511885911746669,0,-2,-17,-2,-2,6,0,1
1511885911747655,-1,2,11,3,-1,-2,-3,-4
1511885911747655,1,1,0,-4,3,1,6,-1
1511885911769724,1,0,-3,0,0,-3,-2,0
1511885911769724,-1,-1,4,-1,1,1,-1,-1
1511885911770714,0,0,-7,-4,-4,-3,0,0
1511885911770714,-1,0,0,3,2,1,-2,1
1511885911784752,-1,-1,-8,-3,0,0,-3,1
1511885911784752,-5,-2,6,-1,-3,-3,-1,-2
1511885911784752,-1,-3,-7,-15,-13,1,-1,-3
1511885911784752,0,2,8,52,26,0,-1,1
1511885911806903,0,1,-4,-9,-11,-5,-2,0
1511885911806903,3,4,5,13,9,-2,2,1
1511885911807814,0,0,1,-18,-8,-5,0,0
1511885911807814,1,-1,-2,-31,-11,-2,-2,-3
1511885911821009,-2,-12,-26,41,11,-3,2,-1
1511885911821009,1,1,10,-7,-5,1,0,0
1511885911829044,-3,-5,-9,10,7,5,-1,-2
1511885911829044,1,-2,3,-11,-9,-3,-1,-2
1511885911843989,-1,1,9,-9,4,3,0,1
1511885911843989,1,-2,-9,-7,-3,-3,-1,-2
1511885911844913,0,2,10,13,9,0,2,1
1511885911844913,-1,0,-5,-9,-16,-2,6,-1
1511885911867143,1,2,1,-5,7,6,-3,-1
1511885911867143,0,-5,-3,11,5,-1,-2,-1
1511885911868060,-1,0,-3,-11,-6,-5,-4,0
1511885911868060,-1,-3,-4,3,-4,-1,2,0
1511885911881011,0,-1,-2,-8,0,0,-3,-1
1511885911881011,1,2,2,-16,-2,2,2,0
1511885911889032,-1,0,-2,0,0,1,1,2
1511885911889032,-1,-2,2,25,2,-1,-7,-1
1511885911904073,-2,0,-1,-5,-3,-3,5,-1
1511885911904073,-1,-2,-2,-9,-7,1,-3,-1
1511885911905072,0,-1,-3,-14,-4,-4,0,-1
1511885911905072,-1,1,0,-9,-5,-3,-1,0
1511885911927309,-1,0,1,0,-2,-1,0,-1
1511885911927309,-2,1,1,7,10,-1,1,1
1511885911928172,0,0,-2,-7,-16,0,7,1
1511885911928172,-1,-1,1,18,14,-2,-9,-3
1511885911941272,-1,-2,-3,-12,-8,1,-4,-6
1511885911941272,3,1,1,-22,1,-3,-3,8
1511885911949217,0,1,1,2,-6,1,1,-2
1511885911949217,-1,1,-4,-39,-6,-8,-5,2
1511885911964260,3,0,5,63,19,5,16,6
1511885911964260,-4,-2,0,1,-5,1,42,-12
1511885911965259,4,-2,-4,-6,2,-3,-11,4
1511885911965259,-8,0,-1,19,12,6,5,1
1511885911986288,-1,-1,0,-21,-9,-4,16,-4
1511885911986288,1,-2,0,13,-1,-10,-6,4
1511885911987291,-1,-3,-1,2,-1,-6,5,-3
1511885911987291,5,1,-1,-26,-2,-13,-13,-1
1511885912001328,-2,0,1,-6,-9,-8,0,0
1511885912001328,-6,-7,-8,-1,-4,-12,-9,-6
1511885912009350,-7,-4,1,6,1,-7,-10,-4
1511885912009350,-1,-1,0,1,-3,-15,3,1
1511885912024507,-5,0,-4,-8,-3,-18,-22,-6
1511885912024507,-1,3,3,4,-3,-13,-12,5
1511885912025509,0,2,-3,3,4,-20,9,-1
1511885912025509,-3,0,-4,3,-6,-23,-8,-13
1511885912046573,3,2,3,-2,0,5,-10,22
1511885912046573,-2,-4,-6,-12,-10,39,-14,-2
1511885912047572,-1,-1,-2,7,6,6,-6,-1
1511885912047572,1,11,6,7,3,-92,41,4
1511885912061669,7,13,2,-10,-5,-128,11,-4
1511885912061669,-3,12,9,16,10,-79,10,6
1511885912069664,0,-5,-5,3,4,102,0,1
1511885912069664,-4,-16,-7,-10,-6,127,-31,-3
1511885912084826,-8,-11,-6,0,-1,78,-18,-3
1511885912084826,-2,-11,-5,-1,-5,110,-14,-3
1511885912085830,-5,-13,-6,-1,1,93,-18,-8
1511885912085830,-6,-21,-14,-13,-16,127,-34,-10
1511885912107058,-9,-14,-11,-14,-11,90,-28,-14
1511885912107058,13,-1,3,1,2,-17,-5,-6
1511885912108055,3,4,-1,-4,-3,-100,-3,-13
1511885912108055,0,4,2,-3,-3,-89,6,-22
1511885912120919,2,7,7,2,7,-53,9,30
1511885912120919,11,6,4,-3,-3,-55,16,23
1511885912128942,1,7,4,0,2,-58,14,13
1511885912128942,5,5,3,2,6,-51,14,0
1511885912143981,-5,-3,-3,-5,-1,-6,9,-26
1511885912143981,-9,-4,-4,-5,-4,13,-8,-7
1511885912144983,0,0,-2,3,0,1,11,-2
1511885912144983,-7,-3,-3,-5,-13,11,-2,-3
1511885912167045,0,-1,0,-2,5,20,-5,-3
1511885912167045,-1,-2,0,3,-1,9,8,-2
1511885912168045,-1,0,0,1,-1,10,-25,-1
1511885912168045,1,-1,-2,2,-3,12,-7,3
1511885912190340,1,-2,0,-6,-7,16,4,4
1511885912190340,-2,-3,-1,-1,-4,-4,1,-6
1511885912191296,-3,2,1,0,-1,-33,6,-3
1511885912191296,1,4,3,1,4,-30,11,14
1511885912204369,4,4,-2,0,-2,-36,4,-1
1511885912204369,-3,1,1,4,3,-27,-2,-5
1511885912205187,-1,3,2,2,-1,-29,3,3
1511885912205187,2,4,2,0,3,-22,3,7
1511885912227268,-1,0,0,1,0,-19,7,-3
1511885912227268,-2,0,0,-2,1,-19,-2,-3
1511885912227268,0,1,-1,0,3,-7,8,4
1511885912227268,2,-1,1,3,2,0,4,1
1511885912250333,-3,-1,-2,-2,-3,0,0,-3
1511885912250333,-1,0,-2,0,-1,2,-4,0
1511885912251307,0,0,0,0,-3,8,4,0
1511885912251307,-1,-2,-2,3,4,1,1,1
1511885912264585,-1,-2,-1,-1,-4,-3,-3,0
1511885912264585,0,0,-1,1,-1,4,-2,0
1511885912265488,-2,-1,-4,-1,-1,-17,3,-2
1511885912265488,1,0,-1,-4,0,10,-2,2
1511885912286547,1,-1,0,-1,-2,-5,-2,0
1511885912286547,-2,-2,-2,-4,-3,-6,-3,-1
1511885912287550,-3,-2,-1,-1,-1,-1,1,-1
1511885912287550,0,1,1,-2,-3,-9,0,1
1511885912309611,0,-1,0,-3,-3,-4,2,-3
1511885912309611,-1,-1,-2,1,1,1,0,-1
1511885912310614,-1,-2,-2,2,1,-10,-4,-1
1511885912310614,2,2,-3,-2,-4,-7,1,3
1511885912324689,1,0,1,3,5,-7,0,-3
1511885912324689,1,1,0,1,0,0,-3,-1
1511885912324689,-2,0,-1,-1,-2,22,-6,0
1511885912324689,-2,-6,-3,-2,-1,46,-7,-2
1511885912346710,-3,-6,-3,-3,0,66,-11,-4
1511885912346710,-3,-6,-4,-3,-4,44,-11,-3
1511885912347710,-1,-4,-1,-3,-1,9,-6,-2
1511885912347710,-2,0,-1,1,1,-13,-2,-1
1511885912369807,2,1,1,-1,-2,-26,-1,1
1511885912369807,1,2,1,1,0,-28,3,-3
1511885912370768,2,4,10,2,0,-8,4,1
1511885912370768,0,-3,-10,-5,-2,17,-2,-1
1511885912383803,0,-3,-8,-11,-4,23,-6,-1
1511885912383803,-2,1,9,-1,-1,10,-3,0
1511885912384839,-1,-8,-23,7,4,-17,3,-2
1511885912384839,3,10,25,-1,1,-21,3,1
1511885912406907,-6,-6,-7,3,0,-21,5,-2
1511885912406907,0,-3,-16,-9,0,-16,1,-3
1511885912407867,2,4,-6,-5,-1,-3,-1,0
1511885912407867,-6,-6,-13,0,-1,1,2,0
1511885912429931,0,2,20,0,-2,12,-2,2
1511885912429931,0,-2,-7,5,-1,16,-4,0
1511885912430932,1,1,27,6,0,14,-3,-1
1511885912430932,3,0,-22,3,1,2,-1,-2
1511885912443969,-2,-1,-2,-3,-4,-7,2,-3
1511885912443969,-2,2,11,6,1,-6,-2,1
1511885912444971,2,-1,-5,-10,1,-3,-4,1
1511885912444971,19,26,15,3,1,7,0,3
1511885912467115,-14,-31,-2,2,0,-2,2,0
1511885912467115,-22,-22,-26,-10,-2,-14,-1,-7
1511885912468029,-2,7,18,7,-3,-10,-3,-4
1511885912468029,-1,3,-9,-6,1,-30,-3,-2
1511885912490128,13,29,12,7,5,22,3,4
1511885912490128,1,-16,0,-5,-4,-2,3,3
1511885912491089,-3,-3,-31,-9,-2,7,2,1
1511885912491089,-9,-16,9,13,-2,-23,0,-6
1511885912504165,4,5,-6,-9,2,-12,0,1
1511885912504165,4,16,26,9,6,5,2,4
1511885912505128,7,29,10,2,1,12,-1,2
1511885912505128,-5,-17,8,2,-3,4,0,-1
1511885912527184,-8,-35,-22,-5,-4,-14,-2,-2
1511885912527184,3,18,-10,-6,2,-13,0,-1
1511885912527184,1,-2,6,-4,-2,-5,0,-1
1511885912527184,-13,7,0,2,0,43,-6,-5
1511885912550249,1,7,26,-10,-4,37,-4,-1
1511885912550249,0,-10,-31,15,-4,27,-7,-3
1511885912550249,-3,-10,-13,-9,-5,0,-5,-5
1511885912550249,-6,-14,-12,-4,2,-17,1,-1
1511885912563381,2,10,17,-2,-3,-9,-3,-1
1511885912563381,8,9,12,7,0,40,-5,-1
1511885912571395,2,-2,-2,-2,1,33,-5,1
1511885912571395,3,-2,16,3,0,19,-4,0
1511885912586558,-3,-10,-12,4,-1,-15,-2,-2
1511885912586558,1,2,-17,-13,-2,-15,-1,0
1511885912587438,4,36,39,2,-3,-19,2,0
1511885912587438,2,-38,-67,-16,-10,-12,4,2
1511885912610528,-4,19,10,15,3,-39,6,1
1511885912610528,-9,-1,13,-4,-4,-62,8,-3
1511885912610528,-12,-19,-15,-2,2,-68,7,-1
1511885912610528,8,62,51,11,-6,-71,11,5
1511885912624736,0,-19,-42,-12,2,-72,14,6
1511885912624736,-7,-18,-12,-7,1,-60,8,2
1511885912625618,-2,6,29,7,-1,-7,7,-1
1511885912625618,5,1,-17,4,5,13,12,5
1511885912646599,8,16,29,9,2,101,-10,-1
1511885912646599,9,5,-3,-23,-2,126,-30,-6
1511885912647597,0,-45,-22,7,-6,127,-41,-12
1511885912647597,-9,-35,-37,-14,-6,81,-30,-16
1511885912669772,1,2,-3,-3,-6,-22,-10,-10
1511885912669772,5,13,22,9,-3,-100,13,2
1511885912670770,6,4,12,-2,3,-128,22,5
1511885912670770,3,23,15,2,6,-100,17,7
1511885912684807,-5,9,3,21,5,-61,19,8
1511885912684807,-6,-17,-10,-14,-1,-21,7,-1
1511885912684807,-3,-1,-8,-4,-1,11,6,2
1511885912684807,-4,-9,2,7,0,24,-5,0
1511885912706869,1,-5,-9,-24,-4,22,-8,-2
1511885912706869,2,13,39,23,2,27,-4,2
1511885912707873,-4,-11,-25,0,3,24,1,2
1511885912707873,-5,2,18,-9,3,4,1,-1
1511885912729931,7,19,7,10,-7,-1,-4,-1
1511885912729931,-4,-12,-10,-1,-1,-3,-2,1
1511885912730933,-4,-7,3,-7,-6,-5,0,-2
1511885912730933,0,8,1,1,1,-6,-2,-1
1511885912743991,-2,0,-4,-6,-2,-6,-3,0
1511885912743991,0,-25,-7,6,3,3,4,0
1511885912744967,1,20,8,-1,1,-1,0,-1
1511885912744967,7,2,-4,-3,1,-2,-4,0
1511885912767220,-10,-13,-10,1,-3,-1,0,-5
1511885912767220,-3,2,-15,-3,-4,1,-1,-3
1511885912768126,-3,-9,-8,-6,0,-4,2,-2
1511885912768126,1,2,5,0,-1,-4,0,0
1511885912790090,2,5,3,0,0,2,0,2
1511885912790090,6,8,18,9,4,3,0,4
1511885912791195,-13,-9,-7,0,-1,1,-3,-3
1511885912791195,-2,-3,-5,-6,0,-1,-1,-4
1511885912803126,-1,-6,-5,3,0,-1,-2,-2
1511885912803126,0,4,0,5,-1,1,-1,-1
1511885912812238,5,5,-6,0,2,-1,0,1
1511885912812238,1,-4,8,1,-2,1,-2,0
1511885912827192,-1,-5,-6,-7,-2,0,-2,0
1511885912827192,0,7,1,-8,3,-1,0,1
1511885912827192,2,0,-1,4,-6,0,0,-2
1511885912827192,-5,-8,-1,-4,-1,1,-1,-1
1511885912850251,0,0,-2,1,-2,-1,0,1
1511885912850251,1,2,-5,-6,-1,0,0,-1
1511885912850251,-1,-3,-4,-1,0,1,1,-1
1511885912850251,-3,-3,6,3,0,0,-1,-1
1511885912863282,-1,2,-7,-19,-3,0,0,0
1511885912863282,-1,1,4,21,1,2,-2,0
1511885912871306,-1,-4,1,-2,1,-1,0,1
1511885912871306,-1,0,-3,-1,-3,1,-2,0
1511885912886399,-1,-1,-7,-2,-2,3,0,-1
1511885912886399,1,0,-1,0,-11,-2,2,-1
1511885912887397,3,2,2,-1,2,-11,-3,-1
1511885912887397,-4,1,6,4,-2,23,-2,-3
1511885912910459,-2,-2,11,11,35,-1,1,-1
1511885912910459,-2,-1,-8,-10,-40,-7,3,-2
1511885912910459,4,2,-5,3,-2,8,-1,2
1511885912910459,-1,-2,-1,-4,10,-7,-3,-1
1511885912923614,-1,0,2,6,-5,6,0,-1
1511885912923614,0,1,1,-7,10,1,0,-1
1511885912931544,1,0,0,6,3,-6,0,1
1511885912931544,-1,-3,-5,-8,-8,-6,-2,0
1511885912946553,1,-5,-5,-3,-5,-4,-3,-2
1511885912946553,1,0,2,1,11,-5,-1,0
1511885912947555,-2,0,-7,-7,-11,5,-1,0
1511885912947555,-2,-2,-5,5,2,-2,0,-1
1511885912969800,-2,-3,-7,-3,0,5,6,1
1511885912969800,-1,0,3,-6,-1,-10,-7,-1
1511885912970617,-3,-3,1,-4,-11,8,-2,-2
1511885912970617,-1,-4,-10,-5,-14,-7,-2,0
1511885912983654,-1,0,-1,-3,-10,-1,-3,-2
1511885912983654,-2,2,-2,6,5,-1,2,0
1511885912991675,1,-1,10,3,9,3,-1,1
1511885912991675,0,-1,-9,-3,-9,-13,-1,-2
1511885913006716,-2,0,4,0,-4,4,2,-1
1511885913006716,-2,0,-3,-4,5,-1,-3,-1
1511885913007715,-1,-3,-7,4,0,-1,-1,-3
1511885913007715,1,1,8,-1,3,-5,1,-1
1511885913029774,1,-2,-2,5,-2,5,-1,1
1511885913029774,-2,2,6,-3,6,6,0,0
1511885913030776,-1,-1,0,1,-2,-9,6,1
1511885913030776,-1,0,-2,-4,-7,-3,-15,-1
1511885913043811,-1,0,2,1,3,-1,6,1
1511885913043811,0,-2,-3,-1,12,1,-2,-1
1511885913051940,-1,0,-5,-6,-11,-8,-2,-1
1511885913051940,-1,-1,6,-5,3,-9,8,2
1511885913066976,-2,-1,-5,-1,-23,-3,-7,-2
1511885913066976,-1,-2,-1,0,4,2,-1,1
1511885913067982,-3,-2,-4,-1,-6,-13,-5,-2
1511885913067982,0,0,2,3,6,6,3,-2
1511885913089936,-1,-1,-3,-2,-1,-4,-21,-3
1511885913089936,1,-2,-6,-4,3,15,30,-1
1511885913090940,-4,-4,-1,-3,-10,7,-21,-5
1511885913090940,-3,-1,0,-2,-19,-14,-8,0
1511885913111995,2,1,-1,3,3,3,-3,-2
1511885913111995,-1,0,-1,2,21,-4,-4,0
1511885913112995,3,2,3,5,8,25,-6,2
1511885913112995,1,-1,1,2,5,8,25,2
1511885913127033,-1,-1,-2,0,11,-5,-25,-1
1511885913127033,-1,-1,0,-2,-14,0,-1,-1
1511885913128067,1,2,0,-2,-2,-8,12,-3
1511885913128067,0,-1,1,5,14,-10,-13,8
1511885913149091,-3,-1,-2,-4,-29,-16,11,-10
1511885913149091,-2,-3,-4,-1,-6,19,-2,-3
1511885913150093,-1,1,-2,-7,-4,-26,-34,0
1511885913150093,0,-2,-1,-2,10,-12,29,-5
1511885913172199,0,0,0,0,12,28,35,2
1511885913172199,-1,1,0,0,-2,-8,-16,0
1511885913173158,-2,0,-1,1,6,-8,5,-1
1511885913173158,1,0,0,2,11,23,-14,4
1511885913187196,-1,-1,-1,1,14,-18,2,1
1511885913187196,0,0,-2,-4,-35,-7,-7,-5
1511885913194214,1,2,2,-2,-15,-21,13,3
1511885913194214,-2,1,5,4,8,2,12,-2
1511885913209253,-2,-3,-2,-2,-25,-28,-39,0
1511885913209253,-1,0,0,-3,-9,-18,3,-1
1511885913210258,1,-1,-1,0,9,5,-4,0
1511885913210258,0,-1,-3,-1,-9,17,-2,-2
1511885913232314,2,1,4,0,14,5,6,-1
1511885913232314,2,-1,-2,-2,12,2,2,1
1511885913233316,-9,-1,-1,-1,-17,-2,2,-1
1511885913233316,0,-1,-1,1,3,-5,-16,-1
1511885913246396,-1,-3,-3,-1,12,10,49,1
1511885913246396,1,0,-1,0,-3,20,-7,1
1511885913247357,3,-2,-1,-1,8,7,-47,0
1511885913247357,-3,-2,-2,-1,6,13,28,-3
1511885913277434,-2,0,0,-6,-18,-18,-13,1
1511885913277434,1,1,0,4,29,17,-3,0
1511885913278436,-1,-2,-4,-4,-1,-13,26,0
1511885913278436,1,1,1,0,-2,-4,-68,2
1511885913292516,0,3,-2,2,6,7,13,1
1511885913292516,-2,-2,-2,1,13,-15,1,-3
1511885913293478,4,0,-1,0,-12,-1,11,-1
1511885913293478,-5,-2,-3,1,28,14,14,-3
1511885913315535,-4,-2,2,-1,-1,-22,-5,1
1511885913315535,-3,-3,-2,-3,-17,-25,-8,-1
1511885913315535,-9,-1,0,0,16,15,13,-1
1511885913315535,2,-1,0,-3,-10,10,-10,0
1511885913329571,1,-2,-1,-1,-2,-2,7,-2
1511885913329571,-1,0,1,-2,-22,-31,-5,0
1511885913330573,0,-3,-2,0,4,13,-21,-1
1511885913330573,4,1,3,2,4,17,63,1
1511885913352645,-1,1,1,2,1,5,-27,1
1511885913352645,7,-2,-1,-1,-4,2,4,1
1511885913353649,2,-2,-3,-2,1,-3,5,-2
1511885913353649,-5,-3,-2,-2,-23,-18,-6,-3
1511885913366683,1,0,-1,1,8,8,-15,0
1511885913366683,-4,1,0,-3,-6,-3,9,0
1511885913367682,3,0,-1,2,0,3,-5,2
1511885913367682,0,0,-1,0,-12,-4,2,-2
1511885913389752,-3,-3,-1,1,-2,2,3,-2
1511885913389752,0,0,-2,2,45,-11,-15,-1
1511885913389752,-3,0,4,1,-1,-15,8,-3
1511885913389752,-5,-2,-9,-7,-19,-29,-12,0
1511885913412882,0,-1,-3,-2,15,26,4,-1
1511885913412882,-1,-1,-8,-9,-17,1,-7,-1
1511885913412882,11,-1,1,5,30,10,15,-1
1511885913412882,-10,2,5,4,-10,3,-11,-1
1511885913426840,2,1,5,3,-10,-11,-16,-2
1511885913426840,-1,-4,-4,5,11,4,7,-2
1511885913427844,-2,2,3,-9,-3,1,7,1
1511885913427844,0,-3,-12,-4,-2,7,-10,-2
1511885913449036,3,-1,7,7,7,9,3,0
1511885913449036,-2,1,-3,0,-4,9,2,-2
1511885913450035,-3,-1,-11,-1,-9,-7,1,0
1511885913450035,2,-1,3,-3,-53,11,-2,-2
1511885913472097,-1,2,9,-7,-4,9,0,-1
1511885913472097,-1,1,-9,9,-8,-1,1,0
1511885913473096,-1,1,-1,-4,-13,3,2,-1
1511885913473096,3,0,4,-1,10,-14,2,-1
1511885913487138,2,-1,-1,-6,31,22,5,0
1511885913487138,-2,-1,13,11,-25,1,3,-1
1511885913487138,-5,-3,-6,-3,-9,-10,-5,-3
1511885913487138,1,-1,-1,-1,13,-4,1,1
1511885913509232,-1,-1,1,-1,-16,-14,-1,-4
1511885913509232,1,0,2,-8,7,-2,0,2
1511885913510224,0,-1,1,4,8,13,12,1
1511885913510224,0,1,13,2,13,-4,-6,-1
1511885913532375,4,-1,-18,-5,-14,-13,7,0
1511885913532375,0,0,5,-8,4,13,3,1
1511885913533404,-1,2,12,7,9,-6,-7,-2
1511885913533404,2,-4,-26,-1,6,4,3,-2
1511885913555436,-1,1,3,1,-20,-5,3,2
1511885913555436,-2,-4,-4,0,-42,10,-4,-1
1511885913555436,2,0,13,4,63,-5,-1,3
1511885913555436,1,1,2,-7,29,-7,-7,0
1511885913569520,-3,-1,-4,4,7,-4,-6,-2
1511885913569520,-1,1,5,-3,4,-11,-8,-3
1511885913570477,0,-3,-7,-2,-13,8,5,0
1511885913570477,-2,0,3,-3,-9,8,-3,-3
1511885913592536,-2,-4,-23,-7,7,-2,-1,0
1511885913592536,0,3,20,10,-5,27,-7,1
1511885913593539,2,-1,-11,-3,-16,-4,27,-2
1511885913593539,1,-3,-2,4,25,24,3,-1
1511885913606615,-1,0,7,-3,-20,0,0,1
1511885913606615,-3,-3,-17,-6,31,-7,-6,-1
1511885913607578,-2,0,14,-5,-88,-38,-18,1
1511885913607578,-3,-6,-13,0,87,-2,-5,-3
1511885913629635,0,-3,-5,-5,19,26,9,2
1511885913629635,-1,0,3,6,-12,3,-3,-2
1511885913629635,1,1,-6,0,49,7,-6,0
1511885913629635,1,1,7,-4,-33,-10,3,-1
1511885913652736,-2,0,-1,-5,3,-1,-11,-2
1511885913652736,0,0,-2,-3,0,-7,18,-1
1511885913653698,-7,-3,-3,0,-6,27,-37,0
1511885913653698,5,4,2,5,-22,-5,4,0
1511885913665728,-1,-1,1,2,8,-17,-5,-1
1511885913665728,-1,0,7,-5,-36,6,5,0
1511885913674753,-1,-1,-8,-6,-17,-9,4,-3
1511885913674753,-2,0,-5,6,2,1,-3,-1
1511885913688791,-4,-2,3,-2,-70,-39,-14,-4
1511885913688791,1,-2,-3,-1,87,23,1,-1
1511885913689797,1,1,4,1,-11,11,8,1
1511885913689797,0,1,-1,-8,11,3,-3,0
1511885913712855,2,1,-6,1,4,-5,6,0
1511885913712855,-2,-2,1,3,-24,-25,-3,-1
1511885913712855,0,0,-4,1,19,6,7,1
1511885913712855,0,0,10,0,-41,-9,-23,0
1511885913725893,-3,-1,1,-2,0,2,43,0
1511885913725893,-2,-3,-12,-3,1,-8,-17,-1
1511885913733914,-1,0,-3,-3,-4,8,22,-2
1511885913733914,0,-4,3,2,-1,-12,2,1
1511885913748954,1,-1,6,0,-21,-7,-13,0
1511885913748954,2,4,13,-1,-28,-5,12,-2
1511885913749957,-2,-5,-24,-3,0,15,-6,-1
1511885913749957,-2,0,2,-4,-11,-7,-3,0
1511885913772054,-1,-1,-13,-2,9,3,-10,-1
1511885913772054,-1,1,11,4,16,-9,10,-1
1511885913773018,-1,0,7,-4,-13,-12,-10,-1
1511885913773018,-1,-1,0,2,-52,-11,13,0
1511885913786052,-1,0,5,6,92,26,-6,-2
1511885913786052,-1,0,-6,-1,17,-6,-2,-1
1511885913794379,0,-4,1,-3,13,-5,8,-3
1511885913794379,-1,1,-11,0,-7,-5,-18,-3
1511885913809263,0,1,8,3,-59,18,0,-2
1511885913809263,-1,-2,-8,-14,47,1,-5,1
1511885913810240,1,-1,-7,5,15,0,-1,1
1511885913810240,-2,-2,7,6,3,2,23,3
1511885913832423,-1,1,1,-1,-15,-7,-4,-2
1511885913832423,-7,-3,-14,-9,-9,-5,-29,0
1511885913833308,0,2,10,6,-19,-12,-4,-2
1511885913833308,0,-1,-5,-8,-9,-1,17,0
1511885913846455,1,2,-3,-2,-42,-2,-12,0
1511885913846455,-3,0,-1,7,75,26,13,-3
1511885913854361,-3,0,-3,-9,-25,-21,-15,-2
1511885913854361,3,1,4,4,-50,-9,-27,0
1511885913869401,-4,-2,1,-1,28,-14,16,0
1511885913869401,2,-1,-5,-7,-53,4,15,-1
1511885913870404,-1,0,0,6,39,0,-2,2
1511885913870404,-1,-3,-1,-6,4,15,2,-2
1511885913892516,-3,-2,1,1,24,11,2,-1
1511885913892516,1,2,-2,0,-24,-13,-19,2
1511885913893516,1,-2,-1,2,14,20,17,1
1511885913893516,0,-2,-3,-6,0,-16,3,-4
1511885913906600,1,0,-1,-3,-23,-16,-9,1
1511885913906600,-3,-3,-2,0,-14,11,-10,-2
1511885913914624,-2,-1,1,-4,-41,-6,2,0
1511885913914624,-2,1,1,-1,-7,-5,3,1
1511885913929587,-2,-4,-1,-1,10,2,-17,0
1511885913929587,-1,-1,0,2,14,10,5,-2
1511885913930608,7,2,0,-5,-76,-4,-13,1
1511885913930608,-1,-1,-1,4,36,14,16,-5
1511885913952622,2,0,-2,-3,-30,-17,-33,6
1511885913952622,1,1,1,-1,-18,-20,-11,19
1511885913953626,-2,1,-1,2,-9,13,-28,-41
1511885913953626,-1,-2,-2,1,18,11,53,27
1511885913965657,1,-2,-1,4,75,-13,5,-5
1511885913965657,0,-2,0,-2,38,13,-7,0
1511885913974820,-3,-1,-1,-1,-26,-9,-5,9
1511885913974820,2,0,2,2,23,5,5,-7
1511885913988837,-1,2,0,-2,-59,-4,-14,-9
1511885913988837,0,-3,-3,2,-7,-8,12,-3
1511885913989840,0,-2,0,-1,38,2,10,6
1511885913989840,-3,-1,-2,0,26,11,-11,-7
1511885914012001,-2,-1,-1,-2,-11,-4,-22,6
1511885914012001,-1,-1,-5,-8,-22,-13,-5,-9
1511885914012901,-1,2,7,9,10,3,10,6
1511885914012901,-1,1,5,-5,-27,-22,-23,-2
1511885914025936,2,-1,-11,3,12,8,20,-1
1511885914025936,-2,-3,1,-4,-100,-23,4,-4
1511885914033959,-2,-3,-1,-6,86,-21,-4,1
1511885914033959,-3,0,-10,-5,40,1,-10,-2
1511885914049001,-1,-1,5,7,31,9,9,-1
1511885914049001,0,1,-1,1,-28,9,9,-3
1511885914049999,-1,-2,-1,1,-6,9,-9,6
1511885914049999,0,1,5,-1,-34,-11,-11,-5
1511885914072177,-3,-3,-2,-7,-1,0,-12,0
1511885914072177,0,-1,-4,-1,17,5,16,-2
1511885914073100,0,-3,6,5,8,8,17,1
1511885914073100,0,1,-2,-6,-27,-5,-10,-1
1511885914095120,-5,-3,3,4,48,12,-1,-6
1511885914095120,2,-2,-15,-5,-80,3,1,2
1511885914096129,-2,-3,0,2,80,19,-8,1
1511885914096129,1,-2,-2,3,18,-15,14,-2
1511885914109196,1,2,6,-5,-11,2,17,2
1511885914109196,0,1,9,7,36,10,-9,-1
1511885914110207,3,-1,-9,-3,-25,2,6,4
1511885914110207,-2,0,1,0,-1,-11,0,-3
1511885914132260,0,1,2,4,8,13,6,-2
1511885914132260,0,0,0,-5,12,-11,-3,-1
1511885914133221,-2,-1,-7,2,-27,-1,0,-1
1511885914133221,0,0,8,8,5,2,-4,2
1511885914155323,-2,-2,-5,-7,-61,-12,8,0
1511885914155323,-2,0,3,2,-4,8,-6,-4
1511885914155323,-1,2,1,-3,-8,-7,5,2
1511885914155323,1,0,-8,-7,23,12,-9,2
1511885914169320,-5,-2,-1,-3,-12,-14,-10,-8
1511885914169320,0,-3,-8,-5,28,-17,-9,-2
1511885914170320,-4,-3,11,-1,-97,9,0,-6
1511885914170320,3,3,-7,11,49,21,-13,1
1511885914192528,11,38,3,-9,-19,18,23,1
1511885914192528,-7,-35,-2,7,31,-5,1,4
1511885914193381,-13,-20,-13,-8,-19,-8,-4,-3
1511885914193381,-3,-1,4,4,-25,9,-5,-6
1511885914214567,1,0,17,2,13,-6,6,0
1511885914214567,4,20,-19,0,1,-12,2,0
1511885914215567,9,11,12,5,8,0,-1,3
1511885914215567,-10,-9,1,-3,-11,-9,1,0
1511885914229632,8,-1,1,5,28,4,-4,5
1511885914229632,-3,6,17,4,2,11,1,0
1511885914229632,-8,-21,-34,-15,4,-7,4,-4
1511885914229632,2,6,1,-4,-69,-13,-12,-2
1511885914252665,-3,-8,-5,1,56,15,-19,-3
1511885914252665,6,1,20,-8,-1,8,1,-1
1511885914253672,0,10,-12,11,1,1,6,4
1511885914253672,-9,17,-5,-5,-10,-9,4,-5
1511885914274727,7,-20,-1,-2,-16,-9,-1,4
1511885914274727,-8,-28,-11,-2,3,-9,-2,-3
1511885914275727,10,17,9,-13,-5,-1,-2,-5
1511885914275727,-5,-8,-16,-4,-9,-2,-1,1
1511885914289798,1,7,8,3,13,-11,1,1
1511885914289798,7,16,23,12,-3,4,1,1
1511885914289798,-1,-9,-34,-18,-22,-4,-2,1
1511885914289798,5,0,7,2,0,-7,-4,-1
1511885914312141,1,3,2,3,-4,-3,5,0
1511885914312141,-5,-1,9,6,-9,12,-4,0
1511885914312967,0,3,12,-15,5,-1,-1,0
1511885914312967,-5,-13,-7,16,3,-4,1,-2
1511885914335028,2,-5,7,-6,11,-10,-2,-1
1511885914335028,4,5,-35,-6,3,3,-3,0
1511885914336031,1,7,12,18,12,-4,0,1
1511885914336031,1,-2,2,-8,13,-9,10,-1
1511885914349062,-8,-9,0,-3,-99,-19,-24,0
1511885914349062,1,8,4,2,18,8,2,0
1511885914350064,-1,-2,-4,-7,15,-3,3,-4
1511885914350064,-5,-3,-4,-16,-12,-1,-13,-1
1511885914372313,-5,-1,-2,19,-20,11,9,0
1511885914372313,0,3,8,-4,-20,-3,9,-3
1511885914373132,-3,-2,7,6,2,3,-7,-1
1511885914373132,3,-13,-20,-8,-17,-6,0,0
1511885914395355,-3,1,-10,-8,42,4,4,-3
1511885914395355,-1,3,16,5,3,-10,2,1
1511885914396189,-1,1,-7,11,5,2,-12,-2
1511885914396189,7,3,5,7,7,0,-3,0
1511885914409346,-3,-4,-6,-7,-7,-5,-5,-3
1511885914409346,-10,-4,-11,-15,-13,0,5,0
1511885914410381,8,6,30,13,-56,-11,3,1
1511885914410381,0,1,-2,-8,-37,-2,-5,0
1511885914432405,-5,-5,-17,-6,55,-8,1,-1
1511885914432405,0,4,13,9,-27,5,-4,-3
1511885914433407,-1,-2,-7,-2,-3,-9,2,0
1511885914433407,1,3,8,3,15,1,-2,0
1511885914455500,-3,-5,-6,-1,-56,-6,2,-4
1511885914455500,-2,-3,-20,-13,8,-9,1,-2
1511885914455500,-3,-7,0,-4,40,-17,-12,-2
1511885914455500,-6,4,21,6,-35,-2,-22,-2
1511885914469546,-1,-6,-16,-9,-62,14,1,-1
1511885914469546,2,1,-4,5,89,16,3,0
1511885914470507,-2,-5,-5,2,4,-12,-3,-1
1511885914470507,1,2,35,3,42,7,7,0
1511885914492599,-1,-1,-33,-9,-27,-9,-3,-1
1511885914492599,0,-1,-8,3,7,-5,-8,-1
1511885914493569,-1,-3,2,-7,-3,26,7,1
1511885914493569,3,2,19,8,7,0,3,-3
1511885914514623,1,-2,-6,6,-14,2,5,2
1511885914514623,3,-2,-8,-2,-19,-9,-2,0
1511885914515626,2,0,4,1,17,5,1,0
1511885914515626,0,1,-1,-9,10,0,6,2
1511885914529665,-8,-2,-8,3,12,5,4,-1
