timestamp,emg1,emg2,emg3,emg4,emg5,emg6,emg7,emg8
1512354409304839,-2,-1,-5,-4,-4,3,0,-2
1512354409304839,-4,-3,0,-2,-3,-2,1,0
1512354409305839,1,-1,4,2,1,0,-1,1
1512354409305839,1,-3,-7,0,1,0,1,-1
1512354409306839,-1,-1,-1,-2,0,-1,-2,0
1512354409306839,0,0,-2,0,0,-4,-2,1
1512354409306839,-2,0,3,4,-2,0,0,-3
1512354409306839,-1,-5,-7,-3,-4,0,1,2
1512354409318839,-1,-4,-2,-4,4,3,2,-1
1512354409318839,-2,-1,-4,-1,-1,0,0,2
1512354409326839,0,3,8,-1,-2,-2,-5,0
1512354409326839,1,2,-3,-1,1,-1,-3,-1
1512354409341839,2,-1,-2,0,-2,-1,1,1
1512354409341839,-1,1,2,-1,0,0,0,-2
1512354409347839,-2,0,-2,-2,-1,-3,-1,-2
1512354409347839,0,4,7,0,-4,1,2,-2
1512354409356839,-1,-1,-5,-4,-1,-1,-2,2
1512354409356839,0,0,1,2,0,0,-1,0
1512354409362839,-4,1,2,1,1,2,-3,0
1512354409362839,0,-4,-4,-6,-1,3,-1,-4
1512354409378839,-1,-2,-6,-2,-1,-2,-2,1
1512354409378839,1,2,-5,1,-1,2,-2,1
1512354409386839,2,2,6,2,2,1,2,-2
1512354409386839,-2,0,5,0,-2,-5,1,0
1512354409425839,-3,-2,-11,-8,-1,0,3,1
1512354409425839,0,1,-2,1,-1,0,-2,1
1512354409426839,-3,1,4,5,-2,2,1,-3
1512354409426839,0,-1,5,4,-4,-1,-1,-1
1512354409427839,-1,0,1,-2,-1,-2,-5,0
1512354409427839,1,-2,-8,-1,2,-4,1,1
1512354409429839,-3,0,-3,-6,-1,1,-3,-2
1512354409429839,-2,3,6,0,3,1,-3,-1
1512354409437839,2,-2,-2,3,1,-1,-1,-2
1512354409437839,-4,-2,-1,-4,-2,1,0,-5
1512354409444839,2,1,0,1,-1,-1,0,-3
1512354409444839,2,0,-4,0,1,-4,-1,-1
1512354409452839,0,-4,-2,-3,0,9,2,-2
1512354409452839,2,-1,-3,-1,-3,-5,-2,1
1512354409467839,-1,2,5,5,0,1,-1,2
1512354409467839,-1,-4,-1,-7,-1,2,-1,-2
1512354409475839,-1,1,-5,-1,-1,-3,-1,-1
1512354409475839,-2,-5,6,1,3,1,1,0
1512354409482839,-1,1,-5,-1,0,2,0,0
1512354409482839,-3,-2,-7,-1,1,-1,-4,0
1512354409498839,-3,1,-1,-3,-1,-4,1,-2
1512354409498839,1,0,1,-2,-3,1,-1,-3
1512354409504839,0,-4,4,-1,0,-5,-1,-1
1512354409504839,1,-1,-3,0,-3,2,3,1
1512354409512839,1,2,7,3,1,0,-1,0
1512354409512839,-1,3,-1,2,-1,0,-3,0
1512354409527839,0,-1,1,-1,3,1,0,0
1512354409527839,0,-3,-9,-7,0,0,0,1
1512354409535839,-2,-5,-5,-2,-4,-3,0,-2
1512354409535839,0,-1,2,-1,3,1,0,0
1512354409542839,1,4,1,3,1,1,-4,-1
1512354409542839,4,1,1,3,0,-1,1,-2
1512354409558839,1,0,5,0,1,-2,0,1
1512354409558839,-4,0,-2,-1,-1,-2,-1,-1
1512354409564839,-1,-3,4,-2,-3,3,1,-1
1512354409564839,-4,0,-5,-1,-1,1,1,-1
1512354409572839,-1,-5,-7,-3,-1,-2,1,-1
1512354409572839,1,-1,-1,-5,-4,4,-1,-2
1512354409587839,2,3,-2,-3,2,2,0,0
1512354409587839,-2,-2,3,2,0,1,2,0
1512354409595839,0,0,5,3,2,0,0,0
1512354409595839,1,0,-3,4,-4,-2,-1,-2
1512354409602839,2,-2,-12,-6,-2,-1,1,0
1512354409602839,1,0,-1,-4,0,2,0,0
1512354409617839,-2,0,-2,5,1,2,-1,-2
1512354409617839,-2,2,8,1,0,-1,2,1
1512354409624839,-6,-5,2,1,-2,-2,-3,-3
1512354409624839,-2,-1,-2,0,-1,-2,1,-2
1512354409632839,2,1,5,-2,-2,3,-2,2
1512354409632839,-2,2,4,4,0,-1,-3,-1
1512354409647839,-4,-1,-5,-7,-2,-1,1,0
1512354409647839,6,-1,-2,-4,2,0,-2,0
1512354409655839,-2,1,-5,-4,-3,-1,-4,-1
1512354409655839,2,-3,-5,-1,1,0,-2,1
1512354409662839,1,1,-5,-1,-1,-3,2,-1
1512354409662839,-1,-1,4,3,-1,-1,-1,-2
1512354409677839,0,1,16,6,-1,2,1,1
1512354409677839,1,-2,0,-3,-1,3,3,0
1512354409684839,2,-7,-16,-5,-1,-5,1,1
1512354409684839,-2,2,-1,0,-2,2,0,0
1512354409692839,1,1,0,0,0,0,-2,-2
1512354409692839,0,-1,1,1,1,-4,3,-3
1512354409707839,-2,2,1,2,-2,-1,0,3
1512354409707839,0,-1,-5,-6,-2,-3,1,-2
1512354409715839,0,-1,-4,-1,-3,-3,-3,0
1512354409715839,-2,3,7,0,2,4,-2,-3
1512354409729839,0,-3,-2,-1,1,1,1,2
1512354409729839,-2,-2,-4,-1,-4,-3,-2,3
1512354409737839,-2,-1,-2,-2,-3,0,-4,-2
1512354409737839,4,1,-1,3,3,-2,-3,0
1512354409744839,-1,2,7,2,0,3,-2,-2
1512354409744839,3,0,6,5,1,-1,-4,0
1512354409752839,0,-1,-3,-2,1,1,4,-1
1512354409752839,0,-3,-8,-11,-1,1,1,2
1512354409767839,1,0,-4,-3,-2,3,-3,-1
1512354409767839,-2,1,-1,1,-1,-4,2,0
1512354409775839,0,0,-2,-3,0,-2,-1,2
1512354409775839,-1,0,0,0,-3,-2,-1,1
1512354409789839,-2,-2,-3,-3,-2,1,-1,-3
1512354409789839,1,-2,1,-1,1,2,-1,-3
1512354409797839,1,1,7,8,1,3,3,-1
1512354409797839,-2,2,-4,-2,-2,2,-1,-2
1512354409804839,-2,-1,-8,-5,-2,-2,-1,0
1512354409804839,-2,2,5,4,-2,-2,-1,1
1512354409812839,-2,-2,1,-4,0,1,-2,-2
1512354409812839,3,-1,-9,-6,-2,1,0,2
1512354409827839,0,1,9,0,0,-1,0,-4
1512354409827839,-2,-1,-6,-3,1,1,-2,2
1512354409835839,-2,-2,-1,-1,-2,-3,1,0
1512354409835839,-2,-2,3,-1,0,3,-6,-3
1512354409849839,2,-3,2,-1,0,-3,0,0
1512354409849839,1,0,0,-2,-1,-2,1,-4
1512354409857839,0,0,1,0,1,-2,1,0
1512354409857839,-3,-2,1,2,0,3,0,-1
1512354409864839,1,1,5,3,-1,0,-3,0
1512354409864839,-2,0,0,-1,-3,0,-1,-2
1512354409872839,-2,-1,-9,-5,0,0,0,-1
1512354409872839,-3,0,-8,-3,-2,-2,-2,0
1512354409887839,1,0,4,3,-1,3,0,-1
1512354409887839,-2,1,5,0,-1,1,1,2
1512354409895839,2,1,-8,1,4,4,-1,1
1512354409895839,1,-4,-3,-4,-2,-4,-2,0
1512354409909839,-1,1,1,3,0,-1,3,-2
1512354409909839,0,1,4,-1,1,4,-1,1
1512354409917839,-1,-1,5,-2,-1,-2,0,-1
1512354409917839,0,-3,1,1,-3,-2,-2,-2
1512354409924839,-3,-6,-13,-4,1,-1,-2,1
1512354409924839,-2,0,-6,-8,-2,3,0,2
1512354409932839,1,2,1,2,0,3,1,-5
1512354409932839,-2,2,12,8,0,1,2,1
1512354409956839,0,-2,5,-1,2,-1,-2,-1
1512354409956839,-2,-5,-6,-3,0,3,-1,-3
1512354409956839,-1,-3,-9,-2,-5,-3,-4,0
1512354409956839,0,2,-1,2,-2,1,1,-1
1512354409969839,0,5,6,-1,1,4,1,1
1512354409969839,-2,-2,1,-3,2,1,-2,-1
1512354409977839,2,-1,4,1,-1,-3,-2,-1
1512354409977839,0,2,-1,-4,0,-1,1,-2
1512354409984839,0,-2,-1,1,-2,0,0,0
1512354409984839,-1,-1,-4,-2,-1,-2,1,-4
1512354409992839,-2,-2,-1,-3,-2,1,-2,-2
1512354409992839,-3,-3,-6,-5,-2,-2,1,2
1512354410007839,-1,0,-4,-2,-3,0,1,0
1512354410007839,0,2,7,4,0,0,-2,0
1512354410015839,3,0,8,4,0,3,-2,0
1512354410015839,1,-4,-6,-5,-1,2,-2,2
1512354410029839,-2,0,-10,-5,-2,3,0,-2
1512354410029839,0,0,-2,2,1,-1,-3,-2
1512354410037839,2,0,-1,1,0,-1,-2,-2
1512354410037839,0,0,-1,0,0,1,-2,-2
1512354410044839,0,0,0,-3,1,-2,-2,-2
1512354410044839,7,0,-3,-4,-2,-1,1,1
1512354410060839,1,3,10,1,0,-6,1,3
1512354410060839,-2,-1,-4,-5,-1,0,1,1
1512354410067839,0,-2,-6,1,0,0,-1,-2
1512354410067839,-2,0,6,1,-4,1,-3,-1
1512354410075839,-3,-3,-8,-2,2,3,-2,0
1512354410075839,1,1,-2,1,-3,-4,1,-2
1512354410089839,0,-1,5,3,0,2,-2,-2
1512354410089839,0,1,6,0,2,-6,0,-1
1512354410097839,2,-2,-6,-4,-1,3,0,-1
1512354410097839,-2,-2,1,1,4,1,-3,-2
1512354410104839,-1,1,-1,0,-1,-1,1,0
1512354410104839,1,-2,5,3,1,-1,1,0
1512354410120839,-2,0,-6,-5,-3,-4,-2,-1
1512354410120839,0,-2,-10,-4,-2,0,0,-2
1512354410127839,-1,0,0,0,0,-4,2,1
1512354410127839,-1,0,5,5,0,5,-1,-2
1512354410135839,-1,1,10,6,1,-1,5,0
1512354410135839,-2,-2,-12,-2,2,-4,-1,1
1512354410149839,0,-2,-9,-10,-4,0,-4,0
1512354410149839,1,-2,-1,0,0,-1,-2,1
1512354410158839,-2,2,-2,-2,-1,-2,2,-1
1512354410158839,-1,-1,18,7,1,1,-2,3
1512354410164839,1,-2,-2,-3,-4,-3,-1,-1
1512354410164839,-2,-3,-14,-4,-4,-1,0,0
1512354410180839,1,-3,-7,-4,-3,0,-4,1
1512354410180839,0,2,9,4,3,-3,1,-4
1512354410187839,0,0,12,0,-1,0,2,-1
1512354410187839,-3,-2,-11,-3,-3,0,-1,-1
1512354410195839,0,0,-7,-4,-4,0,-1,-4
1512354410195839,-1,2,5,2,-2,2,2,-1
1512354410209839,-1,0,6,2,4,4,-2,0
1512354410209839,2,-2,-4,-6,-4,-5,-2,-1
1512354410217839,-1,0,-3,-2,0,3,-1,-2
1512354410217839,2,1,3,0,-2,1,0,-2
1512354410224839,0,0,-2,-2,0,-1,1,0
1512354410224839,-2,-2,-7,-4,0,1,-1,-3
1512354410240839,-1,-3,-6,-4,2,-4,-2,0
1512354410240839,-2,0,-1,0,-2,-3,-3,0
1512354410247839,0,1,10,7,2,4,0,-2
1512354410247839,-2,1,0,2,3,2,0,-1
1512354410255839,2,-1,5,-1,-3,0,1,-1
1512354410255839,-1,-3,0,-7,-1,-1,0,-1
1512354410269839,-2,-5,-11,-2,2,4,-2,0
1512354410269839,-1,-2,5,-1,1,-2,1,3
1512354410278839,-1,2,1,-2,4,1,-2,1
1512354410278839,1,1,2,2,-3,0,-1,0
1512354410284839,1,1,-4,2,-3,-4,-2,-2
1512354410284839,-2,1,6,1,0,4,4,2
1512354410301839,-2,-4,-8,-7,-3,-2,-1,-1
1512354410301839,-1,0,-12,-8,-1,-1,-3,0
1512354410307839,-3,1,0,-6,-1,3,-2,3
1512354410307839,1,5,13,7,1,-3,-2,2
1512354410316839,-1,-1,4,6,-1,1,-1,2
1512354410316839,0,-2,-2,-2,1,6,-2,0
1512354410329839,1,-2,-3,2,2,0,0,-2
1512354410329839,-3,-3,-2,-4,-5,-1,-1,-2
1512354410338839,1,-1,-2,-3,4,4,0,0
1512354410338839,-3,-5,-7,-5,1,0,-2,-4
1512354410344839,-2,-3,2,4,0,2,3,0
1512354410344839,-2,0,-1,0,-1,7,1,2
1512354410361839,1,1,2,0,2,-1,1,-2
1512354410361839,-2,-1,4,3,-5,-1,-1,0
1512354410367839,-2,-2,-2,-7,-2,-3,-2,-5
1512354410367839,2,-2,0,0,-2,-4,-1,-2
1512354410382839,0,-1,1,4,0,1,3,0
1512354410382839,-2,0,-3,-2,1,-1,1,0
1512354410389839,0,1,0,2,-1,1,-2,0
1512354410389839,1,1,-2,-2,-2,0,0,-3
1512354410398839,-1,-4,0,-4,-3,-6,-2,-2
1512354410398839,0,-1,-7,-1,0,2,2,2
1512354410412839,1,-2,3,1,-3,0,-1,0
1512354410412839,-3,-2,-3,-1,1,-1,-3,-3
1512354410421839,-1,0,5,3,0,-2,-3,3
1512354410421839,-1,3,2,0,-1,-1,-1,0
1512354410435839,-1,-2,-7,0,2,3,0,-1
1512354410435839,1,-3,-2,-4,-3,0,1,3
1512354410442839,-3,0,3,4,-4,-1,-2,-3
1512354410442839,-1,-2,3,-1,4,-3,2,0
1512354410449839,1,3,0,-2,-2,-4,-1,-1
1512354410449839,1,-1,-6,4,0,-1,-1,-3
1512354410458839,-5,-2,3,-4,-2,-1,1,0
1512354410458839,1,-2,-4,-1,1,-1,1,-2
1512354410472839,-4,-7,-7,-2,-4,0,-3,-1
1512354410472839,-1,3,-3,-5,-3,-4,-3,1
1512354410481839,0,2,-5,-2,-2,-1,0,-3
1512354410481839,0,3,3,3,1,0,0,-2
1512354410495839,-1,3,3,2,0,-4,0,-1
1512354410495839,-4,-4,5,3,1,-1,-2,-1
1512354410502839,-1,1,1,2,0,1,1,-1
1512354410502839,-1,-2,-2,-6,-5,0,-2,-2
1512354410509839,-2,1,-3,-3,0,-3,2,-1
1512354410509839,-1,-3,-7,-1,4,3,1,0
1512354410518839,2,0,9,0,-1,-2,-1,-2
1512354410518839,3,0,-1,4,-1,-2,0,0
1512354410532839,-2,0,-2,1,-1,1,-3,2
1512354410532839,-2,-2,1,-3,-1,-2,-3,-4
1512354410541839,0,-1,-11,-9,-4,-5,-3,1
1512354410541839,2,0,2,4,0,3,0,0
1512354410554839,1,-1,3,0,-1,1,-1,0
1512354410554839,1,2,2,3,0,0,-2,0
1512354410563839,-2,3,1,5,-2,3,-1,-2
1512354410563839,0,0,6,0,3,1,-1,-2
1512354410569839,0,1,1,-1,-3,-1,3,1
1512354410569839,-1,-3,-5,-5,-1,-2,1,1
1512354410579839,0,-1,-8,-4,0,0,-1,0
1512354410579839,-1,-4,5,0,-2,-1,1,-1
1512354410592839,-1,-2,3,-4,-2,4,-1,-2
1512354410592839,-1,4,4,2,0,-1,-1,-2
1512354410601839,2,-1,-6,1,5,0,0,3
1512354410601839,-2,-1,-2,-4,-1,-1,-1,-1
1512354410614839,2,-1,-7,-8,-1,-1,0,-3
1512354410614839,1,2,3,2,-2,1,3,-2
1512354410623839,-2,-4,5,4,2,1,-6,-1
1512354410623839,1,2,4,1,1,6,-2,0
1512354410629839,1,1,-3,-1,-1,-2,-3,-1
1512354410629839,0,-2,-4,-4,0,-2,0,0
1512354410638839,0,-1,6,2,2,3,4,-3
1512354410638839,2,0,-3,1,0,-1,-2,2
1512354410652839,-1,-4,-2,0,-1,-4,-2,0
1512354410652839,-1,0,-4,-9,2,3,2,-2
1512354410661839,-2,1,1,3,-2,-4,4,0
1512354410661839,-3,0,10,3,-4,-8,-4,-2
1512354410674839,-3,-2,-5,-1,0,0,3,2
1512354410674839,0,-5,-18,-17,-7,3,-2,-1
1512354410683839,-1,-2,-12,-8,-3,2,0,-3
1512354410683839,-3,2,3,6,3,4,0,-2
1512354410689839,0,2,11,6,0,-1,-2,-1
1512354410689839,0,1,16,8,0,1,-3,0
1512354410698839,1,-1,6,-1,1,-2,-1,4
1512354410698839,-3,-1,-16,-3,-5,0,-2,-1
1512354410712839,0,-1,-4,-3,-1,-9,0,-6
1512354410712839,-1,-4,-7,-3,0,-15,1,-1
1512354410721839,1,1,3,4,-4,-15,-1,2
1512354410721839,0,-4,2,0,0,18,1,0
1512354410734839,1,2,-2,-1,0,21,1,2
1512354410734839,1,1,-3,3,-4,11,0,0
1512354410743839,-1,-3,10,1,-1,4,-3,-3
1512354410743839,-3,-3,-5,4,2,0,2,2
1512354410749839,0,2,8,2,2,-3,-2,-1
1512354410749839,-3,-1,-5,0,1,-1,-2,0
1512354410758839,-1,0,-11,-1,-1,-2,-3,0
1512354410758839,2,2,9,0,2,-7,0,1
1512354410772839,0,-1,19,4,-2,2,-1,2
1512354410772839,-1,-6,-9,-5,-5,-6,0,0
1512354410781839,-5,-7,-49,-28,-4,5,2,-3
1512354410781839,1,-3,-13,-13,-4,-1,-1,-1
1512354410794839,-2,3,2,-4,1,-4,0,-1
1512354410794839,4,5,25,16,8,1,0,2
1512354410803839,1,3,22,11,1,4,1,-1
1512354410803839,-2,-3,-11,-1,-2,-5,0,-5
1512354410809839,2,-2,-15,-11,-3,-3,-1,0
1512354410809839,-1,1,1,0,1,1,-3,0
1512354410818839,1,1,8,2,-2,-3,-3,-2
1512354410818839,0,2,8,4,-1,-6,-1,-1
1512354410832839,-1,-6,4,8,-1,0,-2,-3
1512354410832839,-3,-3,-10,-6,0,0,-1,2
1512354410841839,4,2,1,4,-3,-4,4,0
1512354410841839,-1,1,5,-3,1,-3,0,-2
1512354410854839,0,-1,-8,-5,-4,3,1,0
1512354410854839,-1,-1,-3,-2,1,-6,0,-3
1512354410863839,0,-3,3,-2,-2,5,-1,-2
1512354410863839,-1,2,-3,-4,0,2,1,-1
1512354410869839,0,-2,-6,-3,4,-5,1,2
1512354410869839,-2,1,3,-1,-1,1,0,-1
1512354410878839,-1,0,5,1,0,2,-2,1
1512354410878839,-1,0,-4,-2,0,-1,0,-3
1512354410892839,-2,-4,-3,0,-3,0,1,3
1512354410892839,-1,2,3,1,0,1,0,-1
1512354410901839,3,0,-1,-1,-1,-3,0,0
1512354410901839,-1,-3,-3,-2,-1,1,-1,2
1512354410914839,-1,1,-1,2,0,-2,-3,-2
1512354410914839,-1,-1,-1,0,1,2,-2,1
1512354410923839,-2,-1,-2,0,-2,-1,1,-2
1512354410923839,-1,2,-1,0,0,1,2,1
1512354410929839,0,2,0,0,-2,-1,1,-4
1512354410929839,-1,-3,-2,0,-3,-1,-2,0
1512354410938839,1,-1,-3,-3,5,4,1,-1
1512354410938839,-1,-3,2,0,-1,-3,-3,1
1512354410952839,-2,-2,-3,-1,0,1,0,-2
1512354410952839,-1,1,2,2,-4,-2,-1,0
1512354410961839,-2,-1,8,4,0,-4,2,-3
1512354410961839,-2,-2,-3,-5,-4,-2,1,2
1512354410974839,-4,-3,-19,-10,-1,1,-3,-2
1512354410974839,3,3,-2,-3,0,3,2,0
1512354410983839,-2,-1,6,3,0,-2,2,3
1512354410983839,1,0,5,3,-2,1,-2,-1
1512354410989839,1,1,9,4,2,-4,-5,-2
1512354410989839,-2,-2,-2,1,-2,-1,-1,-2
1512354411004839,-2,-2,-5,-6,0,1,-2,-1
1512354411004839,0,-3,-3,-4,-2,-1,4,2
1512354411012839,0,-3,0,-2,1,-4,3,-1
1512354411012839,-1,-2,-2,-1,-1,-4,-1,-1
1512354411021839,4,0,4,2,2,1,-2,1
1512354411021839,-3,0,0,0,-4,-7,-3,-4
1512354411034839,-1,1,-3,-4,-1,-1,0,-2
1512354411034839,3,0,0,0,2,-1,2,-4
1512354411043839,-1,0,-2,-5,-2,-1,-2,0
1512354411043839,4,-2,-2,0,2,4,-2,-1
1512354411049839,-1,-1,4,4,0,0,-2,0
1512354411049839,-2,-1,-4,-3,-5,3,-1,-2
1512354411058839,-2,-1,-4,-4,-3,-4,0,2
1512354411058839,-2,1,-2,2,-2,-17,-2,-4
1512354411072839,-2,1,1,-1,-4,-3,4,5
1512354411072839,-2,0,-1,-2,2,-1,3,-3
1512354411081839,1,2,1,-1,-2,10,2,1
1512354411081839,-2,0,2,-1,-2,15,-1,0
1512354411094839,2,0,1,3,0,1,1,-2
1512354411094839,-2,-2,-3,-4,-2,-1,-1,-3
1512354411103839,-1,1,-5,-1,-1,2,-1,-3
1512354411103839,-2,2,0,-1,2,-4,0,3
1512354411109839,0,0,1,1,-2,2,-2,-1
1512354411109839,2,0,3,2,-1,0,-2,-2
1512354411118839,-2,-2,-2,1,1,-3,2,1
1512354411118839,-2,1,-2,1,1,-2,-1,0
1512354411132839,-1,0,1,-1,-2,-2,-2,-2
1512354411132839,-1,-1,-1,-2,-1,-2,0,0
1512354411141839,-4,-4,-3,-4,-4,-3,-4,-5
1512354411141839,1,-1,-2,-1,1,-1,-2,-1
1512354411154839,1,0,1,-2,-1,-2,2,2
1512354411154839,-3,-3,0,-1,-3,-5,1,1
1512354411163839,0,-1,1,1,4,-8,1,0
1512354411163839,-1,-1,-1,0,-1,-19,0,0
1512354411178839,-2,1,-2,1,0,1,-1,-1
1512354411178839,2,-2,-1,-1,-2,11,0,1
1512354411180839,-3,0,1,-1,-2,15,-4,0
1512354411180839,3,-1,2,-1,-2,15,0,-2
1512354411192839,-1,-2,-1,-1,1,2,-2,-1
1512354411192839,2,-1,-4,-2,-2,-1,-1,-1
1512354411201839,1,1,-2,-1,-2,-15,1,-1
1512354411201839,1,-1,0,1,-1,5,-2,-1
1512354411214839,0,1,1,1,-1,5,-1,0
1512354411214839,-1,-2,0,0,4,3,2,0
1512354411223839,-2,-1,-3,-2,0,5,-6,-5
1512354411223839,-1,-1,-1,0,-3,-6,-1,-1
1512354411238839,-1,-1,-3,0,-2,-2,3,-2
1512354411238839,-4,1,0,2,1,-4,-2,0
1512354411240839,0,-4,0,0,-1,-3,3,0
1512354411240839,0,2,-1,-1,0,-1,-2,-5
1512354411252839,1,-2,-1,2,-1,1,-1,-1
1512354411252839,-3,-2,-1,-3,1,-3,0,1
1512354411261839,1,2,0,-1,0,-1,3,1
1512354411261839,1,-4,-1,-4,-2,2,0,-2
1512354411274839,-2,-2,-2,-3,-1,-2,-3,-1
1512354411274839,-3,-2,0,-4,-1,-1,-4,2
1512354411283839,0,1,0,1,2,-4,-4,-2
1512354411283839,-2,1,-1,-2,0,2,2,3
1512354411299839,-1,2,-1,0,0,-4,1,-3
1512354411299839,0,-3,-1,-1,-1,-1,0,0
1512354411300839,1,1,1,1,-1,-2,1,1
1512354411300839,0,-3,2,-2,-2,-1,-4,-3
1512354411312839,2,-2,0,-2,0,-7,0,-1
1512354411312839,0,0,-2,1,-1,0,-4,-2
1512354411321839,1,0,1,-2,0,3,2,2
1512354411321839,-4,-4,-4,2,-3,1,3,0
1512354411334839,-3,-2,-3,0,-1,-1,3,1
1512354411334839,2,-1,1,0,0,-4,0,-1
1512354411343839,0,0,0,-3,-4,0,-3,0
1512354411343839,-3,0,-1,2,2,5,0,1
1512354411358839,-2,-3,-1,-2,-1,-1,-4,-1
1512354411358839,-2,-1,0,0,-3,2,0,-2
1512354411360839,-1,-1,0,-1,1,0,0,-2
1512354411360839,-1,0,1,-1,1,0,2,0
1512354411372839,1,-1,2,-1,-1,-5,-5,0
1512354411372839,-1,0,-1,-1,0,2,-1,2
1512354411381839,0,0,-4,-2,0,1,0,0
1512354411381839,4,1,3,2,2,-1,-1,-2
1512354411394839,-3,-1,3,4,0,1,0,2
1512354411394839,-5,-2,-8,-7,-1,-2,0,-1
1512354411403839,-3,-2,-9,-6,-3,3,-4,-1
1512354411403839,-1,2,1,2,0,-5,0,1
1512354411418839,0,0,3,-1,1,-2,-1,-1
1512354411418839,1,1,1,4,0,-3,-2,-1
1512354411420839,-1,-3,0,3,1,11,3,2
1512354411420839,0,-1,-1,-3,-4,-5,-2,-3
1512354411432839,0,-2,1,-3,0,0,2,0
1512354411432839,1,-1,2,-1,-2,3,-1,-2
1512354411441839,-2,-3,1,1,1,-1,-2,-2
1512354411441839,0,0,0,0,0,0,2,0
1512354411454839,2,-1,-6,-2,1,3,3,-2
1512354411454839,-3,0,-4,-7,-2,-1,-2,-1
1512354411463839,-2,1,1,2,-3,-4,2,-1
1512354411463839,-4,2,-3,-7,-1,-2,-1,1
1512354411478839,1,0,-1,-1,-3,-1,1,1
1512354411478839,1,0,1,6,-1,0,2,-2
1512354411480839,-2,-3,-3,-4,-3,-3,0,0
1512354411480839,-3,-3,-4,-4,0,-2,-3,0
1512354411492839,0,5,3,0,-2,-1,-5,-1
1512354411492839,2,0,7,5,4,1,0,2
1512354411501839,-2,3,11,7,0,-6,-4,-2
1512354411501839,0,-5,3,4,4,0,2,0
1512354411514839,-2,-4,-10,-7,-1,3,-2,-2
1512354411514839,-4,-1,-4,-6,0,-4,-1,-3
1512354411523839,3,-1,-3,-1,-2,-4,-2,1
1512354411523839,1,-2,-2,-3,-2,-2,-1,1
1512354411538839,-1,2,4,8,3,10,3,1
1512354411538839,1,-3,2,0,-4,-4,-3,-3
1512354411540839,-1,-3,-8,-9,1,1,-3,-3
1512354411540839,-1,-2,-5,-5,-4,2,-4,-1
1512354411561839,4,-1,12,9,-1,-6,-1,-1
1512354411561839,2,-1,-1,0,-2,-1,1,0
1512354411562839,-2,-2,-10,-7,-3,2,-1,-2
1512354411562839,-1,-4,-8,-9,-3,-1,-1,-1
1512354411574839,0,3,7,3,1,1,-2,1
1512354411574839,-3,2,12,6,3,1,3,0
1512354411583839,-2,-2,1,4,-3,-1,-1,2
1512354411583839,3,-2,-7,-3,2,-2,4,-2
1512354411598839,-2,-3,-6,-8,-3,-2,-2,0
1512354411598839,-1,0,0,-1,-2,-3,0,-2
1512354411600839,3,1,0,5,-2,-2,-2,2
1512354411600839,-6,-1,11,6,1,3,0,-2
1512354411612839,1,0,2,0,1,-2,-1,-2
1512354411612839,-2,-7,-14,-5,-1,-1,-2,-1
1512354411621839,3,5,1,-5,-3,0,1,-3
1512354411621839,-2,-3,-3,3,-2,4,0,3
1512354411634839,-1,-3,-5,-5,-3,-2,-3,0
1512354411634839,-1,1,0,-3,-2,-5,-2,1
1512354411643839,-2,-2,2,3,4,2,0,1
1512354411643839,0,0,8,3,-1,0,-2,1
1512354411658839,-2,-1,4,3,-2,-4,-2,-1
1512354411658839,2,0,-2,0,3,3,-1,3
1512354411660839,-3,-5,2,-2,-4,-12,-3,0
1512354411660839,-2,4,0,-1,5,5,1,-1
1512354411672839,-3,-3,-8,-1,1,0,-1,-1
1512354411672839,-1,-3,-16,-6,-4,0,1,-1
1512354411681839,0,2,3,0,0,-5,-2,-3
1512354411681839,1,3,4,2,3,-1,3,-1
1512354411694839,-1,0,2,3,0,5,-3,0
1512354411694839,5,4,19,12,3,1,0,-1
1512354411703839,-2,-2,6,0,-1,2,-1,-3
1512354411703839,-3,-7,-31,-21,-7,-1,-1,-1
1512354411718839,-1,-3,-23,-11,-5,1,-1,0
1512354411718839,-1,4,6,4,-3,-4,0,-3
1512354411720839,-1,-1,8,6,3,6,0,1
1512354411720839,-1,-2,16,8,1,-4,-2,-1
1512354411732839,-3,-3,-2,0,1,-1,1,0
1512354411732839,-3,0,-5,1,-3,1,4,0
1512354411741839,-2,4,-8,-10,-2,-1,-1,-4
1512354411741839,1,-1,-8,-2,-3,-1,-1,-3
1512354411754839,2,1,-2,-4,2,-5,3,0
1512354411754839,-2,0,13,4,1,1,3,0
1512354411763839,-1,-1,14,7,4,1,1,-2
1512354411763839,-2,0,1,1,-2,-3,2,-1
1512354411778839,-1,1,-11,-5,-1,-4,1,0
1512354411778839,0,0,10,2,0,2,-2,1
1512354411780839,1,-5,-23,-12,-5,0,-4,0
1512354411780839,-1,1,-7,-4,-1,1,-8,-1
1512354411792839,1,2,9,2,0,4,-4,-1
1512354411792839,-1,-5,0,-3,0,0,-4,1
1512354411801839,-3,2,5,1,-1,-2,1,-2
1512354411801839,5,-1,2,8,4,0,0,1
1512354411814839,-6,-5,-6,-5,-4,-9,-5,-4
1512354411814839,3,1,-7,1,1,1,-2,-1
1512354411823839,0,0,3,3,1,-8,-1,-1
1512354411823839,1,3,7,0,-2,-2,2,-3
1512354411837839,-1,1,10,3,0,-4,-6,-1
1512354411837839,0,-2,-7,-6,-4,2,-4,-3
1512354411844839,2,-6,-7,-2,0,8,10,-1
1512354411844839,0,-3,1,5,1,2,1,0
1512354411852839,2,-2,7,2,0,5,5,-1
1512354411852839,-4,-4,-8,-2,0,1,-1,-2
1512354411861839,-2,-3,-9,-5,-4,-2,-5,2
1512354411861839,-1,0,-9,-11,-4,-5,-2,-2
1512354411874839,1,-4,2,-2,-1,-2,-1,-1
1512354411874839,2,2,0,-3,0,1,5,2
1512354411883839,2,0,6,8,5,0,11,1
1512354411883839,1,1,9,4,-1,-4,-2,-2
1512354411898839,-2,0,-5,-1,-2,3,-5,0
1512354411898839,-3,3,2,-1,-1,-6,-7,-2
1512354411900839,-4,-3,18,9,1,-3,-5,-1
1512354411900839,-3,-5,-17,-6,0,3,-13,2
1512354411912839,-2,-7,-35,-20,-8,-8,-11,-2
1512354411912839,4,-1,-17,-12,-1,-5,-3,-1
1512354411921839,3,5,10,3,-1,0,-4,1
1512354411921839,3,7,30,12,3,-2,2,3
1512354411934839,-2,4,14,11,2,5,5,-1
1512354411934839,-2,-6,-11,-5,-4,0,-1,-1
1512354411943839,-2,-2,-8,-6,0,1,2,-2
1512354411943839,1,4,3,4,3,-1,3,1
1512354411957839,0,1,15,10,1,5,5,-1
1512354411957839,-4,-5,-12,-10,-4,2,-1,-3
1512354411964839,0,1,-13,-5,0,-1,-2,-1
1512354411964839,-2,-4,0,-4,-8,2,0,-2
1512354411972839,-1,-1,8,5,4,2,4,0
1512354411972839,-2,3,17,8,3,-1,1,-2
1512354411981839,-2,-7,-18,-10,-1,4,1,-2
1512354411981839,-3,-6,-29,-21,-5,0,-1,-3
1512354411994839,0,2,6,0,-4,-8,-1,2
1512354411994839,-1,2,13,9,3,-4,-2,1
1512354412003839,0,3,20,13,3,6,-2,2
1512354412003839,1,-3,-1,-1,1,-5,-3,-1
1512354412017839,-3,-4,-24,-11,-3,2,-1,0
1512354412017839,-2,-1,-14,-5,0,-2,0,-2
1512354412024839,-1,1,5,1,-2,-5,-2,1
1512354412024839,1,0,11,9,-1,-2,2,1
1512354412032839,1,3,8,1,1,2,2,-1
1512354412032839,-1,-2,0,0,-3,-3,-4,0
1512354412041839,-2,-2,-12,-4,2,3,1,-2
1512354412041839,-2,1,-1,0,-1,-3,4,-1
1512354412054839,4,2,5,2,1,-1,-1,1
1512354412054839,0,2,10,7,-1,-4,3,2
1512354412063839,-4,-4,1,0,4,0,-2,-2
1512354412063839,0,-5,-17,-8,-1,1,-1,0
1512354412077839,-1,-6,-19,-15,-3,-1,2,-2
1512354412077839,0,1,2,-1,-2,3,2,0
1512354412084839,2,3,10,8,-1,-2,-4,-1
1512354412084839,3,3,17,9,1,1,-1,1
1512354412100839,-1,-3,5,2,-1,0,2,-1
1512354412100839,-1,0,-4,-6,-2,2,-2,-2
1512354412102839,-1,1,-14,-7,-2,-2,2,-1
1512354412102839,-4,-2,-1,-2,-5,-7,0,-2
1512354412114839,3,5,5,-2,2,9,3,-1
1512354412114839,-1,-1,-3,1,-1,2,3,0
1512354412123839,-1,-4,-3,-6,-2,-3,-4,-2
1512354412123839,0,3,4,2,4,-2,-2,-2
1512354412137839,-2,0,0,6,0,-2,0,-2
1512354412137839,0,-3,5,0,2,0,-1,-1
1512354412144839,1,-3,-12,-6,-4,-2,-2,-2
1512354412144839,-4,2,5,1,-1,3,-4,-3
1512354412160839,-3,-6,0,-3,0,2,-1,1
1512354412160839,1,-1,-9,-7,0,-1,-1,-2
1512354412162839,-1,0,-14,-7,-4,0,0,2
1512354412162839,1,2,4,-1,0,-4,-5,-3
1512354412174839,2,1,1,3,1,-4,2,-1
1512354412174839,-2,0,1,2,-2,-1,-2,0
1512354412183839,0,-2,-1,-2,-7,-1,1,0
1512354412183839,-2,-1,-6,-1,-2,1,3,1
1512354412197839,2,2,7,7,1,-2,-2,2
1512354412197839,-1,-5,-2,0,1,1,0,-3
1512354412204839,-2,2,-1,-8,-2,3,-2,1
1512354412204839,0,-3,-2,3,-2,1,5,0
1512354412220839,-2,3,1,0,-4,-4,0,-2
1512354412220839,2,-1,-5,-3,1,3,2,2
1512354412222839,2,4,14,12,2,3,-2,-4
1512354412222839,-2,-2,0,1,-2,-2,3,0
1512354412234839,-1,-3,-6,-9,-3,2,0,-1
1512354412234839,-4,2,-2,-1,-3,0,-1,-1
1512354412243839,-2,-1,-1,-5,-1,-4,0,1
1512354412243839,1,-3,-16,-5,-3,2,-1,3
1512354412257839,2,2,11,8,4,-1,-1,0
1512354412257839,2,3,8,-3,-1,-3,0,-3
1512354412264839,-2,-2,-9,-7,0,0,1,1
1512354412264839,-7,1,-8,-5,1,5,-1,-2
1512354412280839,-1,-1,-5,-5,1,-3,-1,-1
1512354412280839,0,-1,5,2,1,4,-1,2
1512354412282839,0,-1,12,10,1,-1,-3,1
1512354412282839,1,0,5,1,1,5,-1,0
1512354412294839,-1,-3,-7,-7,-6,-3,-1,1
1512354412294839,0,-3,-8,-1,-2,2,-1,-4
1512354412303839,1,-3,-5,-3,-3,0,1,-4
1512354412303839,0,0,3,-1,3,-2,-4,3
1512354412317839,-1,2,2,4,-2,-5,-3,-4
1512354412317839,-1,-5,-2,-2,-1,-1,0,-1
1512354412324839,0,0,0,2,-3,-3,-1,-3
1512354412324839,1,-2,-4,-5,0,-5,0,2
1512354412340839,1,-3,-2,-5,-1,0,0,-1
1512354412340839,1,0,-4,-1,8,-1,-2,-2
1512354412342839,-1,-2,-4,-1,-2,-1,-2,2
1512354412342839,1,-2,7,6,0,2,-3,-2
1512354412354839,-2,0,0,-1,-1,-1,-2,2
1512354412354839,-2,2,0,-1,-5,-2,0,-4
1512354412363839,-2,-3,3,2,-3,0,-4,1
1512354412363839,1,-1,-2,-1,5,-3,1,-2
1512354412377839,2,6,-3,-1,1,4,2,1
1512354412377839,3,0,-4,-2,-4,-6,-4,0
1512354412392839,-2,4,3,4,6,3,2,0
1512354412392839,-4,1,1,1,-5,0,-3,-3
1512354412400839,-3,-12,-6,-6,-4,-2,0,2
1512354412400839,1,10,4,0,-1,2,2,2
1512354412402839,1,-3,0,-4,0,-2,-1,-3
1512354412402839,0,0,-3,-2,-2,2,2,1
1512354412414839,-2,1,3,2,0,4,1,-2
1512354412414839,-1,-2,-1,2,-3,-2,-3,-2
1512354412423839,0,-1,1,0,3,-4,2,1
1512354412423839,2,4,7,3,0,-3,0,-2
1512354412437839,0,-6,-7,0,0,-2,-3,1
1512354412437839,-3,-4,-3,1,-2,-1,2,0
1512354412444839,-1,5,0,2,2,0,-4,0
1512354412444839,-1,-4,0,0,-3,0,-3,-3
1512354412460839,-2,2,3,-3,0,0,1,-3
1512354412460839,-2,-2,-11,-7,0,0,0,1
1512354412462839,3,3,0,1,-2,-5,-1,2
1512354412462839,1,-1,0,-2,-1,12,2,-1
1512354412474839,-2,-4,-3,-1,2,-4,-3,-3
1512354412474839,-2,-3,-4,-3,-1,1,-1,-1
1512354412484839,1,-2,3,0,0,-1,0,1
1512354412484839,1,1,1,-2,-5,0,1,-1
1512354412497839,0,5,2,3,0,-1,-1,-1
1512354412497839,-2,-3,1,2,3,-3,-2,1
1512354412504839,-4,-6,-12,-5,-2,-2,1,-2
1512354412504839,2,3,-4,-5,1,-7,-4,0
1512354412520839,-2,1,5,-2,-7,1,-1,-2
1512354412520839,0,0,2,1,-3,1,1,-1
1512354412522839,2,4,-1,-1,0,0,0,-2
1512354412522839,-3,-5,-1,0,0,-1,-2,0
1512354412534839,0,-5,-3,-3,0,0,0,-2
1512354412534839,-1,2,6,0,-1,-3,-4,0
1512354412543839,2,-2,-5,-1,1,3,-1,0
1512354412543839,0,0,-2,1,0,1,0,0
1512354412557839,-2,0,-5,-3,2,3,-2,0
1512354412557839,0,1,-6,-4,-3,-2,1,1
1512354412564839,0,-9,-5,-5,-5,2,1,-3
1512354412564839,0,0,5,2,-3,0,2,0
1512354412580839,0,-1,4,5,-1,0,0,1
1512354412580839,2,0,6,7,3,4,0,-1
1512354412582839,-3,0,-3,-4,-1,5,0,1
1512354412582839,1,-2,-7,-6,-2,1,3,-1
1512354412594839,-1,2,-2,0,-2,4,-1,-1
1512354412594839,-1,-1,3,1,0,1,3,0
1512354412603839,-3,2,3,-2,-1,1,0,-3
1512354412603839,-3,-3,-5,0,2,0,-1,0
1512354412617839,2,2,2,0,-2,1,-1,-1
1512354412617839,-2,1,3,0,-1,-3,-2,0
1512354412624839,3,0,2,4,4,1,-3,0
1512354412624839,-3,-6,-2,-5,-5,-4,-3,1
1512354412640839,2,1,-2,0,-1,-2,2,-1
1512354412640839,-2,0,0,1,0,2,-3,-3
1512354412642839,1,2,10,6,-2,1,2,-1
1512354412642839,-1,-1,1,0,-1,-3,-2,-1
1512354412654839,0,-4,-17,-9,-2,-1,0,-1
1512354412654839,-1,-5,-8,-4,-5,-3,1,1
1512354412663839,-2,3,5,0,-2,0,2,1
1512354412663839,-2,0,3,2,-1,2,3,-2
1512354412677839,-3,2,12,8,1,-1,-2,1
1512354412677839,0,-4,-6,-3,1,0,-2,0
1512354412684839,-3,-1,-13,-4,-2,-3,-2,1
1512354412684839,1,0,-1,-1,4,-2,0,-1
1512354412700839,1,-1,4,3,1,-1,-1,-1
1512354412700839,1,-2,7,1,2,2,0,2
1512354412702839,-1,-1,4,-1,-4,2,-3,0
1512354412702839,3,-2,-9,-7,0,-4,-6,-1
1512354412714839,-1,-3,-9,-8,1,3,3,0
1512354412714839,1,2,-1,3,-2,-2,-4,-4
1512354412723839,-1,2,7,3,1,-3,2,0
1512354412723839,-2,1,11,3,-2,1,1,1
1512354412737839,-2,-4,-7,-4,1,-1,-4,1
1512354412737839,-1,-2,-12,-8,-3,-2,0,0
1512354412744839,0,2,-2,-1,-1,-1,1,-2
1512354412744839,0,3,-4,2,1,-2,0,-3
1512354412760839,-1,-5,6,0,1,1,-2,2
1512354412760839,0,-1,6,1,1,-1,2,-2
1512354412762839,0,-3,-7,-5,-1,-2,-1,2
1512354412762839,-2,0,4,0,-2,4,0,-1
1512354412774839,-2,2,-5,2,-1,-2,-1,0
1512354412774839,-1,-1,-9,-4,-1,0,0,0
1512354412783839,1,0,5,2,-1,-3,-2,-1
1512354412783839,2,0,-6,-4,-2,1,0,0
1512354412797839,-3,-1,8,3,0,-4,2,-2
1512354412797839,-2,0,-7,-6,-4,1,0,0
1512354412804839,0,1,2,1,-5,-1,-2,0
1512354412804839,1,-1,1,0,2,0,-2,1
1512354412820839,-2,4,6,0,1,-3,-2,-2
1512354412820839,-3,0,1,1,-2,-1,-2,-1
1512354412822839,-2,-7,-6,1,2,0,0,-1
1512354412822839,0,-3,-6,-4,2,-2,0,2
1512354412834839,-1,1,0,-3,-1,-2,0,0
1512354412834839,-2,1,9,4,1,-2,-1,0
1512354412843839,-1,-2,-6,-3,3,-2,0,0
1512354412843839,0,0,0,2,-4,-3,4,-3
1512354412857839,-3,-4,-9,-6,-4,0,-3,-2
1512354412857839,2,2,4,0,0,-1,-3,0
1512354412864839,-1,-4,2,1,1,-4,3,0
1512354412864839,-2,4,4,1,1,-3,-1,0
1512354412880839,2,-3,-3,-2,2,1,-5,0
1512354412880839,2,1,5,3,2,0,2,-3
1512354412887839,-1,-1,2,1,-1,1,1,-1
1512354412887839,-1,0,-3,1,-1,-2,-3,1
1512354412894839,2,1,-2,1,-3,0,1,0
1512354412894839,-1,-1,-5,-4,0,0,1,2
1512354412903839,1,1,-6,1,2,-2,-1,-2
1512354412903839,-1,0,9,0,1,4,0,-3
1512354412917839,-2,2,9,4,0,-1,1,-2
1512354412917839,-3,-4,-8,-4,0,2,0,0
1512354412924839,-3,0,-6,-5,-3,2,-3,-3
1512354412924839,-1,-4,-12,-6,-1,-2,-1,-1
1512354412940839,-3,0,9,2,-2,6,1,0
1512354412940839,-2,-3,8,2,-1,-3,0,-1
1512354412947839,0,2,-3,-1,-1,-1,-2,-2
1512354412947839,2,-3,2,4,0,2,-3,-2
1512354412954839,-1,-1,-3,-2,-3,1,0,-3
1512354412954839,-2,0,-6,1,3,-3,-1,-1
1512354412963839,-1,-2,-2,-3,-5,-1,1,-1
1512354412963839,-5,-1,-3,-4,-1,-2,1,0
1512354412977839,1,-1,-6,-1,0,2,3,3
1512354412977839,-1,-1,3,2,-2,-3,-1,-3
1512354412984839,2,2,4,-1,1,4,0,-2
1512354412984839,-1,-3,2,1,-1,-1,-2,-1
1512354413000839,0,-2,-3,-2,-2,-5,-4,-3
1512354413000839,1,1,-2,-3,-1,0,0,0
1512354413007839,-3,-3,0,-1,1,-1,-1,-2
1512354413007839,-1,0,5,3,-1,-2,1,1
1512354413023839,1,0,-6,0,3,2,-2,1
1512354413023839,0,-1,-3,-1,-2,1,-2,-2
1512354413025839,-2,2,3,1,-2,-5,-2,-1
1512354413025839,2,0,4,1,-3,0,0,0
1512354413037839,-4,-2,-6,-6,1,-2,0,-1
1512354413037839,-1,-2,-3,-1,-2,-2,1,1
1512354413044839,-1,-2,-1,-4,-2,-1,-2,0
1512354413044839,-2,3,0,0,1,3,1,0
1512354413060839,6,-2,2,1,0,-2,0,0
1512354413060839,-1,1,2,-3,-3,4,0,1
1512354413067839,2,-6,-3,2,6,-3,1,-1
1512354413067839,-2,-2,-5,-9,-4,0,-3,-2
1512354413083839,0,-1,0,0,-2,-1,-1,-3
1512354413083839,-2,2,1,0,-1,1,-1,-3
1512354413085839,2,1,2,1,-3,-2,1,0
1512354413085839,-2,-2,1,1,2,-2,-2,0
1512354413097839,-6,0,-3,-1,2,-1,-2,-1
1512354413097839,-1,-1,-4,1,-6,-5,0,-1
1512354413104839,-1,-3,4,-1,-2,5,0,0
1512354413104839,-1,-1,-4,4,-2,-4,-1,0
1512354413120839,-1,2,-2,-6,-3,-1,-2,-2
1512354413120839,-3,-3,-4,-3,1,0,-1,-2
1512354413127839,-2,0,-3,-1,2,-2,-1,0
1512354413127839,-1,-1,3,3,-4,1,2,0
1512354413143839,3,5,5,2,-1,1,1,2
1512354413143839,0,-1,2,0,1,-1,-5,1
1512354413145839,-4,-1,-2,2,-3,-1,2,1
1512354413145839,-3,1,-12,-6,-1,-3,1,0
1512354413157839,4,3,-3,0,1,2,-1,-2
1512354413157839,0,-2,9,-2,2,0,2,-2
1512354413164839,0,0,-5,-5,0,1,-4,-2
1512354413164839,0,-2,-3,0,1,1,0,-4
1512354413180839,-2,-3,2,1,-2,-1,1,2
1512354413180839,0,0,1,2,3,1,-2,0
1512354413187839,-2,-1,1,3,-4,-2,1,1
1512354413187839,0,1,-3,-5,-1,1,0,-1
1512354413203839,0,-3,-6,-1,-3,-5,1,-3
1512354413203839,-2,1,1,2,-1,4,-1,0
1512354413205839,-2,-4,0,-1,0,-5,-1,-1
1512354413205839,0,-3,-1,1,0,-1,-2,-1
1512354413225839,-1,-2,-3,-4,-2,1,-2,-1
1512354413225839,2,4,-3,-3,-3,-4,0,-1
1512354413227839,2,2,2,0,1,3,-1,2
1512354413227839,1,-2,3,1,3,3,1,2
1512354413240839,-2,-3,4,2,-1,0,-3,-2
1512354413240839,0,-3,-1,-1,-1,-4,3,0
1512354413247839,3,2,-2,-3,1,-2,-1,-1
1512354413247839,2,1,-1,-3,0,4,0,-2
1512354413263839,0,0,-3,-4,-1,-2,1,-2
1512354413263839,-1,0,-1,1,-1,-2,1,-1
1512354413265839,-2,3,9,2,-2,-2,0,-2
1512354413265839,0,0,-1,3,2,1,-3,1
1512354413277839,2,-2,-3,-5,0,0,-1,2
1512354413277839,-2,-2,-6,-3,-1,2,-4,-1
1512354413284839,1,0,-4,-2,1,1,0,-4
1512354413284839,-1,3,17,5,1,-3,0,1
1512354413300839,1,0,0,4,1,-3,0,-2
1512354413300839,0,-3,-3,-3,0,2,0,2
1512354413307839,-3,-6,-14,-8,-3,-1,0,-2
1512354413307839,-3,-1,-2,-2,-1,0,-3,-4
1512354413323839,-4,1,8,5,0,0,-1,0
1512354413323839,1,-1,1,2,-1,-1,2,0
1512354413325839,2,-2,-3,-1,0,1,-1,2
1512354413325839,-2,2,-5,-5,-3,-2,1,1
1512354413337839,-3,-1,-2,-2,4,3,-1,1
1512354413337839,-1,0,0,-4,-2,0,0,-4
1512354413344839,-1,0,3,1,2,1,0,1
1512354413344839,1,-1,-3,1,-3,-1,1,-3
1512354413360839,0,-3,-2,1,-1,-1,-2,-2
1512354413360839,-2,0,-5,-3,4,2,2,0
1512354413367839,1,2,4,-1,-3,2,-3,1
1512354413367839,-3,-2,-4,-6,1,3,-2,-1
1512354413383839,-2,2,6,4,1,-1,-2,-4
1512354413383839,-1,-3,2,1,-2,3,-2,-1
1512354413385839,2,0,-1,0,-2,-2,-3,0
1512354413385839,2,0,3,4,-1,-1,2,-1
1512354413397839,0,-1,-1,-1,-2,0,2,-1
1512354413397839,-1,-5,-6,-6,-2,-7,-5,0
1512354413404839,0,3,0,-5,0,-1,2,-1
1512354413404839,0,0,0,1,-1,-2,-2,0
1512354413420839,-1,-2,-2,-4,0,2,4,1
1512354413420839,1,0,5,6,1,-1,-2,0
1512354413427839,0,1,-4,0,-1,0,0,-1
1512354413427839,-3,0,2,-1,1,-3,1,1
1512354413443839,-2,-1,-4,2,3,2,1,2
1512354413443839,0,1,1,0,-2,0,-2,-1
1512354413445839,-1,-2,-1,1,4,1,1,-1
1512354413445839,2,0,2,-3,-4,-3,-2,-3
1512354413457839,0,-1,0,0,-2,-4,-1,1
1512354413457839,-1,0,-2,-3,-1,2,1,-1
1512354413464839,1,1,0,-2,-2,-5,2,-1
1512354413464839,-2,-4,-1,-1,-3,-2,-1,-2
1512354413480839,1,2,3,-3,-2,-5,-1,-3
1512354413480839,1,-5,-2,1,0,1,-1,1
1512354413487839,-2,0,-2,1,-3,1,-4,-1
1512354413487839,-2,1,-4,-4,-3,4,0,0
1512354413503839,1,0,-4,1,2,0,3,-2
1512354413503839,-2,3,0,1,1,0,3,-2
1512354413505839,-2,0,1,3,2,-2,-1,-1
1512354413505839,1,-2,6,2,-3,1,-3,1
1512354413517839,1,-2,-7,-2,-1,1,2,0
1512354413517839,0,1,1,-3,-2,0,-2,-2
1512354413526839,-4,-3,0,-1,1,0,2,0
1512354413526839,0,0,-2,0,-1,-2,1,0
1512354413540839,-4,1,-1,-3,-1,3,-1,1
1512354413540839,0,-2,0,3,-3,-2,0,1
1512354413547839,0,0,3,2,3,3,-1,-2
1512354413547839,-1,-3,-4,-1,2,-2,-1,1
1512354413563839,-2,-1,2,-5,-1,2,-1,-2
1512354413563839,0,-2,-5,0,-2,-3,1,0
1512354413565839,3,0,7,1,-1,-1,-2,3
1512354413565839,-1,1,-2,-2,-4,-1,-1,-2
1512354413577839,-2,-3,-6,0,0,2,0,-1
1512354413577839,0,2,9,-2,-1,0,-1,0
1512354413586839,0,-4,-9,-3,-2,0,-3,1
1512354413586839,-2,-2,-3,-2,4,1,1,-2
1512354413600839,2,3,1,-1,-2,-1,-1,1
1512354413600839,2,-1,2,2,2,0,4,1
1512354413607839,-3,1,2,-2,-1,2,2,-3
1512354413607839,-2,0,-9,-5,-2,1,-2,0
1512354413623839,0,0,3,5,-1,-3,-1,-2
1512354413623839,-2,1,5,2,2,1,1,0
1512354413625839,0,-1,-1,2,-5,-4,0,0
1512354413625839,-2,-3,-1,-2,2,1,2,-1
1512354413637839,-1,-3,0,-3,-3,0,0,1
1512354413637839,-2,0,-9,-5,-2,0,-2,-1
1512354413646839,-4,-1,-1,-5,2,1,0,-3
1512354413646839,1,-2,1,3,0,-3,-2,-3
1512354413660839,2,-2,6,4,1,-1,-1,2
1512354413660839,-1,3,3,0,0,1,-1,-1
1512354413667839,0,0,-6,0,-3,3,0,1
1512354413667839,-2,0,0,-2,1,-3,1,-2
1512354413683839,-2,-2,2,-1,-4,0,-3,0
1512354413683839,2,-2,-4,-3,3,0,3,1
1512354413685839,-2,-1,-5,-1,0,-1,-2,-4
1512354413685839,3,-1,2,-1,-1,-1,1,1
1512354413697839,-2,-2,-5,-1,-2,-2,2,-1
1512354413697839,-1,0,3,1,-2,-1,-3,-1
1512354413706839,-1,-3,-3,-3,-2,-2,1,-1
1512354413706839,0,-1,-3,1,2,3,1,0
1512354413720839,-3,-1,1,-1,2,4,1,1
1512354413720839,-3,-3,-5,-1,-3,-3,0,-3
1512354413727839,1,0,6,3,-5,-3,-2,1
1512354413727839,-2,0,-4,-3,-1,0,-1,-2
1512354413743839,1,2,-4,-5,-3,0,-2,0
1512354413743839,2,-1,-2,-3,-2,-1,-1,-1
1512354413745839,0,-2,-7,-5,-1,-3,-1,0
1512354413745839,-2,-1,2,4,-1,4,0,1
1512354413757839,-1,1,9,0,-1,2,-2,0
1512354413757839,-2,0,-5,4,1,-2,-1,-1
1512354413766839,2,0,-1,0,-2,-1,-3,-1
1512354413766839,-2,-2,-2,0,1,1,-2,-2
1512354413780839,0,0,-2,1,1,-1,1,-3
1512354413780839,0,0,4,2,-4,1,0,1
1512354413794839,-1,-1,-2,-6,0,-1,-4,-1
1512354413794839,-1,1,1,0,0,-2,0,-1
1512354413802839,0,-5,-6,-1,-3,-1,-3,-3
1512354413802839,-2,-1,-1,-5,2,-1,0,-1
1512354413817839,-1,1,-3,0,0,-1,3,1
1512354413817839,-1,1,1,-1,-1,-3,-2,1
1512354413818839,-1,1,-1,1,-3,0,-1,-1
1512354413818839,1,-2,3,4,0,2,-1,0
1512354413826839,-1,0,0,2,0,1,-1,-3
1512354413826839,-2,-1,9,-3,0,-4,1,-2
1512354413840839,1,-2,-4,-2,-1,-2,1,1
1512354413840839,-3,-1,-13,-6,-1,-3,1,0
1512354413847839,-1,0,-1,-1,1,2,0,0
1512354413847839,4,0,-1,1,-2,-1,-1,0
1512354413862839,0,-1,-1,-1,2,2,1,-3
1512354413862839,0,2,3,0,0,1,1,-1
1512354413869839,1,-2,6,3,-2,1,-2,-1
1512354413869839,2,-2,-3,4,0,-2,0,1
1512354413877839,-1,-2,-8,-5,-2,-2,-1,-1
1512354413877839,3,-1,-3,-2,-3,-3,-3,-1
1512354413886839,-2,-3,5,-1,2,0,0,1
1512354413886839,-1,2,-1,-3,-2,1,1,-1
1512354413900839,0,0,-3,-1,2,-1,1,0
1512354413900839,-2,2,-2,-2,-3,0,1,-2
1512354413907839,-1,-1,0,-1,-1,1,2,2
1512354413907839,-1,-1,-3,0,-3,4,-4,0
1512354413922839,-3,1,4,-1,2,0,1,0
1512354413922839,-1,-2,1,-3,-1,0,-1,-1
1512354413929839,-1,1,5,2,2,-2,2,-2
1512354413929839,-3,-1,-5,0,0,2,-2,1
1512354413937839,-4,1,-1,-2,-4,-4,-1,-2
1512354413937839,1,1,-5,-5,1,1,-2,1
1512354413946839,-4,-3,-7,-7,-4,3,-3,-2
1512354413946839,0,-1,0,3,3,2,2,-2
1512354413960839,1,2,6,-1,0,2,0,0
1512354413960839,2,0,3,-3,-3,-2,0,-2
1512354413967839,0,-2,-1,-1,-2,-1,-1,-2
1512354413967839,2,1,1,3,2,2,-1,4
1512354413982839,2,-3,-2,-1,0,-2,1,2
1512354413982839,-3,-1,2,5,1,1,1,-2
1512354413989839,0,0,-3,-2,-1,2,0,-3
1512354413989839,-2,-4,-8,-8,-3,-3,-2,-4
1512354414005839,2,0,-4,0,0,-4,-2,-3
1512354414005839,0,-1,1,-1,1,-1,1,4
1512354414007839,-2,1,-2,-4,-3,-4,1,0
1512354414007839,1,0,4,0,1,0,1,2
1512354414020839,-1,-3,0,5,-2,-1,1,-2
1512354414020839,-2,1,1,0,0,3,-2,-1
1512354414027839,-1,-4,-10,-5,0,2,-1,-1
1512354414027839,-2,-3,-12,-3,-3,-1,-2,0
1512354414042839,-1,3,3,1,-1,0,-3,0
1512354414042839,-2,-1,5,6,0,-3,-1,-3
1512354414049839,1,-3,4,3,-3,-4,-2,-1
1512354414049839,1,0,-6,-10,-5,-3,-1,-3
1512354414067839,-3,2,3,1,2,3,-2,0
1512354414067839,-1,-1,4,3,3,1,0,0
1512354414072839,0,3,4,2,-1,1,0,1
1512354414072839,-4,-4,-9,-4,1,1,0,-1
1512354414080839,0,0,-6,-3,0,-4,-3,0
1512354414080839,-3,2,-1,-5,-2,0,-1,3
1512354414087839,0,2,1,5,-1,-1,1,1
1512354414087839,0,2,0,3,0,0,1,-3
1512354414102839,2,-2,0,-1,-2,-2,-1,2
1512354414102839,-1,-2,0,1,4,4,-1,-2
1512354414109839,1,0,-1,-2,-1,-3,1,0
1512354414109839,-1,-2,8,1,-2,-1,-2,0
1512354414125839,0,0,-11,-6,-3,4,1,-4
1512354414125839,0,-3,-1,2,-1,-1,1,-2
1512354414127839,2,-1,-2,-4,6,1,0,6
1512354414127839,2,4,0,0,1,1,-4,-1
1512354414140839,1,-1,6,0,2,0,1,-2
1512354414140839,1,-1,-6,-6,-3,-2,0,-1
1512354414147839,-1,1,4,4,0,4,3,-1
1512354414147839,-3,1,-5,2,0,0,4,-1
1512354414162839,0,-4,-3,-1,0,-1,-1,0
1512354414162839,-4,-2,-12,-8,-3,-3,0,0
1512354414169839,-1,-2,-3,3,1,-4,-3,-3
1512354414169839,-2,-1,6,-6,-4,1,-1,1
1512354414185839,0,-1,5,4,1,1,-1,-2
1512354414185839,1,-1,2,3,2,4,2,0
1512354414187839,2,1,3,2,-1,1,-4,1
1512354414187839,-1,0,4,-1,-1,-1,0,0
1512354414200839,1,-1,-5,-2,-2,1,0,0
1512354414200839,0,-3,-5,-10,-5,0,0,0
1512354414207839,-2,-3,-14,-4,-2,-1,1,-4
1512354414207839,-1,0,8,1,-2,-6,1,0
1512354414222839,-3,1,6,0,-2,0,0,-1
1512354414222839,-2,0,-1,1,3,-3,-1,-2
1512354414229839,2,1,2,3,1,1,-1,-2
1512354414229839,0,-1,3,-1,-2,-3,1,-1
1512354414245839,-3,-5,-11,-9,0,0,-1,0
1512354414245839,-2,1,1,1,-3,-6,-1,-1
1512354414247839,0,2,2,-2,1,-1,1,0
1512354414247839,-1,-3,-8,1,0,-2,-1,-2
1512354414260839,1,4,9,4,3,5,1,0
1512354414260839,-3,-1,0,-2,0,3,-4,-3
1512354414267839,-1,-4,-13,-4,-2,-2,-2,-1
1512354414267839,0,-2,0,-1,0,2,-2,-1
1512354414282839,-1,0,-2,-2,1,-2,-1,-2
1512354414282839,1,2,8,3,-3,0,-2,0
1512354414289839,-1,1,9,2,0,-1,0,0
1512354414289839,-2,-2,-6,-3,-2,-2,-2,-2
1512354414305839,-2,-2,-11,-5,-2,-1,0,-1
1512354414305839,2,-2,-5,-3,1,-3,-1,0
1512354414307839,-5,0,6,4,-1,1,1,-3
1512354414307839,0,0,3,2,0,1,1,1
1512354414320839,-1,0,4,2,-1,-1,-3,2
1512354414320839,-1,2,-9,-4,-3,-1,1,0
1512354414334839,-1,-2,-4,-7,-1,0,-1,-2
1512354414334839,1,-1,-5,-2,1,1,-4,0
1512354414342839,-2,2,11,2,-2,0,-2,1
1512354414342839,0,-4,-1,4,2,-3,1,-1
1512354414349839,1,3,1,-3,-1,1,0,0
1512354414349839,-2,-1,2,1,-1,-2,0,-1
1512354414366839,1,-2,-1,-1,0,-1,2,0
1512354414366839,-1,2,3,2,-1,0,-2,-1
1512354414372839,-1,0,-2,-1,-3,1,-2,1
1512354414372839,-2,-1,-7,-5,0,-1,0,-4
1512354414380839,-1,-4,-4,2,-1,1,3,-2
1512354414380839,2,2,5,-3,-2,0,2,2
1512354414387839,-2,-3,-6,-4,-3,-2,-1,-3
1512354414387839,0,0,11,1,1,0,0,0
1512354414402839,-1,-5,-22,-5,-3,-2,-1,-2
1512354414402839,1,-1,-1,-3,2,2,3,1
1512354414409839,3,-3,1,0,1,1,-3,-2
1512354414409839,-1,2,6,3,-2,-2,-1,-1
1512354414425839,-2,4,9,2,-2,2,2,-3
1512354414425839,-1,-2,-4,4,1,2,-1,-2
1512354414427839,1,2,-3,-5,-4,-3,2,-2
1512354414427839,-1,-3,-8,-1,1,1,-1,-2
1512354414440839,4,-1,4,-2,0,-2,-3,2
1512354414440839,1,-4,-6,-3,-1,-2,-1,2
1512354414447839,-2,1,4,5,0,3,0,0
1512354414447839,-1,2,5,1,-2,0,-1,-3
1512354414462839,1,-1,-1,-5,-1,-3,-1,0
1512354414462839,1,-3,-6,-3,-3,0,-1,1
1512354414469839,-1,1,-7,-2,0,0,0,-1
1512354414469839,-1,-2,-3,-1,0,-2,2,2
1512354414485839,-1,0,3,1,-1,0,-1,-2
1512354414485839,-3,-3,8,0,-1,3,-1,-2
1512354414487839,-1,-2,-5,-2,0,-2,0,-2
1512354414487839,-1,0,-5,-1,-2,0,2,0
1512354414499839,-2,0,7,5,3,1,-2,0
1512354414499839,2,2,1,4,-1,-1,1,-1
1512354414508839,-3,-5,-3,-5,3,1,-2,0
1512354414508839,0,-1,-6,-6,-3,-3,-1,-1
1512354414522839,-2,-2,-5,-2,0,-1,-1,-2
1512354414522839,-2,2,1,-2,-4,0,-3,-1
1512354414529839,2,0,-2,1,-3,-5,-1,-1
1512354414529839,1,0,10,5,-3,0,1,-1
1512354414545839,0,-1,1,-2,-1,3,-1,1
1512354414545839,-3,-2,-8,-1,-1,1,0,0
1512354414547839,-2,-1,-2,-1,-3,-1,-2,0
1512354414547839,1,0,-4,-2,-2,-3,-3,0
1512354414559839,-2,2,8,2,0,-2,2,2
1512354414559839,-3,-2,-1,-1,-3,-4,-1,-2
1512354414568839,-1,-1,-4,-1,0,-2,1,2
1512354414568839,1,1,11,2,0,6,0,0
1512354414582839,0,-2,-7,-3,-3,2,2,-2
1512354414582839,1,-2,-8,-4,1,-3,0,-1
1512354414589839,1,-2,-2,0,-1,1,0,1
1512354414589839,-2,2,-3,-5,0,0,4,0
1512354414613839,1,1,-1,2,0,0,0,0
1512354414613839,0,0,3,1,4,1,-3,0
1512354414615839,0,-1,4,-1,0,0,0,0
1512354414615839,0,1,0,3,0,2,0,0
1512354414619839,0,-1,6,-1,-3,-4,-1,-2
1512354414619839,-3,-1,-10,-2,4,0,0,-2
1512354414628839,0,-3,-1,0,-1,-2,-3,-2
1512354414628839,-1,-2,-9,-5,-1,-1,-2,-3
1512354414642839,-2,0,0,1,0,2,1,0
1512354414642839,1,0,8,4,-4,0,1,1
1512354414649839,-1,3,-2,2,3,4,-1,-1
1512354414649839,-2,-7,1,3,2,-1,1,1
1512354414665839,-2,-2,-11,-9,-3,-1,1,0
1512354414665839,1,0,-5,-3,-2,-3,-1,0
1512354414667839,-1,2,3,-2,-3,2,2,-1
1512354414667839,0,-3,-7,-6,-1,-1,-5,1
1512354414679839,-3,-1,9,4,3,0,-2,-2
1512354414679839,1,-1,12,6,0,-3,-4,-1
1512354414688839,0,0,4,0,-4,-3,-1,-3
1512354414688839,0,2,0,3,1,2,1,1
1512354414702839,1,0,-3,-3,0,-2,0,0
1512354414702839,0,2,-2,-2,-5,4,3,1
1512354414709839,-4,-2,-4,0,-2,-2,0,-2
1512354414709839,0,-2,-6,-5,0,-5,0,-2
1512354414725839,0,0,-1,1,0,0,-1,-1
1512354414725839,-1,-2,3,-1,-1,1,-3,1
1512354414727839,2,3,3,1,0,-3,0,1
1512354414727839,-2,1,0,1,-2,0,3,-1
1512354414739839,-3,-2,-11,-2,0,0,-1,1
1512354414739839,-1,-1,5,-2,-4,-6,0,0
1512354414748839,-3,-4,-12,-6,-1,-1,2,0
1512354414748839,1,0,3,2,-1,0,-3,-1
1512354414762839,-1,2,3,3,-1,0,0,-3
1512354414762839,-3,1,6,-2,1,-1,1,-2
1512354414769839,2,2,-1,-1,2,-3,1,1
1512354414769839,-1,-1,0,1,1,-2,-1,0
1512354414785839,-3,0,3,-3,1,-2,0,0
1512354414785839,-2,-2,-12,-4,-1,4,-1,0
1512354414792839,1,2,0,-3,-1,-2,0,0
1512354414792839,2,-1,1,-2,1,4,-1,0
1512354414799839,2,0,-1,1,-2,-1,2,-1
1512354414799839,1,-1,3,5,2,1,1,-2
1512354414808839,-1,-5,4,1,1,1,-4,1
1512354414808839,0,-3,-7,-7,-1,1,-3,1
1512354414822839,-2,2,-7,-4,-5,-7,-3,-2
1512354414822839,4,-1,5,3,-2,3,2,0
1512354414829839,2,2,9,3,0,4,0,1
1512354414829839,-3,-4,-10,-5,0,2,2,-3
1512354414845839,-2,0,-4,-5,2,1,0,1
1512354414845839,-2,-5,-15,-4,0,0,-1,-3
1512354414852839,0,1,8,2,0,0,0,-3
1512354414852839,-1,-1,5,4,0,-2,0,3
1512354414859839,2,-3,-1,2,1,-4,-1,-3
1512354414859839,-2,2,2,0,-1,0,-2,-1
1512354414868839,-1,-1,0,-1,-1,-2,2,1
1512354414868839,-3,-2,1,-2,-4,2,-1,1
1512354414890839,3,-4,-5,-1,-3,-1,-1,-1
1512354414890839,1,1,-4,2,-1,-2,-1,1
1512354414892839,-4,-4,-8,-5,2,7,-1,-1
1512354414892839,0,1,-6,-6,-7,-5,-1,-2
1512354414905839,-1,-4,5,3,1,2,2,3
1512354414905839,-4,1,6,0,3,0,-3,-2
1512354414912839,-1,0,2,2,2,4,-2,-2
1512354414912839,-2,3,3,-1,-1,-2,0,-3
1512354414928839,1,2,-5,-1,0,3,-4,1
1512354414928839,2,-1,-9,-6,-1,0,0,1
1512354414930839,0,-3,0,2,-4,-3,1,2
1512354414930839,-2,2,5,2,2,1,2,-2
1512354414942839,-1,-2,2,-1,-2,2,1,-1
1512354414942839,-4,-1,-1,-5,-3,1,2,-3
1512354414949839,0,-1,0,-3,-4,-1,-3,-1
1512354414949839,0,-2,-2,2,-1,0,-2,1
1512354414965839,1,2,6,4,1,2,1,0
1512354414965839,-3,-1,-1,-2,-1,1,1,0
1512354414972839,0,-2,-9,-7,-4,-1,0,-1
1512354414972839,2,3,-1,0,4,0,-3,3
1512354414988839,-4,-1,1,2,-1,2,1,-3
1512354414988839,0,1,5,-2,-1,1,0,-1
1512354414990839,-3,-1,3,0,-1,-1,-1,-1
1512354414990839,-1,-2,-3,0,4,4,1,-2
1512354415002839,1,1,3,0,-2,2,-2,0
1512354415002839,2,0,9,3,0,-2,-3,0
1512354415009839,-3,-1,-8,-4,1,-4,-3,2
1512354415009839,-2,-5,-14,-8,-5,-7,1,-3
1512354415025839,0,0,-2,-1,4,-3,-4,2
1512354415025839,1,-2,4,4,-2,0,0,-2
1512354415032839,2,0,3,4,1,0,-2,1
1512354415032839,-1,0,5,3,-2,-3,1,0
1512354415048839,-4,-2,3,1,-2,-4,2,-3
1512354415048839,-1,1,-17,-4,-1,-1,-2,-2
1512354415050839,-3,2,2,-4,-2,0,0,-1
1512354415050839,0,-1,-5,0,-1,-2,-2,-2
1512354415062839,-2,-1,0,-4,-3,-1,-1,-1
1512354415062839,2,1,6,5,1,4,1,3
1512354415069839,0,-1,3,4,-1,2,3,0
1512354415069839,-1,-1,-2,-4,-2,-2,-2,-3
1512354415085839,-3,-1,-3,-4,0,0,0,0
1512354415085839,-3,-4,-4,-5,-4,-5,0,0
1512354415092839,4,1,7,6,1,0,1,-3
1512354415092839,-2,2,-3,-1,1,1,-3,2
1512354415108839,1,-3,-14,-8,-2,-1,-2,1
1512354415108839,-2,2,-4,-4,-1,-1,3,-1
1512354415110839,0,0,11,1,-2,0,-2,-3
1512354415110839,-1,2,7,4,3,4,3,-2
1512354415122839,1,-3,2,0,0,3,1,-1
1512354415122839,-1,1,-3,-3,0,0,0,0
1512354415129839,-2,0,0,0,0,0,0,0
1512354415129839,-4,1,0,0,-2,0,0,-2
1512354415145839,0,0,-4,-4,-2,-2,-1,-2
1512354415145839,2,-2,0,0,-1,-3,-3,0
1512354415152839,0,2,-4,0,5,0,2,-1
1512354415152839,-1,-1,6,4,0,-2,1,0
1512354415168839,-3,1,-1,0,2,2,-1,-3
1512354415168839,0,-2,0,-3,5,-4,-4,-2
1512354415170839,0,-1,-3,-4,-4,-7,-1,-2
1512354415170839,1,2,-1,1,1,1,-2,0
1512354415182839,2,5,4,1,0,7,0,0
1512354415182839,0,2,7,8,1,3,1,-1
1512354415189839,-5,-1,-10,-3,-1,-1,1,-1
1512354415189839,0,-3,-10,-10,-4,-4,0,-1
1512354415205839,0,0,-1,-1,-4,0,0,-1
1512354415205839,-1,-4,8,2,0,-1,-4,-1
1512354415212839,0,-3,-13,-8,-2,0,-2,1
1512354415212839,0,1,-2,2,-1,4,-2,-1
1512354415228839,-2,3,7,3,-4,-2,-2,-1
1512354415228839,-2,-1,1,-2,-5,2,2,-2
1512354415230839,-3,-4,3,0,-1,-1,-1,-1
1512354415230839,1,-2,-2,-4,-2,-1,-3,0
1512354415242839,1,0,-12,-2,1,-4,-1,0
1512354415242839,0,-4,-2,-2,-1,0,0,-1
1512354415249839,-1,-1,5,0,-3,-1,-1,-1
1512354415249839,2,-1,6,2,0,-1,1,0
1512354415265839,-1,-2,6,3,0,-1,1,1
1512354415265839,-1,-2,-9,-4,0,1,-2,0
1512354415272839,-1,-1,1,4,1,2,-2,-1
1512354415272839,-1,-2,2,3,-2,-3,-4,-5
1512354415288839,1,-2,-5,-7,-3,-4,-2,-1
1512354415288839,-1,-1,1,0,2,-2,0,1
1512354415290839,-1,-1,-5,-4,-2,6,1,0
1512354415290839,0,-1,-3,-1,1,4,0,1
1512354415302839,1,-2,-1,-1,-2,-2,0,1
1512354415302839,0,1,0,-1,0,-2,0,0
1512354415311839,2,0,9,5,-1,-2,-3,-1
1512354415311839,0,-3,-2,-3,-1,-3,1,2
1512354415325839,0,-4,-4,-3,-1,-4,1,0
1512354415325839,-2,2,0,-2,-3,-1,2,-2
1512354415332839,0,0,-8,-4,0,-3,1,-1
1512354415332839,-1,-2,7,3,0,1,-2,0
1512354415348839,-4,1,-2,-1,-1,0,-2,-3
1512354415348839,-1,-1,-6,1,2,1,0,3
1512354415350839,0,-3,3,0,-2,-4,-1,-1
1512354415350839,-2,-1,-3,-5,-1,1,0,-2
1512354415362839,-5,-3,-9,-6,1,-2,2,0
1512354415362839,0,1,4,3,-3,0,-2,-1
1512354415371839,2,3,-1,0,-4,-2,1,3
1512354415371839,-1,5,16,8,5,8,3,3
1512354415385839,0,-3,-2,2,-2,0,2,-3
1512354415385839,1,-5,-18,-14,-2,-4,-4,-2
1512354415393839,-2,-2,-9,-9,-1,8,3,0
1512354415393839,1,0,1,1,-2,-8,1,-1
1512354415408839,2,4,10,6,2,1,-8,-3
1512354415408839,-3,-1,7,4,5,7,-2,-4
1512354415410839,2,0,1,4,-2,-13,2,-1
1512354415410839,-1,-1,-2,0,-1,-4,0,-1
1512354415422839,2,-1,-4,-3,1,-1,2,-2
1512354415422839,-1,1,-2,2,-1,0,2,0
1512354415431839,-2,0,-3,-6,-7,2,-6,0
1512354415431839,1,1,-4,3,13,-3,-2,3
1512354415445839,0,-1,0,-1,-2,9,3,1
1512354415445839,0,-1,2,-3,-5,-1,-1,-1
1512354415452839,-3,1,-1,0,-3,-3,0,-1
1512354415452839,-1,-5,-4,-7,-6,1,0,-1
1512354415468839,-3,0,2,7,7,-2,-2,1
1512354415468839,2,1,-1,-4,-2,-2,-4,-1
1512354415470839,-3,-1,1,-1,4,5,-2,1
1512354415470839,0,-2,0,-2,-7,1,-3,-2
1512354415482839,3,-2,4,1,-1,-3,-1,1
1512354415482839,-5,0,-1,0,-4,1,1,-2
1512354415491839,1,0,-3,-3,-1,-2,3,-4
1512354415491839,-2,-1,-13,-9,-3,-1,-3,-1
1512354415505839,-5,0,0,1,-4,1,-1,-1
1512354415505839,2,1,3,3,3,0,-2,5
1512354415512839,1,-1,6,5,3,1,-1,-2
1512354415512839,0,-2,-3,-4,-2,2,0,-2
1512354415528839,1,0,-1,-1,-6,-1,1,-1
1512354415528839,-1,-1,-3,-5,-3,-2,3,-1
1512354415530839,-2,-2,-3,2,5,2,-3,-3
1512354415530839,0,0,1,-1,-5,-3,-1,2
1512354415542839,1,0,-4,-5,2,-6,-4,1
1512354415542839,2,1,6,7,6,5,1,2
1512354415551839,-4,-4,-4,-5,-1,3,2,-2
1512354415551839,2,0,-2,-2,1,4,0,-4
1512354415565839,-1,0,-1,-1,-1,1,-1,-4
1512354415565839,-1,-1,1,-1,-1,-2,2,-2
1512354415572839,0,-3,3,4,3,-4,-4,2
1512354415572839,-1,0,-1,-1,-2,1,-2,-1
1512354415588839,-1,-3,-8,-9,-4,3,1,-2
1512354415588839,0,0,-4,-4,-3,0,0,-1
1512354415590839,-2,4,5,0,0,3,1,3
1512354415590839,-3,-4,3,2,-2,1,-2,0
1512354415602839,-1,-3,1,-3,-1,-5,2,-1
1512354415602839,-5,-4,-3,-1,-5,-3,0,-3
1512354415611839,-4,-2,-15,-12,-2,-5,-1,0
1512354415611839,-1,2,4,3,3,3,0,0
1512354415625839,-1,-1,4,0,-1,7,2,0
1512354415625839,0,-1,0,1,2,5,-2,-3
1512354415632839,4,2,4,5,-1,4,1,1
1512354415632839,-2,-2,-1,-3,-3,3,-2,-3
1512354415648839,0,-5,-3,2,0,-1,-5,1
1512354415648839,1,4,-3,-1,1,-5,0,1
1512354415650839,0,0,-1,-2,-1,-4,0,-3
1512354415650839,-3,0,-4,0,-2,-5,2,-1
1512354415662839,0,-2,1,0,-3,-2,-2,0
1512354415662839,-1,0,-1,-3,2,-3,0,1
1512354415671839,2,-2,-3,-2,-4,-4,-1,-3
1512354415671839,0,4,0,-2,0,-20,-1,0
1512354415685839,-3,-2,3,3,3,-16,1,0
1512354415685839,2,-2,-5,-5,-2,-3,1,-1
1512354415692839,-3,-2,1,1,-4,5,0,2
1512354415692839,-3,1,1,1,1,9,0,-2
1512354415707839,0,3,0,1,1,13,-2,-3
1512354415707839,-5,-2,-3,-2,-3,-6,0,-1
1512354415714839,3,0,3,3,3,5,1,3
1512354415714839,0,-1,0,-2,-3,-13,-2,-2
1512354415722839,-4,-1,-3,-5,-4,10,-2,2
1512354415722839,1,0,0,1,-1,9,3,0
1512354415731839,-3,-3,0,0,1,14,-5,-3
1512354415731839,0,0,-2,-1,-4,21,0,-2
1512354415745839,0,0,1,-3,1,3,0,-1
1512354415745839,0,-3,0,2,-2,1,-2,1
1512354415752839,-3,-2,-1,0,-1,-13,-5,-5
1512354415752839,1,0,0,1,2,-5,-1,0
1512354415767839,0,0,-3,2,1,-17,-4,-3
1512354415767839,0,-1,-1,-2,-1,-28,4,0
1512354415774839,-2,2,-2,-2,0,-47,1,0
1512354415774839,-2,-1,-3,-3,-2,-1,-2,-1
1512354415782839,-2,0,0,3,-1,31,2,-2
1512354415782839,3,1,-1,-1,1,25,-6,1
1512354415791839,-1,1,-2,-1,-1,23,0,-2
1512354415791839,-2,-5,-3,-4,0,10,-3,0
1512354415805839,-1,3,1,-2,-1,6,0,-2
1512354415805839,-4,1,1,2,-1,7,-3,-1
1512354415812839,0,3,1,1,-1,-4,-2,-2
1512354415812839,0,0,0,2,-3,-6,-1,-1
1512354415827839,1,-4,-2,-3,-1,-13,2,2
1512354415827839,1,-1,-2,-1,2,-6,-4,-6
1512354415834839,1,-1,0,-1,-3,-4,-3,-1
1512354415834839,-1,0,-1,3,-2,-4,0,0
1512354415842839,-1,-2,0,0,2,-7,1,2
1512354415842839,-1,1,-2,-3,0,-8,-1,-1
1512354415851839,0,-3,0,-3,1,9,-3,1
1512354415851839,1,-3,-2,-1,0,2,-3,1
1512354415865839,1,0,0,2,-2,-7,2,3
1512354415865839,-1,-1,-1,-2,-1,4,3,-2
1512354415872839,-1,-2,-1,-1,0,6,4,1
1512354415872839,0,-3,2,-3,2,1,4,0
1512354415887839,-1,0,-1,-3,2,-2,-4,0
1512354415887839,0,0,-1,1,0,0,0,3
1512354415894839,-1,-1,1,0,-1,-2,0,-2
1512354415894839,-2,-1,0,2,-2,1,-1,-2
1512354415910839,0,0,0,0,-3,-1,-1,-1
1512354415910839,0,-1,-1,-3,-2,1,3,-1
1512354415912839,-1,1,-2,-2,2,4,0,-1
1512354415912839,2,-1,0,-3,1,-6,-2,-2
1512354415925839,3,-1,-3,-3,-5,-1,-2,-1
1512354415925839,-1,-1,-2,0,-1,0,0,1
1512354415932839,1,0,0,2,-3,7,-5,0
1512354415932839,-1,2,0,-2,1,3,0,-2
1512354415947839,-2,-2,-1,-1,-1,0,0,-2
1512354415947839,0,0,1,3,-1,-1,-2,0
1512354415954839,0,0,-2,-2,-2,4,1,0
1512354415954839,-2,-1,-3,-4,0,2,0,0
1512354415970839,-1,1,-1,-2,2,4,0,-2
1512354415970839,0,-3,-1,-1,-4,-1,1,3
1512354415972839,-1,-4,-1,1,1,-1,0,-1
1512354415972839,-2,-2,-1,-2,-1,-1,-1,-1
1512354415985839,2,-2,-2,-2,2,-4,2,2
1512354415985839,-3,-3,-3,0,-4,2,-1,-4
1512354415992839,1,0,-2,-1,-5,-6,-2,0
1512354415992839,0,-1,1,4,2,-5,-2,-1
1512354416007839,-2,0,-1,-2,1,5,1,1
1512354416007839,-2,-1,0,0,2,0,-3,-3
1512354416014839,0,-1,-1,-1,-3,-7,-2,-1
1512354416014839,1,-4,-2,-3,-3,2,3,-2
1512354416030839,-1,-2,2,0,-6,-8,-1,-1
1512354416030839,0,-3,2,0,1,1,1,1
1512354416032839,0,1,-2,-2,3,-3,3,2
1512354416032839,-4,3,2,1,1,-8,0,-1
1512354416045839,0,-4,-3,0,-2,-5,2,1
1512354416045839,-1,-2,1,-4,-1,3,3,-3
1512354416052839,3,-3,1,5,3,4,-2,-1
1512354416052839,1,0,-2,-3,-4,1,0,3
1512354416067839,-3,1,2,2,2,8,2,0
1512354416067839,-1,1,-2,-4,1,4,-2,2
1512354416074839,-2,2,0,6,5,7,0,0
1512354416074839,0,-1,-1,0,-2,1,0,0
1512354416090839,0,0,0,0,-1,-4,-3,-5
1512354416090839,1,0,-2,-2,0,-5,0,-2
1512354416092839,0,-3,-3,-5,-6,-2,3,0
1512354416092839,0,-1,-2,1,-2,-1,-2,-1
1512354416105839,-1,-1,-1,-2,0,-6,-2,0
1512354416105839,0,-2,-1,1,-3,-3,-2,0
1512354416112839,-4,1,-2,-2,0,-1,1,-1
1512354416112839,-4,0,2,0,-3,0,0,-2
1512354416127839,3,3,-2,-3,2,1,1,2
1512354416127839,-4,-5,-4,-4,-3,-2,-3,1
1512354416134839,-5,1,1,-1,-3,-9,1,2
1512354416134839,1,-1,-2,0,0,-7,1,-1
1512354416150839,-1,2,1,0,1,-4,0,-2
1512354416150839,-1,2,-2,2,0,0,-5,2
1512354416152839,-1,-3,-2,-1,1,12,-1,-3
1512354416152839,3,-3,-2,-1,-6,7,-4,0
1512354416164839,-3,-2,-1,1,2,7,0,-1
1512354416164839,0,4,3,1,-4,-5,0,-2
1512354416173839,0,-4,0,-2,-3,0,-2,1
1512354416173839,2,1,-3,-2,1,-1,-3,0
1512354416187839,-1,-2,1,-1,-3,-4,0,1
1512354416187839,2,-3,-1,-3,0,-2,0,3
1512354416194839,-1,2,1,3,2,-4,0,-1
1512354416194839,-1,-1,2,-4,-4,-2,2,-1
1512354416210839,0,-2,-3,-1,1,1,0,2
1512354416210839,-1,3,-4,-4,2,1,2,-2
1512354416210839,-1,-1,6,2,2,0,-4,-2
1512354416210839,-3,0,2,2,-1,1,0,-2
1512354416232839,-1,0,-5,-8,-3,0,-3,-2
1512354416232839,-1,-4,-8,-7,-2,-2,-1,-4
1512354416233839,5,2,-3,-4,-1,1,1,-2
1512354416233839,-3,-1,3,4,1,5,-1,-1
1512354416248839,0,1,6,5,-2,-2,-1,-2
1512354416248839,-1,-1,1,2,-3,2,2,1
1512354416254839,-2,1,-9,-3,-2,-1,-1,0
1512354416254839,-2,-4,-4,0,0,1,-1,1
1512354416269839,0,0,1,0,-4,-4,-3,-1
1512354416269839,0,0,4,1,1,4,0,-1
1512354416277839,0,-3,3,-2,-3,-2,3,0
1512354416277839,0,-1,0,-2,1,0,0,-1
1512354416292839,1,1,-1,2,-2,1,-3,-2
1512354416292839,-1,-3,2,3,1,-2,-3,0
1512354416293839,0,1,-2,-4,0,1,-4,-1
1512354416293839,2,-2,-2,-2,1,3,3,0
1512354416308839,-2,2,5,2,0,1,-1,2
1512354416308839,4,2,0,2,-3,-1,1,2
1512354416314839,-4,-5,-13,-8,-5,-2,0,-2
1512354416314839,-2,1,2,5,2,-3,-2,2
1512354416330839,0,3,8,3,0,0,-1,0
1512354416330839,-2,-5,-13,-6,-1,2,3,0
1512354416330839,-1,-1,-10,-5,-5,-4,1,0
1512354416330839,3,0,-9,-1,0,5,2,0
1512354416352839,-1,-5,-1,-4,0,2,1,1
1512354416352839,0,1,11,6,1,-1,-2,-1
1512354416353839,-1,1,4,1,1,-2,0,-3
1512354416353839,-1,0,1,-2,-1,-1,0,0
1512354416368839,-2,3,3,2,-2,-3,3,-1
1512354416368839,-2,0,3,3,4,1,1,-1
1512354416374839,-4,-1,5,7,3,2,-3,2
1512354416374839,0,-1,1,1,-7,0,-4,2
1512354416390839,1,-3,-9,-6,1,-3,-2,-2
1512354416390839,2,2,-7,-8,-7,1,0,1
1512354416390839,1,-5,-5,-3,-1,-1,2,-1
1512354416390839,2,4,11,4,0,0,-1,-1
1512354416412839,-3,0,-2,1,-1,1,1,-4
1512354416412839,1,3,8,4,1,-4,0,-1
1512354416413839,1,-1,-8,-4,1,-2,0,0
1512354416413839,1,-1,-2,-8,-1,-3,-2,-4
1512354416428839,-1,0,-6,-1,-3,5,1,0
1512354416428839,1,-2,1,-1,-1,4,-3,-3
1512354416434839,-3,2,-2,-1,0,3,2,1
1512354416434839,-2,-2,-8,-10,-2,-4,-2,-1
1512354416450839,-3,0,4,-3,1,0,1,-1
1512354416450839,2,0,6,5,2,0,-2,-2
1512354416450839,0,1,13,7,1,7,-3,0
1512354416450839,-2,-4,-13,-6,0,-2,-3,0
1512354416472839,0,0,-8,-7,-3,-4,0,3
1512354416472839,-3,2,-3,-2,-2,-2,-3,-1
1512354416473839,-2,-2,6,3,-2,-1,-2,1
1512354416473839,-2,-2,6,5,4,3,1,-1
1512354416488839,-1,-11,-5,-2,-1,-2,-2,1
1512354416488839,-1,-3,-4,-1,0,0,4,0
1512354416494839,2,-5,5,-2,-2,-6,-4,-2
1512354416494839,-2,0,0,-1,-3,-6,3,0
1512354416510839,-1,-4,-2,5,-1,2,-5,-3
1512354416510839,-3,-1,-3,-1,0,0,-3,1
1512354416510839,2,-1,-1,-1,1,1,0,0
1512354416510839,-4,0,-1,2,-1,2,2,-1
1512354416532839,-1,-2,-4,-4,-3,0,0,-6
1512354416532839,1,1,2,3,1,7,0,-1
1512354416533839,-2,7,-2,-4,-4,-5,0,-2
1512354416533839,-6,-3,-5,-2,0,-1,-3,-1
1512354416548839,-2,3,0,-1,0,2,-3,-1
1512354416548839,1,-1,2,0,2,2,-6,-2
1512354416554839,-2,0,-3,-2,-4,3,-1,0
1512354416554839,0,2,4,4,-1,2,-2,-2
1512354416570839,3,2,1,-2,0,-1,-2,-3
1512354416570839,-1,0,-4,-3,-1,-7,1,2
1512354416570839,2,-2,0,-5,0,-9,1,-1
1512354416570839,-1,1,4,2,0,-11,-3,1
1512354416592839,2,-1,0,-1,-2,0,2,1
1512354416592839,-4,-1,-3,-7,-2,-2,0,-2
1512354416593839,0,-3,-3,-3,-2,9,0,0
1512354416593839,3,5,-1,3,2,5,1,2
1512354416608839,2,-1,7,3,2,4,0,-2
1512354416608839,-4,-4,-4,-1,1,4,2,0
1512354416614839,-3,0,-3,1,0,3,2,-1
1512354416614839,0,0,0,-4,-2,0,0,0
1512354416629839,-2,0,-2,-2,1,-1,1,1
1512354416629839,2,-3,2,-1,-1,0,-1,-1
1512354416636839,0,0,0,1,2,-1,-4,-1
1512354416636839,0,-2,2,1,-1,1,-1,-3
1512354416652839,-3,2,3,-2,1,2,0,-1
1512354416652839,-1,0,-7,0,0,-1,1,-1
1512354416653839,-1,-1,-1,3,4,-2,2,3
1512354416653839,2,-3,0,1,2,-2,-1,1
1512354416668839,0,0,2,0,-2,-4,-1,2
1512354416668839,0,-2,1,1,3,6,0,-1
1512354416674839,-2,2,3,0,-1,0,-1,-4
1512354416674839,0,-3,-4,-3,-3,-7,0,-2
1512354416689839,-1,1,-4,1,0,1,-1,1
1512354416689839,0,1,0,0,-2,-4,-1,1
1512354416696839,0,4,0,2,2,-1,-2,1
1512354416696839,0,-2,-8,-10,0,0,-3,-1
1512354416712839,1,-1,-5,-3,-7,1,2,-2
1512354416712839,2,0,0,4,-2,-2,-1,-1
1512354416713839,-1,-3,6,4,-2,-1,-2,0
1512354416713839,-2,-2,4,2,0,8,2,-2
1512354416728839,0,-1,-4,-1,-2,0,-1,3
1512354416728839,-1,-3,-2,-3,0,0,1,0
1512354416734839,-1,-4,-6,-4,-3,1,0,1
1512354416734839,-2,-1,-5,-2,3,1,1,1
1512354416749839,1,2,2,0,-4,-6,1,-3
1512354416749839,2,3,5,-1,-1,-3,0,-3
1512354416756839,-3,-4,1,-1,2,-4,0,0
1512354416756839,0,1,0,1,-2,3,1,-1
1512354416772839,-1,2,2,1,4,0,-4,-1
1512354416772839,1,-2,-1,1,-1,-5,0,-3
1512354416773839,-1,-6,-6,-9,-1,1,1,-5
1512354416773839,-1,4,0,3,0,1,-4,0
1512354416789839,1,-5,-5,-3,0,1,-1,0
1512354416789839,-1,5,0,-1,-2,0,1,-1
1512354416794839,0,-2,0,1,-2,0,0,-2
1512354416794839,-3,-2,-4,-4,-3,-3,-3,-1
1512354416809839,-2,-1,2,0,-1,-3,2,-1
1512354416809839,-7,-4,-1,0,3,1,-3,0
1512354416817839,2,1,-3,-4,-1,0,0,-2
1512354416817839,0,3,2,0,-2,-1,1,-1
1512354416834839,-4,-2,0,2,3,-2,-1,-1
1512354416834839,1,1,-1,-4,0,1,0,5
1512354416834839,-2,-2,3,4,0,0,-1,-1
1512354416834839,-2,-2,-2,0,-3,-2,1,0
1512354416848839,1,1,1,-1,1,1,-2,-2
1512354416848839,-2,-2,-2,0,-2,4,-1,-1
1512354416854839,3,2,1,-2,1,2,1,1
1512354416854839,-4,-8,-3,1,1,-1,-1,-5
1512354416869839,-2,-1,-1,-2,-2,-3,-3,-1
1512354416869839,-5,-4,-5,-5,-4,1,0,-2
1512354416876839,-3,1,2,4,-1,-4,-2,-2
1512354416876839,2,-1,-2,-6,-3,6,2,2
1512354416892839,-1,1,3,0,3,6,0,-1
1512354416892839,-3,0,-2,-4,-4,-9,-4,-3
1512354416893839,8,1,3,4,3,11,2,3
1512354416893839,-4,-4,-3,-6,-4,-2,-4,0
1512354416908839,0,-2,-1,1,-2,3,-1,-3
1512354416908839,2,1,-1,0,-4,0,1,2
1512354416914839,-3,0,-2,-5,-8,-1,-1,0
1512354416914839,-1,2,-1,3,4,-2,1,-1
1512354416929839,1,-4,0,-4,-2,-1,-1,2
1512354416929839,0,1,1,-1,1,3,1,-2
1512354416936839,-4,0,1,1,1,0,1,0
1512354416936839,3,1,3,0,-1,-3,0,-2
1512354416952839,1,-1,0,3,4,-3,1,0
1512354416952839,1,-1,-3,1,-2,3,-4,0
1512354416953839,2,3,-1,-4,4,-2,-3,-2
1512354416953839,-3,-2,-2,0,-3,-3,3,0
1512354416976839,2,2,-1,-5,-4,0,0,-1
1512354416976839,3,-2,2,2,-2,-4,2,-1
1512354416977839,1,-2,-7,-2,-2,1,-1,-1
1512354416977839,-4,2,5,1,1,1,-5,1
1512354416989839,1,1,-2,-3,-3,-4,-1,-2
1512354416989839,-3,-1,-3,-4,-1,-2,4,1
1512354416996839,1,0,3,1,-3,-2,-1,-1
1512354416996839,5,2,2,-2,-2,2,-2,-1
1512354417012839,-1,-2,-3,1,1,4,-2,-1
1512354417012839,1,1,0,-1,-1,-3,-2,1
1512354417013839,-4,1,1,-1,-1,-2,-2,-1
1512354417013839,0,4,-1,2,4,0,0,3
1512354417028839,-1,-3,-1,1,1,0,0,-1
1512354417028839,2,-1,1,-1,-7,-2,-1,-3
1512354417034839,-2,-2,-1,1,7,-2,0,2
1512354417034839,0,0,0,-3,0,-1,1,0
1512354417057839,-6,-5,-4,-3,-4,-2,-3,-1
1512354417057839,-2,1,0,3,2,0,-1,1
1512354417058839,0,-2,-2,-5,-3,-2,-1,-1
1512354417058839,5,-2,-1,2,-4,-2,-2,-1
1512354417072839,-2,0,0,1,2,0,1,0
1512354417072839,-4,1,4,2,3,4,3,-1
1512354417073839,0,0,0,-2,-11,-1,1,0
1512354417073839,0,-3,-4,5,7,-2,-1,-3
1512354417088839,1,1,-3,-4,-3,1,0,-2
1512354417088839,3,-1,-1,-1,-2,-1,-1,-2
1512354417094839,2,1,6,4,2,-6,0,2
1512354417094839,3,3,0,-4,-3,3,-3,1
1512354417109839,-4,-3,-3,-2,-2,0,-2,-1
1512354417109839,-1,-3,-1,-3,-1,-3,-1,-4
1512354417116839,-2,-2,-1,-2,-1,-1,2,0
1512354417116839,-3,2,-1,-4,-4,2,2,-2
1512354417132839,-2,0,3,6,1,-4,1,1
1512354417132839,2,3,0,-1,5,2,-1,2
1512354417133839,-4,-5,-5,-3,-2,1,-2,-3
1512354417133839,-2,0,0,-5,-1,-1,2,-1
1512354417148839,1,1,-3,-3,1,2,-2,-3
1512354417148839,-1,1,2,2,-1,1,1,0
1512354417154839,1,1,2,1,-3,-4,-1,-2
1512354417154839,-3,-3,0,2,4,3,1,0
1512354417169839,3,0,-8,-5,-1,0,-1,-1
1512354417169839,-1,-1,-3,-3,3,0,-1,0
1512354417176839,-2,3,3,3,3,12,5,-3
1512354417176839,-1,-8,1,-3,-6,-4,-4,-1
1512354417192839,-2,-1,4,-1,0,0,0,2
1512354417192839,1,-4,-7,-5,-2,-2,0,-1
1512354417193839,-3,-2,-6,-4,-2,-2,-2,0
1512354417193839,1,1,6,5,-1,3,4,1
1512354417208839,-1,2,7,7,-4,-2,0,0
1512354417208839,-3,-4,-3,-5,-7,-3,-5,-3
1512354417214839,-1,-1,-5,-3,1,2,-1,2
1512354417214839,-2,-3,-6,-2,-2,-4,-3,-5
1512354417229839,0,-1,1,2,0,-4,-2,-3
1512354417229839,-4,-1,0,-1,2,0,0,2
1512354417236839,1,-2,3,-2,-6,-2,-1,2
1512354417236839,-1,0,-1,1,-3,-4,-4,0
1512354417252839,1,5,-1,0,0,5,4,1
1512354417252839,-3,-1,0,1,0,1,-2,-3
1512354417253839,-2,-7,-4,2,4,2,-1,-3
1512354417253839,-2,2,4,1,-1,-1,0,1
1512354417268839,0,-1,-2,-5,-2,2,-2,1
1512354417268839,1,0,-4,-1,-3,-1,-1,0
1512354417274839,1,4,2,2,3,-4,2,-2
1512354417274839,-2,-2,-4,-4,0,5,1,-1
1512354417289839,-5,-1,2,2,0,-1,0,-1
1512354417289839,1,2,2,3,1,2,-2,0
1512354417296839,-1,-7,-3,0,-2,-3,-1,1
1512354417296839,-1,1,-1,-3,2,-2,-2,-2
1512354417312839,-3,-1,-6,-1,-3,-3,3,3
1512354417312839,1,-3,4,-1,0,1,1,-1
1512354417313839,-1,1,3,4,-1,-2,-2,-2
1512354417313839,-2,2,-1,-2,1,6,0,-1
1512354417328839,-2,-7,-4,0,0,-3,2,-1
1512354417328839,1,3,-4,-3,3,-4,-1,1
1512354417334839,-3,3,2,-1,-1,4,-1,-1
1512354417334839,2,-2,2,-3,1,-3,-1,-2
1512354417349839,-3,7,3,-2,-3,1,-1,-2
1512354417349839,-1,-6,-3,-3,-3,0,1,-1
1512354417356839,5,3,3,1,2,-2,-3,0
1512354417356839,-1,2,-1,0,-2,-2,-2,1
1512354417372839,0,-1,-4,0,-2,1,-2,-2
1512354417372839,-3,2,-2,-1,-1,4,2,1
1512354417373839,0,0,-2,-3,-5,-8,-1,-3
1512354417373839,4,-1,1,0,-3,2,0,-1
1512354417388839,5,-1,2,-1,1,-1,-1,-2
1512354417388839,1,1,1,-5,-4,-2,-3,-2
1512354417394839,-1,2,1,2,3,0,2,0
1512354417394839,-1,1,-4,2,2,2,-2,0
1512354417409839,-3,-3,-4,-3,2,-3,-2,-2
1512354417409839,1,-3,4,3,4,4,0,-2
1512354417416839,-2,-2,-4,-2,0,-3,-2,-2
1512354417416839,-1,1,-1,-4,-3,-1,1,0
1512354417432839,1,-4,-1,-1,2,3,-4,2
1512354417432839,0,0,1,4,-3,-4,-2,1
1512354417433839,0,-2,0,-6,-4,-1,1,-4
1512354417433839,-2,-5,0,2,-1,0,2,-1
1512354417448839,2,2,-1,-2,1,0,0,-4
1512354417448839,-1,0,2,1,0,0,-2,-2
1512354417454839,0,1,1,2,-7,4,0,0
1512354417454839,1,-2,-6,-2,0,-2,-3,0
1512354417469839,-2,-3,-10,-5,-2,1,1,0
1512354417469839,0,-1,-8,-5,-1,-3,1,-5
1512354417476839,0,1,3,0,0,3,0,-3
1512354417476839,-3,0,5,1,-2,-2,0,-1
1512354417492839,1,1,4,5,-2,0,-1,2
1512354417492839,-4,0,0,-3,2,4,-1,-2
1512354417493839,-2,2,-4,-3,1,-1,-3,1
1512354417493839,2,-1,-3,-3,1,-1,1,-3
1512354417508839,-2,-2,0,0,0,1,-4,2
1512354417508839,0,-4,-2,-1,-4,-4,-1,3
1512354417514839,0,-1,1,-1,-1,-4,-1,-3
1512354417514839,0,-4,-8,-5,1,4,-1,0
1512354417529839,-2,2,4,2,-2,1,-1,0
1512354417529839,-2,2,6,4,2,2,2,1
1512354417536839,-3,-1,-2,-4,-1,2,-3,1
1512354417536839,1,-3,2,0,-1,-2,1,0
1512354417552839,2,-2,-4,-5,1,-1,0,0
1512354417552839,-2,0,-2,4,0,0,0,1
1512354417553839,-2,-5,0,0,1,-5,-2,-1
1512354417553839,0,9,8,8,5,3,1,-1
1512354417568839,-1,-3,3,-2,-4,0,0,0
1512354417568839,-1,0,-7,-6,-2,-1,-2,0
1512354417574839,1,-5,-10,-6,-3,-3,-1,2
1512354417574839,-1,0,-2,-3,-2,-1,-2,-2
1512354417589839,0,1,5,3,0,1,1,-4
1512354417589839,1,0,1,0,0,-4,3,-2
1512354417596839,3,0,2,3,5,0,2,1
1512354417596839,-2,-1,-2,1,-2,-3,-3,-1
1512354417611839,0,3,-2,0,-1,0,2,1
1512354417611839,-5,-4,-3,0,-1,1,0,-2
1512354417619839,2,2,-2,0,2,-2,-1,-3
1512354417619839,0,-3,3,-3,-1,-5,-1,-1
1512354417628839,-2,-1,-2,-1,2,-3,1,-2
1512354417628839,2,3,2,-2,-2,-5,-2,2
1512354417634839,-2,0,-3,-2,-3,0,2,-1
1512354417634839,0,-2,-2,-1,0,-5,-3,2
1512354417649839,-1,0,-2,-4,-2,-3,-2,-1
1512354417649839,-1,-1,0,-2,-2,-1,-3,0
1512354417656839,-2,-6,0,5,-1,4,2,-2
1512354417656839,4,0,0,-2,-4,0,-3,-1
1512354417671839,-2,-1,0,1,3,2,1,0
1512354417671839,2,-3,7,2,4,0,-1,0
1512354417679839,-4,1,-3,-4,-2,-2,-2,-1
1512354417679839,-2,1,1,-1,0,1,-2,2
1512354417688839,3,-3,1,2,-6,-4,-2,-1
1512354417688839,1,-1,-5,-2,1,-2,-4,0
1512354417694839,1,1,2,1,-1,0,0,-2
1512354417694839,0,-1,-3,-1,-2,3,-2,-1
1512354417709839,1,2,3,-4,3,0,0,1
1512354417709839,1,2,1,-1,2,2,-1,-1
1512354417716839,-2,2,-4,-4,-4,-2,2,3
1512354417716839,-2,1,-2,0,-2,-3,0,-1
1512354417731839,0,-2,-5,-4,0,-1,-3,-2
1512354417731839,1,1,1,2,1,2,2,-1
1512354417739839,-5,2,5,0,1,0,0,0
1512354417739839,-2,-2,-4,-3,-4,0,-1,-4
1512354417755839,-5,-3,-5,0,1,0,-1,0
1512354417755839,1,0,-3,-3,-1,-1,1,-4
1512354417755839,0,-2,1,0,-2,2,-2,-3
1512354417755839,-3,0,3,4,-3,-4,1,-1
1512354417769839,-1,0,2,-2,-6,-1,1,-2
1512354417769839,-2,-6,-5,3,1,-3,1,0
1512354417776839,0,1,-1,0,2,-1,-2,-2
1512354417776839,2,2,2,-3,-1,-2,3,0
1512354417791839,-3,-1,3,-2,-2,-1,0,-1
1512354417791839,0,0,0,-1,-7,-2,-1,-1
1512354417799839,-3,-2,-4,-2,1,-1,3,0
1512354417799839,-2,-1,-7,0,1,-1,2,-1
1512354417815839,1,2,1,2,0,2,-1,-1
1512354417815839,-1,1,5,-2,-1,4,-2,2
1512354417815839,1,-2,-1,0,1,0,1,2
1512354417815839,-3,-4,-7,-5,-1,0,0,-1
1512354417829839,-3,1,-4,2,1,1,-1,0
1512354417829839,0,1,-2,-3,-4,4,0,0
1512354417836839,1,-1,1,0,-1,-1,-1,-2
1512354417836839,0,3,6,3,0,4,3,0
1512354417851839,2,-3,-2,-4,0,-1,0,-3
1512354417851839,-1,-2,-5,0,1,2,1,0
1512354417859839,1,-2,0,-1,-3,-1,0,2
1512354417859839,0,-1,-1,-1,0,0,-1,0
1512354417875839,-4,1,-1,1,2,3,-3,0
1512354417875839,-2,-4,0,-2,-4,2,1,-1
1512354417875839,-1,-1,0,0,-3,0,-4,-3
1512354417875839,2,2,4,-2,2,2,0,2
1512354417889839,0,-4,-3,-2,0,-2,4,0
1512354417889839,-2,-3,1,2,-2,-5,-3,1
1512354417896839,-1,0,-2,0,-1,-4,-1,-3
1512354417896839,0,1,3,1,3,4,-2,1
1512354417911839,-1,-2,-2,0,-3,-3,-2,-3
1512354417911839,0,2,-1,-4,1,-1,-1,-3
1512354417919839,-1,-1,-6,-3,2,1,1,0
1512354417919839,-4,-2,-2,-2,-2,-5,-3,-1
1512354417943839,2,4,7,6,0,1,0,0
1512354417943839,0,2,10,3,-1,-4,-1,0
1512354417944839,0,-1,-2,-3,-1,1,2,-1
1512354417944839,-1,-2,-7,-3,-2,-1,-1,1
1512354417949839,0,-1,-6,-4,-2,-2,1,-1
1512354417949839,0,1,-1,-1,-1,0,-4,0
1512354417956839,-2,0,6,1,1,-1,-2,-1
1512354417956839,2,-4,-1,1,0,-1,-1,2
1512354417971839,-3,-2,-4,-2,-4,0,-1,0
1512354417971839,1,-1,-3,-1,9,0,-1,1
1512354417979839,2,1,3,-1,1,2,0,0
1512354417979839,-3,-4,-1,0,-3,-4,-3,-4
1512354417995839,0,-1,5,2,-1,0,0,-1
1512354417995839,-2,-3,-6,-6,-3,-6,-4,-3
1512354417995839,-1,1,-5,-1,-2,-2,-1,0
1512354417995839,0,-1,0,1,-1,-1,-1,-3
1512354418009839,2,3,2,-5,-2,0,-2,0
1512354418009839,1,4,3,5,1,2,1,0
1512354418016839,-3,-1,-3,-1,-2,-1,-3,0
1512354418016839,-2,4,0,1,-2,1,2,-2
1512354418031839,-1,-4,-1,-2,0,0,-5,0
1512354418031839,0,2,-2,0,0,1,3,2
1512354418039839,2,-1,0,-1,-1,0,2,0
1512354418039839,1,1,-1,-1,-3,1,-2,-1
1512354418055839,-2,-3,-3,1,0,-1,0,-3
1512354418055839,-2,3,1,0,-2,-1,0,-2
1512354418055839,-5,-2,-4,2,1,-1,1,0
1512354418055839,0,1,-2,-7,-1,-2,0,-2
1512354418069839,2,0,2,2,2,3,-1,4
1512354418069839,1,-3,1,-5,-3,-1,0,-2
1512354418076839,-1,0,0,-1,1,0,0,-3
1512354418076839,0,-4,1,-1,1,0,-2,1
1512354418091839,-2,1,2,-1,-2,-3,-1,-1
1512354418091839,-4,-5,-6,-1,-3,2,0,-3
1512354418099839,-1,2,1,-2,-1,1,-4,-1
1512354418099839,-1,2,4,3,2,3,-2,-1
1512354418115839,-3,-5,-6,-1,-1,-2,-2,-1
1512354418115839,0,0,-2,-2,1,1,1,0
1512354418115839,0,-3,-5,-3,-2,2,-2,-3
1512354418115839,-1,-1,1,3,0,-2,-1,0
1512354418129839,0,1,6,3,0,1,4,-1
1512354418129839,2,-1,3,3,-2,-1,0,0
1512354418136839,-3,-1,-5,-1,-1,2,0,-2
1512354418136839,0,-1,-2,-1,-2,-3,-1,3
1512354418151839,-2,-2,-2,0,2,1,1,-2
1512354418151839,-4,-2,-4,-2,-4,-3,1,-2
1512354418159839,2,0,6,3,1,-6,0,1
1512354418159839,1,-1,0,2,1,-1,2,-1
1512354418175839,0,-1,-1,0,0,1,-2,1
1512354418175839,-3,-5,-8,-7,0,5,-2,1
1512354418175839,1,-1,-2,-1,-2,1,-2,-2
1512354418175839,0,1,2,0,-2,-1,3,0
1512354418189839,0,1,4,0,4,2,3,-2
1512354418189839,-1,-3,3,3,0,-4,-4,1
1512354418196839,-1,3,-1,-3,1,2,0,-3
1512354418196839,-2,-2,0,1,-2,1,-2,-1
1512354418211839,0,1,-4,-3,-2,-3,-2,-2
1512354418211839,-1,-2,3,1,-1,4,1,-1
1512354418219839,0,0,0,1,-3,-1,2,2
1512354418219839,-5,-2,-7,-4,-3,1,-2,-4
1512354418235839,-2,-1,2,3,1,1,-1,0
1512354418235839,-3,-1,-3,-5,-4,-2,2,-1
1512354418235839,1,-1,2,0,-1,1,-5,2
1512354418235839,-2,0,0,-2,-1,2,1,-4
1512354418249839,-4,-3,-4,-2,-4,0,-1,1
1512354418249839,2,1,-3,2,2,-1,1,-2
1512354418256839,3,0,0,0,-2,-1,-2,0
1512354418256839,1,0,3,1,1,2,0,0
1512354418271839,1,-1,-2,0,-3,-5,-3,-2
1512354418271839,-3,-3,-5,1,-3,-2,-2,0
1512354418279839,-1,-1,2,-1,0,2,0,-1
1512354418279839,2,-1,-1,-6,-2,-6,-1,-2
1512354418295839,2,0,0,0,1,1,0,1
1512354418295839,-1,3,1,-2,-1,-4,1,-2
1512354418295839,-2,0,-3,1,-2,-4,-2,-1
1512354418295839,1,0,2,3,-2,3,-2,0
1512354418309839,-4,-3,6,-1,1,0,1,0
1512354418309839,0,-1,-3,-1,-1,-2,-2,0
1512354418316839,-2,-1,-6,-4,-2,0,1,-2
1512354418316839,-1,-2,-1,-1,1,-3,2,0
1512354418331839,3,2,-1,-2,-1,-2,-2,-2
1512354418331839,-2,-2,-3,-4,-2,1,-2,1
1512354418339839,0,2,2,0,-3,1,-1,0
1512354418339839,1,1,-2,1,1,-2,0,1
1512354418355839,-1,-4,-4,-2,-3,-3,1,0
1512354418355839,4,2,4,1,2,1,1,-3
1512354418355839,0,-2,-1,-2,1,4,3,-3
1512354418355839,2,2,0,0,-4,-2,-2,-3
1512354418369839,0,2,2,-1,-2,0,-4,-1
1512354418369839,-1,-3,2,0,-2,-2,-3,-1
1512354418376839,-1,-1,-10,-1,1,-4,-1,0
1512354418376839,-4,-2,0,-2,-1,2,-2,-1
1512354418391839,0,0,0,-3,-1,2,3,0
1512354418391839,-3,-1,0,4,-4,-6,1,-2
1512354418399839,0,-3,3,1,0,3,2,2
1512354418399839,-1,0,-4,-4,-2,-6,0,-2
1512354418415839,0,-3,0,0,1,0,-4,1
1512354418415839,1,0,-1,-4,-1,0,2,0
1512354418415839,0,2,6,2,5,-1,-2,-2
1512354418415839,-1,-4,-2,-4,-1,2,0,0
1512354418429839,-1,1,-3,-2,0,0,-1,-1
1512354418429839,-3,1,-6,0,5,3,0,-2
1512354418436839,3,-4,-4,-2,-4,-5,3,-1
1512354418436839,-1,-1,2,3,-2,0,1,0
1512354418451839,-1,2,0,0,2,2,-2,-2
1512354418451839,-2,0,-2,-3,-3,-1,-4,2
1512354418459839,2,0,-3,-2,0,1,-1,-2
1512354418459839,0,-3,1,0,2,4,-3,-1
1512354418474839,-1,1,2,1,-4,-4,2,-1
1512354418474839,2,-2,-1,-1,-1,-4,-1,-1
1512354418475839,-2,1,-6,-4,-3,-2,-3,-3
1512354418475839,0,2,0,-1,-4,1,0,-1
1512354418497839,-1,0,2,1,3,-3,1,0
1512354418497839,2,-2,2,1,0,0,2,1
1512354418498839,-3,-1,2,0,-1,-2,-1,-3
1512354418498839,0,-1,-6,-4,1,1,2,0
1512354418511839,2,-1,0,0,-5,1,1,-1
1512354418511839,-1,3,6,-2,0,-1,-3,-1
1512354418519839,1,-1,-2,-4,0,-5,-4,2
1512354418519839,0,0,-6,-2,-1,2,1,2
1512354418534839,-1,0,0,-3,1,1,1,0
1512354418534839,1,-1,-5,-1,-3,0,1,-2
1512354418542839,-3,-1,4,6,-2,1,-1,-1
1512354418542839,0,-1,-1,-2,-1,-3,-2,0
1512354418549839,3,0,0,4,2,0,0,-1
1512354418549839,-2,-6,-3,0,1,-3,-2,2
1512354418556839,-1,1,3,-3,0,1,-1,2
1512354418556839,0,-4,-9,-5,-2,-2,0,-4
1512354418571839,-1,0,-2,-3,-1,-3,0,-1
1512354418571839,-1,1,6,4,-4,4,-1,-3
1512354418579839,-2,0,0,1,2,0,1,4
1512354418579839,-1,-1,2,-1,2,-5,-3,3
1512354418594839,-2,-2,-5,-2,2,3,2,-3
1512354418594839,-1,3,4,0,-6,-3,-1,-3
1512354418602839,0,1,1,-2,0,-2,0,-1
1512354418602839,-4,-2,-6,-1,-2,2,1,-2
1512354418609839,0,0,-4,0,-2,0,-1,0
1512354418609839,-1,2,-2,-1,3,5,1,1
1512354418616839,-2,-3,2,3,-1,-2,1,0
1512354418616839,1,3,0,2,1,0,0,-1
1512354418631839,1,-4,-3,1,0,4,-1,0
1512354418631839,3,0,0,1,1,2,2,-1
1512354418639839,-2,0,2,0,1,1,-2,0
1512354418639839,-6,-4,-3,-4,-1,-1,1,-1
1512354418654839,3,-1,-1,-4,-4,-2,-1,1
1512354418654839,-1,-3,-3,-2,-5,-2,1,-1
1512354418662839,0,1,0,-2,-4,0,-5,-2
1512354418662839,0,1,5,4,0,-2,0,1
1512354418669839,0,-1,-4,-1,0,-2,0,0
1512354418669839,-1,-4,-2,-2,0,1,2,-1
1512354418676839,2,0,2,-2,-1,-2,0,-1
1512354418676839,2,-1,2,0,3,2,-1,1
1512354418691839,-1,-2,-4,-5,-2,0,-2,0
1512354418691839,0,1,0,2,-1,0,-2,0
1512354418699839,0,-2,-2,0,0,0,1,-1
1512354418699839,1,1,4,2,1,2,1,1
1512354418714839,-2,-2,0,-2,-2,-1,-3,-3
1512354418714839,0,2,-4,-4,3,1,-1,-1
1512354418722839,-2,1,1,2,-7,-4,-1,-1
1512354418722839,2,2,1,0,-2,-3,-2,0
1512354418737839,0,-2,0,3,-1,-1,-3,-2
1512354418737839,-3,-1,0,-2,-5,4,-2,1
1512354418738839,-3,-3,-5,-3,-3,-2,2,-1
1512354418738839,0,1,4,1,2,1,2,-1
1512354418751839,1,1,-2,-1,-3,-3,0,1
1512354418751839,-1,-6,-4,-4,2,1,0,-1
1512354418759839,-2,0,4,-1,2,0,-1,-1
1512354418759839,-2,-2,-2,0,-5,-2,0,-4
1512354418775839,-2,-3,1,-2,4,1,2,1
1512354418775839,-1,0,1,4,3,-2,0,1
1512354418782839,2,-2,2,-2,-2,2,0,-2
1512354418782839,-1,-3,2,-1,-1,2,-2,-1
1512354418797839,-3,0,-7,-5,-4,-1,2,-3
1512354418797839,1,-2,2,-1,1,-3,0,0
1512354418798839,0,2,-1,2,-3,-1,0,-1
1512354418798839,1,-3,1,-2,-2,-3,-1,1
1512354418811839,1,-3,3,4,0,-1,1,0
1512354418811839,1,1,-6,-2,0,-4,1,0
1512354418819839,-1,-3,-4,-3,0,-3,-1,1
1512354418819839,-2,-2,-2,0,0,1,0,-1
1512354418834839,-4,0,4,0,0,1,-5,-1
1512354418834839,-3,0,-3,-1,0,2,-2,-1
1512354418842839,1,0,1,-5,-3,3,0,1
1512354418842839,-3,-3,-2,3,4,-1,-3,-3
1512354418857839,1,-1,0,-2,1,0,2,0
1512354418857839,-2,-1,-1,3,-1,-1,-3,2
1512354418858839,1,0,0,2,3,4,2,0
1512354418858839,-2,-1,0,-1,-2,1,-1,1
1512354418871839,2,2,0,-2,-1,-1,0,-3
1512354418871839,1,-1,1,-2,-1,-1,-8,-1
1512354418879839,-2,-6,-8,-3,-2,-1,-2,0
1512354418879839,0,3,1,-2,0,-3,-1,0
1512354418894839,2,0,3,0,0,0,0,-2
1512354418894839,0,2,2,-1,-2,-1,2,-3
1512354418901839,-4,-2,-1,-1,1,1,5,-3
1512354418901839,2,-2,0,2,0,-3,-2,0
1512354418917839,1,0,-1,-3,0,-4,-1,3
1512354418917839,1,1,2,2,-2,-2,0,-2
1512354418918839,-1,-1,7,2,-4,-1,-2,2
1512354418918839,0,-1,-3,-3,-1,4,2,-4
1512354418931839,1,-1,-8,-3,2,1,-1,-1
1512354418931839,-1,-4,5,1,1,-1,2,1
1512354418939839,1,0,-3,0,0,2,-3,1
1512354418939839,1,-1,-3,3,2,-2,-1,-1
1512354418954839,-3,-4,3,0,-4,-1,-2,0
1512354418954839,2,5,0,-4,-2,4,2,1
1512354418961839,2,-4,-1,-1,1,-2,-6,-3
1512354418961839,0,0,-3,-5,-2,-1,-1,-2
1512354418977839,-4,-2,-5,-1,-2,2,0,0
1512354418977839,1,0,0,2,-3,-5,0,0
1512354418978839,-1,0,1,-1,0,1,2,0
1512354418978839,-1,0,1,1,-2,-5,-4,1
1512354418991839,-2,1,0,1,-2,-1,1,0
1512354418991839,1,-2,-3,-5,0,-2,-1,-2
1512354418999839,2,3,1,-2,-1,-1,-1,1
1512354418999839,-2,-1,0,-1,-3,-4,0,-3
1512354419014839,0,-1,1,1,5,1,-1,-1
1512354419014839,0,-2,-1,-1,-2,-5,0,-1
1512354419021839,-3,0,5,5,5,3,0,-3
1512354419021839,-1,0,-8,-2,-3,3,2,0
1512354419037839,-1,2,2,-4,-7,-6,-1,0
1512354419037839,0,-1,-3,-1,2,3,-2,-2
1512354419038839,-2,-1,-3,0,-2,1,-1,-2
1512354419038839,-2,-1,-4,-3,0,-1,0,-2
1512354419051839,-3,-3,-2,-3,0,-1,2,-1
1512354419051839,-4,1,2,-1,1,2,1,0
1512354419059839,-2,-2,2,2,-2,-6,1,-3
1512354419059839,2,3,8,2,1,-1,-1,0
1512354419074839,1,-2,-9,-1,-6,0,-6,-3
1512354419074839,1,-3,-2,1,0,-1,-3,-1
1512354419081839,2,-1,-3,-4,0,-1,1,-2
1512354419081839,1,0,4,1,1,3,1,4
1512354419097839,-1,-4,-4,-2,1,-2,2,-2
1512354419097839,-5,0,3,-2,-2,1,0,0
1512354419098839,0,-2,-11,-1,-2,1,4,1
1512354419098839,-1,1,2,-2,-1,1,0,0
1512354419111839,-3,0,3,0,0,0,-3,-2
1512354419111839,-2,-1,1,2,-5,-5,2,-3
1512354419119839,1,-1,1,-1,0,-5,-3,-1
1512354419119839,-3,1,-2,1,-2,2,1,-1
1512354419134839,1,1,0,1,0,0,-4,-1
1512354419134839,-1,0,4,1,-1,-8,-4,0
1512354419141839,-1,-2,-2,-3,7,6,2,0
1512354419141839,0,-4,-4,-3,-4,-6,-4,-1
1512354419157839,1,2,1,2,-3,0,0,1
1512354419157839,-5,0,-1,0,2,5,3,-1
1512354419158839,2,5,4,0,-3,-6,-4,2
1512354419158839,-1,-3,-5,-2,0,0,2,0
1512354419171839,2,1,0,0,1,0,-1,-1
1512354419171839,0,-2,-7,-4,-2,1,-1,0
1512354419179839,-1,-1,-2,-2,1,-1,-2,-3
1512354419179839,2,4,12,2,2,2,0,1
1512354419194839,0,0,0,4,1,-1,-1,-1
1512354419194839,1,-2,-5,-2,1,0,-2,0
1512354419201839,-2,0,-4,-2,-3,-4,0,-1
1512354419201839,-1,-1,-3,-2,-3,-2,-1,-3
1512354419217839,1,2,3,-1,0,2,1,1
1512354419217839,2,0,0,1,-1,2,-1,-2
1512354419218839,2,1,-1,-1,-2,2,3,2
1512354419218839,2,1,1,1,1,2,-2,1
1512354419231839,-2,3,-4,1,0,0,1,0
1512354419231839,-2,-4,-7,-4,-1,3,0,1
1512354419239839,2,1,3,-1,-2,-3,0,-3
1512354419239839,-1,-3,1,1,0,2,0,-1
1512354419254839,-2,-1,2,-2,0,-1,0,0
1512354419254839,0,1,1,0,0,0,-2,1
1512354419261839,0,2,4,0,-1,0,-3,-1
1512354419261839,-3,-2,-7,-2,-1,0,2,-2
1512354419277839,-2,-1,-6,0,-1,4,-1,1
1512354419277839,-3,-2,0,-3,-4,-2,-2,0
1512354419278839,1,-2,3,-4,1,5,2,1
1512354419278839,2,-1,4,-2,-1,-4,1,2
1512354419291839,0,-2,-1,-1,-3,-1,-1,-1
1512354419291839,0,-1,-3,0,-1,2,1,0
1512354419299839,-3,-2,-2,0,-2,2,-2,-3
1512354419299839,1,1,0,1,0,0,-1,-1
1512354419314839,-2,1,-4,0,1,-2,2,1
1512354419314839,0,-1,-1,-3,0,-1,-4,1
1512354419321839,1,-1,-7,0,-2,-1,-1,-2
1512354419321839,-1,-3,0,2,-1,0,-1,-3
1512354419336839,2,-2,0,-3,0,-2,0,-2
1512354419336839,2,3,8,2,-2,-5,0,-1
1512354419344839,-8,-3,-1,-2,1,1,0,3
1512354419344839,-3,-2,-3,-1,0,4,-2,2
1512354419351839,1,-2,-5,-1,-3,-1,3,-1
1512354419351839,-2,1,2,1,-1,-1,0,0
1512354419359839,-1,-3,-6,-2,-2,-2,-1,-1
1512354419359839,-2,0,-5,-6,-5,-1,0,-3
1512354419374839,-6,-2,5,0,6,1,1,-1
1512354419374839,2,-2,2,2,1,1,0,-2
1512354419381839,0,-1,3,1,2,-3,-2,-3
1512354419381839,-4,-2,1,-2,-4,-3,-4,-1
1512354419397839,1,-2,-5,-7,-2,-2,-3,0
1512354419397839,-3,-2,-14,-3,-2,4,0,-3
1512354419398839,-6,2,1,1,1,3,-1,-1
1512354419398839,3,-1,4,2,5,-1,-1,-3
1512354419411839,-3,1,11,1,-3,-1,0,-1
1512354419411839,-2,-5,1,2,2,-1,1,-1
1512354419419839,0,-1,-11,-4,-8,-1,-1,-1
1512354419419839,0,3,2,-1,1,3,0,-2
1512354419434839,-2,0,-2,-1,-2,1,1,-1
1512354419434839,-1,1,0,0,1,-5,-3,0
1512354419441839,1,-2,0,2,-1,-1,-1,-1
1512354419441839,0,-3,0,-1,1,-5,-1,2
1512354419456839,1,0,-1,-1,-1,-3,-3,-1
1512354419456839,-1,1,-1,-5,0,3,2,-2
1512354419464839,-1,-3,-3,-1,1,-5,-2,-4
1512354419464839,-3,0,-2,-1,-2,-1,-1,0
1512354419471839,1,-1,1,-1,-3,2,-1,-1
1512354419471839,1,0,2,0,3,-3,-1,3
1512354419479839,-1,-1,1,0,2,1,3,2
1512354419479839,-1,-2,-6,-4,-6,-1,0,-1
1512354419494839,1,0,-1,0,-2,-4,2,-2
1512354419494839,0,0,4,1,-3,-1,0,-1
1512354419501839,2,-1,-2,0,0,-2,0,0
1512354419501839,0,-1,-2,-3,-5,-3,-2,0
1512354419516839,0,-3,-1,1,4,1,0,1
1512354419516839,-1,1,4,0,-1,6,0,-1
1512354419524839,2,1,-3,0,2,-2,0,0
1512354419524839,-3,0,-4,-3,-2,0,-2,-2
1512354419531839,0,-1,-3,1,-1,0,-2,-2
1512354419531839,-1,-1,-7,-1,0,-3,-4,-3
1512354419539839,0,1,4,-3,-2,-2,-1,-1
1512354419539839,2,2,-1,2,-1,1,-1,-1
1512354419554839,1,-1,1,1,0,0,-3,2
1512354419554839,-1,1,2,3,1,1,-1,1
1512354419561839,-2,-1,4,1,-5,1,0,-2
1512354419561839,1,-2,-5,-5,1,-2,1,1
1512354419576839,-3,-3,-9,-2,-1,2,-2,0
1512354419576839,1,-3,-3,1,0,-2,0,-1
1512354419585839,-2,0,0,1,-2,0,2,0
1512354419585839,0,1,6,-2,-1,-3,-3,-1
1512354419591839,-2,-2,5,0,-1,-4,-1,-1
1512354419591839,0,-1,-4,-2,0,0,2,-2
1512354419607839,1,-4,-2,0,-3,0,-2,-1
1512354419607839,0,-1,5,3,9,2,-1,0
1512354419614839,0,4,-1,1,-4,1,2,0
1512354419614839,0,0,-4,0,2,-4,-1,1
1512354419621839,1,-3,0,-2,-2,0,-1,-3
1512354419621839,2,1,-5,-1,-3,1,-1,-1
1512354419636839,0,-4,-4,-4,1,-3,0,-1
1512354419636839,-1,-2,1,1,2,3,2,-1
1512354419645839,-3,2,2,-1,0,-1,-2,1
1512354419645839,-3,-1,-3,-4,-2,-2,1,-1
1512354419659839,1,1,6,2,0,0,-5,1
1512354419659839,1,-3,-1,-1,-3,-2,0,-1
1512354419660839,1,2,-2,-1,0,1,2,0
1512354419660839,-1,-4,-6,-3,-3,0,-1,-2
1512354419674839,-3,-3,-6,-6,-3,-1,-1,-2
1512354419674839,-2,1,0,-1,-4,-2,-2,-2
1512354419681839,-4,0,5,1,2,3,-2,1
1512354419681839,-1,-1,6,5,-2,-5,2,0
1512354419696839,1,1,-2,-2,2,5,3,-4
1512354419696839,0,-4,0,0,-1,-3,-1,0
1512354419704839,0,-3,-4,0,1,-1,-2,-1
1512354419704839,-4,-4,-6,-2,-1,2,0,1
1512354419719839,2,-2,2,-5,-1,1,-2,-2
1512354419719839,-2,4,6,1,1,2,-1,0
1512354419720839,2,-1,-3,-5,-3,-1,0,1
1512354419720839,-1,-1,-5,-4,1,3,0,-2
1512354419734839,-1,1,-4,2,-3,-2,-2,0
1512354419734839,0,-3,-1,-2,-2,0,0,-2
1512354419741839,2,3,6,4,1,0,0,-1
1512354419741839,0,-1,8,3,1,4,-1,-1
1512354419756839,1,-3,-3,-1,-3,-1,-3,-1
1512354419756839,-5,-1,-9,-4,-1,-2,-3,-1
1512354419764839,0,0,-5,-3,2,-1,1,0
1512354419764839,3,1,6,4,0,-1,1,-1
1512354419779839,-1,3,1,0,-2,-3,0,2
1512354419779839,-2,-2,-4,0,0,0,-1,-1
1512354419780839,-1,-3,-5,-6,-8,-4,1,0
1512354419780839,-3,2,1,3,1,0,-3,0
1512354419794839,1,-3,6,2,-2,-1,2,-1
1512354419794839,3,1,3,-2,-3,1,-4,-2
1512354419801839,-1,1,-2,0,0,0,0,0
1512354419801839,1,2,-4,0,0,1,3,1
1512354419816839,-3,0,0,-1,0,-3,-1,1
1512354419816839,-2,-2,0,-1,-1,-2,2,-1
1512354419824839,-2,2,0,-3,2,5,-1,1
1512354419824839,0,-4,-8,-2,-4,1,-3,-2
1512354419839839,0,-4,0,-1,1,0,1,-3
1512354419839839,-2,-1,0,1,1,0,0,2
1512354419840839,-1,1,4,2,1,2,-2,-3
1512354419840839,-4,0,0,-2,0,-1,-1,-3
1512354419854839,2,-1,-1,-1,0,-1,1,-1
1512354419854839,0,0,-7,-2,2,2,1,-1
1512354419861839,-1,-2,-3,1,-1,-3,-3,0
1512354419861839,1,2,0,-1,-1,2,0,1
1512354419876839,-3,-2,4,2,5,2,1,-1
1512354419876839,2,-1,0,-1,-4,2,1,-1
1512354419884839,-1,1,1,3,-2,-3,0,-1
1512354419884839,0,-1,2,-2,-5,-4,0,-3
1512354419899839,-6,0,-5,-1,6,4,1,2
1512354419899839,2,-4,-8,-4,0,-1,-1,3
1512354419900839,0,1,1,3,2,-3,0,-1
1512354419900839,2,-4,2,-4,-1,-2,1,-1
1512354419914839,0,3,2,-1,-5,-1,-3,-5
1512354419914839,1,1,1,0,-1,-1,-2,-1
1512354419921839,-5,-5,-3,-5,-3,-1,-3,1
1512354419921839,0,2,1,2,-1,-1,-3,-1
1512354419936839,1,-1,-1,-2,0,4,2,0
1512354419936839,-1,2,7,3,-1,-2,-1,-1
1512354419944839,2,1,5,-1,4,3,1,-2
1512354419944839,3,2,-11,-3,-1,-2,-1,1
1512354419959839,-6,-3,-9,0,-6,-2,-3,1
1512354419959839,-2,-3,-10,-9,-4,0,1,-3
1512354419960839,2,0,-9,-6,-1,4,3,0
1512354419960839,-6,-2,5,2,2,-1,2,2
1512354419974839,5,5,10,3,0,-3,-2,-1
1512354419974839,1,2,10,3,0,3,-2,0
1512354419981839,-4,-2,2,2,-1,-3,0,-1
1512354419981839,0,-2,0,-1,3,6,0,-2
1512354419996839,1,0,-2,-1,-1,-1,1,-1
1512354419996839,0,-1,-4,-1,0,-1,0,-1
1512354420004839,1,1,-3,-4,-2,-2,-3,-1
1512354420004839,-3,0,-4,-1,-2,-5,0,0
1512354420019839,-2,-1,1,2,-3,-4,-1,0
1512354420019839,0,-2,-3,-4,5,3,-1,1
1512354420020839,0,0,0,1,1,0,0,-1
1512354420020839,2,1,2,5,2,1,2,0
1512354420034839,-1,-1,-1,-5,-3,-1,-5,1
1512354420034839,1,-2,-2,-2,-5,-4,1,-2
1512354420041839,0,-2,2,2,-1,1,0,0
1512354420041839,3,-1,-1,-7,-2,0,-2,0
1512354420056839,-2,-1,-2,-2,2,0,0,-2
1512354420056839,-2,-2,-6,-3,0,-4,0,0
1512354420064839,-1,0,1,-1,1,-2,-5,1
1512354420064839,1,1,3,0,-4,1,0,0
1512354420079839,-2,-3,-3,-2,0,-1,0,-2
1512354420079839,-2,0,-2,3,1,2,2,-2
1512354420080839,1,2,9,2,-7,-3,3,-2
1512354420080839,-3,0,-4,1,2,3,0,-2
1512354420094839,0,-7,-15,-10,-1,1,-1,0
1512354420094839,-4,-2,-2,0,-4,-7,0,1
1512354420101839,2,0,1,-1,1,5,0,1
1512354420101839,-3,-1,5,5,5,0,2,-1
1512354420116839,1,2,9,5,-1,1,0,-1
1512354420116839,-1,-2,2,-3,-3,-7,-2,-2
1512354420124839,-1,1,-6,-1,3,-1,-1,1
1512354420124839,-2,-1,0,-2,-1,-2,-1,0
1512354420139839,1,2,1,0,-1,3,-1,0
1512354420139839,1,2,4,3,1,0,-2,1
1512354420140839,-1,-2,4,-1,-5,0,2,-1
1512354420140839,2,0,8,3,5,-3,3,0
1512354420154839,-4,0,0,-3,-5,-1,-4,-1
1512354420154839,-1,-2,-15,-7,-5,4,-2,0
1512354420161839,-2,-5,-19,-10,-3,1,-5,-1
1512354420161839,0,-1,-11,-5,-5,0,-2,-1
1512354420176839,3,4,19,8,3,-2,6,1
1512354420176839,1,3,19,9,1,2,0,-2
1512354420184839,-2,0,-2,-2,-2,2,0,1
1512354420184839,-1,-3,-10,-4,-5,0,-3,-2
1512354420199839,-2,-3,-4,-5,-2,-4,0,1
1512354420199839,0,-1,-4,-2,-1,-1,1,-2
1512354420200839,0,0,1,1,1,3,4,0
1512354420200839,-1,0,4,0,-3,-4,-2,-2
1512354420214839,3,1,-1,1,2,-1,-2,0
1512354420214839,-1,-1,2,1,0,1,1,2
1512354420221839,-3,-1,3,0,-2,0,-3,-2
1512354420221839,-5,-4,-11,-7,2,-2,2,-2
1512354420236839,-1,-3,-14,-6,0,5,0,-1
1512354420236839,1,1,-1,-3,-2,-3,-1,-2
1512354420244839,3,-1,1,0,-2,-4,0,-1
1512354420244839,1,3,1,-1,-2,4,0,2
1512354420259839,-3,0,5,6,-2,-1,1,1
1512354420259839,-2,-2,2,1,1,1,0,-2
1512354420260839,-5,-3,-8,-4,0,-1,2,2
1512354420260839,2,-1,0,-5,-4,1,-1,-4
1512354420274839,0,0,-6,3,5,-2,0,3
1512354420274839,1,-2,1,2,0,0,-3,0
1512354420281839,0,0,6,3,-2,-3,-4,-3
1512354420281839,-1,0,-2,1,2,-1,1,2
1512354420296839,0,1,0,-1,-3,0,-4,-2
1512354420296839,-2,3,0,-3,-1,5,-1,1
1512354420304839,0,0,-6,-2,-4,-7,1,0
1512354420304839,0,-3,-1,3,-1,-2,0,-2
1512354420319839,1,1,2,-3,-2,-1,2,0
1512354420319839,1,2,-2,-2,2,0,-1,-2
1512354420320839,-3,-1,-3,-1,-3,-2,2,-3
1512354420320839,-3,-1,4,0,3,4,-3,0
1512354420334839,-2,0,-3,-2,-3,-1,0,0
1512354420334839,0,-1,-2,-3,3,-2,-1,0
1512354420341839,0,0,3,3,3,3,3,0
1512354420341839,-1,-3,-1,0,-3,-2,-5,0
1512354420365839,-1,2,-2,-2,-2,-1,2,-2
1512354420365839,0,-1,-2,-2,-4,-1,0,3
1512354420366839,-1,0,-1,0,-2,1,1,1
1512354420366839,0,-4,-2,-2,-1,-6,-4,-3
1512354420379839,-2,-3,-2,-2,-3,2,0,-2
1512354420379839,0,0,0,-1,6,-2,-2,0
1512354420380839,2,-1,-1,0,2,0,0,0
1512354420380839,-1,-2,-1,-1,-2,2,-1,0
1512354420394839,2,-3,2,2,-3,-3,-1,1
1512354420394839,-5,1,0,-1,-4,0,0,-2
1512354420401839,-1,-2,-2,-2,-2,-6,-2,-1
1512354420401839,-2,3,1,3,5,1,0,1
1512354420416839,0,-4,-2,-3,-1,2,-1,0
1512354420416839,0,-2,0,-1,-2,-3,1,-1
1512354420424839,0,1,-1,2,0,-2,-1,-2
1512354420424839,-1,3,3,0,-2,-3,0,1
1512354420439839,0,-3,-1,-4,1,-4,1,0
1512354420439839,1,-2,-2,0,-2,-2,1,-3
1512354420447839,1,-3,-4,-3,0,2,0,3
1512354420447839,-3,1,0,-1,-2,-1,1,-2
1512354420454839,-3,3,1,0,0,0,-1,0
1512354420454839,-2,0,0,0,0,1,0,-2
1512354420461839,0,1,1,-3,0,1,-4,-3
1512354420461839,-1,-3,-2,4,0,4,0,1
1512354420476839,-2,-2,-2,-2,1,1,3,-1
1512354420476839,0,-1,-1,-1,-4,3,-1,1
1512354420484839,-1,0,0,-1,3,-5,-2,-4
1512354420484839,0,-2,-3,-6,-3,-2,1,2
1512354420499839,-1,-1,0,1,-3,0,-4,-2
1512354420499839,-1,-2,0,-3,-1,6,2,1
1512354420507839,0,-3,0,0,0,1,1,0
1512354420507839,0,-1,-1,-2,-2,3,0,-1
1512354420514839,-2,-1,-1,-1,1,-1,-1,-1
1512354420514839,2,1,-1,0,-4,-8,0,-1
1512354420521839,0,-1,-1,-2,-2,-12,-3,0
1512354420521839,-2,-2,-1,-1,-3,-17,2,-4
1512354420536839,-3,6,0,0,0,-27,-4,-2
1512354420536839,1,-3,-1,-2,4,-18,-4,-3
1512354420544839,-3,-3,-3,-2,-1,-11,1,-1
1512354420544839,2,0,-3,-1,-1,27,-2,1
1512354420559839,-2,-1,-2,-2,0,39,-3,-1
1512354420559839,-1,-2,2,4,2,42,3,-1
1512354420567839,-2,1,0,0,-2,26,-1,0
1512354420567839,-2,-1,1,3,0,15,-5,-3
1512354420574839,2,-2,-3,-1,-2,24,2,-2
1512354420574839,0,2,-4,-1,-3,4,0,1
1512354420581839,3,-1,-2,-3,-6,-12,0,-2
1512354420581839,-1,-3,-1,-1,-1,-16,2,0
1512354420596839,0,-1,0,-1,1,-21,-3,-3
1512354420596839,1,-1,1,-1,1,-10,-3,-1
1512354420604839,-1,0,2,0,1,1,2,-1
1512354420604839,2,-1,0,-2,-1,-5,-2,-1
1512354420619839,-1,1,-3,-1,-2,-11,0,-1
1512354420619839,-4,-2,-2,1,0,-6,-2,-1
1512354420627839,2,0,-2,2,1,0,-3,-1
1512354420627839,-1,1,-3,-3,-2,-6,-2,-2
1512354420642839,0,-3,2,-3,2,0,-3,0
1512354420642839,1,1,-2,0,-5,-2,5,-3
1512354420643839,-2,0,1,0,-1,4,1,-1
1512354420643839,-1,2,-2,-1,-1,-4,-2,-1
1512354420656839,-2,-6,-2,-1,4,-4,2,2
1512354420656839,-1,0,1,-1,-1,-4,-7,-1
1512354420664839,0,-2,0,-2,1,-1,-2,0
1512354420664839,3,4,0,0,1,0,3,1
1512354420679839,-1,2,1,0,-4,-1,-3,0
1512354420679839,-1,-3,-1,1,3,0,1,2
1512354420687839,-1,-3,2,-1,-2,-1,-1,1
1512354420687839,0,-1,-3,1,-1,-3,-1,-3
1512354420702839,0,-2,-1,1,-1,-2,0,-2
1512354420702839,-1,-1,1,-1,-3,-7,0,3
1512354420703839,-2,-2,-4,-1,1,2,-1,-2
1512354420703839,-2,-2,-1,-4,2,1,2,0
1512354420718839,1,1,2,1,-1,-4,-3,-3
1512354420718839,-3,1,-2,-1,-2,-2,1,-3
1512354420724839,-2,-2,1,1,2,6,-2,-1
1512354420724839,3,0,0,-4,-2,-3,-2,3
1512354420739839,1,-1,-3,-1,-1,0,3,0
1512354420739839,-1,0,1,-2,-1,-1,-1,-3
1512354420747839,0,3,0,1,1,-2,1,4
1512354420747839,-2,0,0,-2,-3,1,-3,-1
1512354420762839,1,-1,-1,-1,1,1,-2,0
1512354420762839,0,-1,0,-3,0,-2,-1,-1
1512354420763839,1,1,-4,-4,-1,-1,0,-1
1512354420763839,-1,-1,0,0,-2,-1,0,-1
1512354420776839,-3,0,-2,-1,0,0,2,0
1512354420776839,1,-1,-9,-2,0,1,-2,2
1512354420784839,-1,1,2,-2,-2,-1,1,-2
1512354420784839,-1,-1,1,4,3,2,-1,0
1512354420799839,0,0,1,-3,0,2,2,4
1512354420799839,-2,1,-3,-3,-4,-2,-3,-2
1512354420807839,-1,3,1,2,1,-1,-1,0
1512354420807839,-3,1,3,2,-3,-1,-4,-2
1512354420822839,-2,-2,1,3,0,-4,4,2
1512354420822839,1,-1,-2,-1,1,3,-2,-2
1512354420823839,-2,-3,-6,-7,-5,-2,1,-1
1512354420823839,-1,-1,-3,0,1,0,0,0
1512354420836839,-2,4,1,1,1,0,-3,-3
1512354420836839,-1,0,4,0,-2,1,1,1
1512354420844839,-1,0,0,2,-2,-1,-3,-1
1512354420844839,2,-1,0,-3,1,2,3,-2
1512354420859839,0,1,-2,0,-1,-4,-2,-2
1512354420859839,-2,-2,0,-1,0,0,-1,0
1512354420867839,1,1,1,2,1,2,-3,-1
1512354420867839,-2,0,-8,-9,-2,-2,0,-2
1512354420882839,-3,-4,-12,-8,-1,-2,2,-1
1512354420882839,1,4,8,7,2,2,3,-1
1512354420883839,0,0,-3,-1,-2,-1,-4,1
1512354420883839,0,-1,-2,0,1,0,1,-2
1512354420896839,-1,-5,-8,-4,-3,2,-3,-4
1512354420896839,-1,-2,-3,-5,1,0,-2,1
1512354420904839,-2,-4,4,1,1,0,2,1
1512354420904839,1,1,4,4,1,-3,0,0
1512354420919839,1,0,4,2,-1,0,-2,-1
1512354420919839,-2,-4,1,0,-3,-2,2,-2
1512354420927839,-1,-1,1,2,0,2,0,0
1512354420927839,0,-2,0,-2,-1,0,-4,3
1512354420942839,2,1,2,0,-2,2,-1,-2
1512354420942839,-2,0,-3,1,0,-1,-5,-3
1512354420943839,-3,2,-3,-3,0,-4,0,-2
1512354420943839,0,-1,3,1,-1,0,-1,-2
1512354420956839,0,-1,2,5,2,-1,3,0
1512354420956839,1,-2,-6,-7,-2,-2,2,-2
1512354420964839,1,-1,-6,1,-1,-2,-2,-1
1512354420964839,0,3,2,2,-1,4,-1,-1
1512354420979839,0,1,8,2,-4,-1,-2,0
1512354420979839,-1,-2,-3,0,4,6,-1,0
1512354420994839,1,-1,4,1,-2,-1,-1,0
1512354420994839,-2,-3,-1,3,-1,-1,6,3
1512354421002839,-2,-1,-11,-10,0,1,-1,0
1512354421002839,-2,-2,-5,-3,0,-1,-3,-3
1512354421003839,0,-1,-5,-7,-1,1,2,2
1512354421003839,-3,-2,3,1,-2,-5,-3,-2
1512354421016839,-1,0,7,4,1,0,-2,-3
1512354421016839,1,-1,-3,-3,0,-2,-1,0
1512354421024839,1,1,2,4,2,2,0,-2
1512354421024839,0,3,-2,0,-1,-2,1,1
1512354421039839,-1,1,-4,-1,-2,0,3,1
1512354421039839,-1,0,0,0,-1,-2,-3,-1
1512354421047839,-1,0,-5,-2,-5,-3,0,0
1512354421047839,-1,0,-2,-4,1,-3,-3,0
1512354421062839,1,0,-1,-6,-4,3,-1,2
1512354421062839,2,3,1,4,3,-5,3,-3
1512354421063839,3,-1,6,1,2,-1,-3,1
1512354421063839,-3,-4,-4,-2,-1,-2,2,-3
1512354421076839,4,3,9,8,1,1,-5,-1
1512354421076839,-7,-6,-12,-6,-4,-3,1,-1
1512354421084839,-2,-3,-12,-7,-2,-2,8,1
1512354421084839,-3,-4,-16,-17,-3,-1,-2,-3
1512354421099839,0,1,-2,-2,6,-3,1,-2
1512354421099839,3,9,22,9,-3,0,1,2
1512354421107839,-1,-4,11,17,5,1,-2,-1
1512354421107839,2,2,-2,-3,1,0,-2,1
1512354421122839,-4,-3,-5,-3,-3,0,-3,1
1512354421122839,0,0,2,-1,-1,0,-5,-1
1512354421123839,-4,-1,-2,-3,-2,0,0,0
1512354421123839,0,0,7,6,-2,0,0,4
1512354421136839,-1,3,-3,-1,1,0,0,1
1512354421136839,2,-1,-1,-3,-1,-3,1,3
1512354421144839,-1,0,5,1,1,1,-1,-4
1512354421144839,0,0,0,0,-1,-3,1,-2
1512354421159839,-3,-2,-9,-8,0,8,2,-3
1512354421159839,-3,-3,-7,-1,-2,-1,4,-3
1512354421167839,-2,0,-2,-6,-2,5,-1,-3
1512354421167839,2,2,7,3,-3,-10,-6,0
1512354421182839,-4,-3,15,17,3,-4,-4,0
1512354421182839,2,0,1,1,-3,0,-1,-1
1512354421183839,0,-2,-23,-21,-3,4,-1,-3
1512354421183839,-2,-3,-11,-10,-2,4,-1,0
1512354421196839,3,1,5,-5,1,-1,-1,0
1512354421196839,0,2,22,18,2,0,-1,0
1512354421204839,-3,-6,-11,-7,-3,-2,-1,0
1512354421204839,0,2,-2,-1,-1,4,2,-1
1512354421219839,-1,0,-9,-3,-5,-3,0,-1
1512354421219839,1,1,-7,-11,0,6,-1,-2
1512354421227839,1,1,9,4,2,2,0,-2
1512354421227839,2,-2,2,3,4,3,1,-3
1512354421242839,4,-4,5,5,5,-2,-1,1
1512354421242839,-2,-3,-2,-1,-1,4,-1,-3
1512354421243839,-2,-1,-11,-8,-7,-3,0,-1
1512354421243839,-1,0,-1,-2,-2,-2,1,-2
1512354421256839,0,-3,1,7,1,-3,0,2
1512354421256839,2,3,4,-1,-4,2,0,2
1512354421264839,-2,-4,-8,-5,1,-2,0,-2
1512354421264839,1,0,-3,-3,0,0,2,0
1512354421288839,-2,3,-2,-7,-6,-1,1,-5
1512354421288839,0,-2,2,4,0,-3,-2,2
1512354421288839,1,0,2,4,0,-1,-4,2
1512354421288839,-3,-3,-2,-3,-5,-1,-3,-3
1512354421302839,2,2,-3,-3,0,3,4,1
1512354421302839,2,-1,-3,-4,1,-2,-2,-1
1512354421303839,-2,0,10,6,1,0,0,-2
1512354421303839,-1,-1,-3,1,3,6,-4,1
1512354421316839,0,2,0,-3,-3,0,-1,-1
1512354421316839,-3,-1,-6,-3,0,1,1,2
1512354421324839,0,-1,4,1,-2,-2,-2,-2
1512354421324839,-1,-2,2,3,1,0,2,1
1512354421339839,1,1,-2,-3,1,-1,-1,1
1512354421339839,3,1,0,4,4,0,2,2
1512354421347839,2,2,4,2,-1,2,0,-1
1512354421347839,-3,-4,-15,-15,-4,-2,-2,0
1512354421361839,-1,1,1,0,-4,3,0,-2
1512354421361839,-1,-3,-1,-2,0,-2,-2,-1
1512354421369839,0,1,3,1,0,-4,-1,1
1512354421369839,-1,2,3,4,1,8,2,-3
1512354421376839,-3,-4,3,1,-2,-8,-3,-2
1512354421376839,-2,3,1,-1,-1,-5,-1,0
1512354421384839,0,2,9,3,-3,0,-3,0
1512354421384839,-1,-5,-12,0,1,-3,-4,-1
1512354421401839,1,-7,-11,-5,-3,-3,-2,0
1512354421401839,-2,4,2,0,-1,-1,0,0
1512354421407839,1,2,-1,-2,3,2,-6,-4
1512354421407839,0,3,11,8,-1,-2,0,0
1512354421421839,-1,-1,1,4,-1,3,-2,-1
1512354421421839,-5,-2,0,4,0,0,-2,-1
1512354421429839,1,3,2,-4,-1,1,1,-1
1512354421429839,0,-3,-13,-12,-2,2,0,4
1512354421436839,-2,0,-4,4,0,0,3,3
1512354421436839,-1,-3,-14,-15,-7,-3,-1,0
1512354421444839,2,0,-7,3,-1,-4,-1,-1
1512354421444839,1,6,16,4,-2,1,-1,-1
1512354421459839,-2,-1,7,3,0,1,-2,-5
1512354421459839,4,0,-11,-11,0,-1,2,-1
1512354421467839,-1,-7,0,4,1,-3,-5,-1
1512354421467839,2,2,9,3,2,1,-2,-3
1512354421481839,1,-3,0,-1,4,-1,4,1
1512354421481839,1,1,8,8,-3,1,2,-2
1512354421489839,0,0,-3,-4,1,-2,0,1
1512354421489839,-2,-1,-1,2,-2,-4,-2,0
1512354421496839,1,3,1,-1,-3,3,-2,1
1512354421496839,0,-3,-4,-1,-2,0,-4,0
1512354421504839,0,-4,-2,-5,0,2,3,3
1512354421504839,-1,0,-5,0,1,-1,3,2
1512354421519839,-1,1,-3,-2,1,2,6,0
1512354421519839,-2,-4,3,1,0,-3,-2,0
1512354421527839,1,-2,-7,0,-2,-1,0,0
1512354421527839,-1,1,9,-2,2,1,0,-3
1512354421541839,-6,-2,-6,-5,-2,2,-2,0
1512354421541839,3,-2,-11,-3,3,-1,0,0
1512354421549839,4,0,0,0,1,-3,2,0
1512354421549839,-2,-4,-5,-3,-3,-3,0,-1
1512354421564839,-1,0,5,-3,1,0,-3,-1
1512354421564839,-2,0,4,1,-2,1,0,-3
1512354421565839,0,3,-1,-2,1,2,4,3
1512354421565839,3,-2,-3,2,-2,-2,2,-1
1512354421579839,-1,1,3,1,-1,-4,1,0
1512354421579839,-2,-3,-2,-1,2,-1,-2,-2
1512354421587839,-3,-3,-2,-3,-4,0,-1,-2
1512354421587839,0,3,1,-4,1,-3,0,-1
1512354421601839,0,-1,-2,1,3,2,-1,-1
1512354421601839,0,-4,-3,-1,0,3,0,0
1512354421609839,-3,1,4,3,-1,2,3,-1
1512354421609839,0,0,1,4,-1,2,0,-1
1512354421624839,-1,-2,-5,-2,-3,1,-5,-3
1512354421624839,-7,-2,-14,-11,-7,-4,2,-2
1512354421625839,2,-2,1,5,4,2,-2,2
1512354421625839,-2,1,5,3,-2,-1,-5,-2
1512354421639839,0,-3,0,-3,-2,1,-2,-3
1512354421639839,0,2,5,1,-2,0,-2,-1
1512354421647839,-2,-2,-6,-3,-1,-3,2,-2
1512354421647839,-3,-3,-5,-1,2,1,-4,-2
1512354421661839,-1,-5,-8,0,0,-6,-1,0
1512354421661839,1,0,6,1,0,-2,0,-1
1512354421669839,-2,3,7,1,1,1,1,0
1512354421669839,0,0,2,1,-1,0,-5,-5
1512354421684839,1,-4,-11,-10,-7,-3,-2,2
1512354421684839,0,-2,-4,-3,2,-1,0,0
1512354421685839,-1,1,0,0,-1,-3,-1,-2
1512354421685839,6,0,5,2,-1,-3,0,1
1512354421699839,-1,3,9,7,2,-6,0,1
1512354421699839,-1,-2,3,-1,-2,1,2,-1
1512354421707839,0,0,-8,-4,-4,-4,-4,0
1512354421707839,-2,-2,-5,-2,-2,5,3,3
1512354421721839,-2,-2,-3,-4,-2,-2,-1,-2
1512354421721839,1,0,2,3,-1,3,2,-1
1512354421729839,0,-2,7,3,3,-3,-1,-2
1512354421729839,1,-3,1,-1,-1,1,-1,-3
1512354421744839,0,-3,-9,-6,-2,-1,-2,-3
1512354421744839,1,2,-4,-1,2,-5,-1,0
1512354421745839,-5,-4,-2,-2,-2,2,-3,0
1512354421745839,0,-3,-1,0,2,2,6,1
1512354421759839,2,4,6,-1,-2,1,2,1
1512354421759839,0,-1,2,3,2,0,-2,-2
1512354421767839,-1,0,0,1,0,-1,0,-1
1512354421767839,-2,-2,-1,-1,3,0,-3,0
1512354421781839,1,-2,-3,0,2,-1,-1,-2
1512354421781839,-3,-4,-7,-3,-1,-1,-2,3
1512354421789839,2,-1,-1,-2,-3,1,3,0
1512354421789839,-1,1,3,4,-1,-3,-1,1
1512354421804839,-1,4,5,3,-2,3,5,-3
1512354421804839,-1,-2,0,1,3,-2,1,0
1512354421805839,1,-2,-1,-3,1,1,-2,-2
1512354421805839,-5,0,-1,-2,-2,-4,1,0
1512354421819839,2,-2,-5,2,-3,-1,-3,3
1512354421819839,0,3,1,2,-1,3,-1,-2
1512354421827839,0,0,4,0,0,-1,2,0
1512354421827839,1,-1,-6,-5,-1,1,-1,0
1512354421841839,0,-3,6,1,1,2,-2,-2
1512354421841839,-1,-2,-6,-3,-3,1,0,2
1512354421849839,-2,-1,-13,-5,-3,-2,1,-2
1512354421849839,2,-1,0,-1,-1,2,0,1
1512354421864839,0,1,6,1,0,2,1,-1
1512354421864839,-1,2,10,4,5,3,0,1
1512354421865839,-1,0,1,1,-6,-5,-2,-3
1512354421865839,-1,0,-3,3,2,-3,-1,1
1512354421879839,-1,1,-3,-5,3,7,-2,1
1512354421879839,1,-2,-1,1,-4,1,-2,-3
1512354421887839,-1,-2,-1,0,0,1,-1,1
1512354421887839,-3,-1,-1,1,1,-1,1,-2
1512354421901839,-1,1,0,-1,-3,-1,-3,0
1512354421901839,-1,0,-4,-4,1,-2,-1,-2
1512354421909839,-3,-1,-1,-4,-2,1,-3,-3
1512354421909839,2,-1,6,0,0,-2,-1,-1
1512354421924839,0,-2,-4,3,2,-2,3,-1
1512354421924839,-1,0,3,-2,-1,1,-1,1
1512354421925839,2,-1,1,-7,-6,-2,0,0
1512354421925839,-1,1,-7,0,4,1,0,-3
1512354421939839,0,-1,-7,-10,-2,-4,-2,-3
1512354421939839,-1,4,5,4,-1,1,2,-2
1512354421947839,0,-1,7,7,3,3,2,1
1512354421947839,-3,-3,2,-1,-1,-2,1,0
1512354421961839,0,1,1,0,0,0,2,1
1512354421961839,0,-3,-2,-1,-4,-4,-7,-1
1512354421969839,1,-2,-4,0,2,1,-3,0
1512354421969839,0,-1,-5,-2,-2,-2,1,-1
1512354421984839,-1,1,3,3,-2,-8,-1,-4
1512354421984839,-1,-3,-4,-4,1,2,3,3
1512354421985839,-3,0,0,1,-2,2,1,-1
1512354421985839,1,0,-2,0,-2,0,-4,-1
1512354421999839,0,-2,-2,-2,-3,-1,-1,1
1512354421999839,-2,-1,5,-1,-1,-1,1,-1
1512354422007839,0,0,-1,1,2,-3,1,-1
1512354422007839,1,-1,-4,-3,0,1,-1,0
1512354422021839,-4,-4,4,0,-1,1,1,0
1512354422021839,-3,0,-3,2,-2,0,1,2
1512354422029839,-1,-1,2,-2,1,-1,1,1
1512354422029839,2,-1,4,-2,-1,0,-3,-3
1512354422044839,-1,0,-11,-3,-3,3,0,0
1512354422044839,0,-1,-3,-2,-3,-7,-2,-2
1512354422045839,1,4,6,2,3,3,-3,-1
1512354422045839,-1,-2,-1,-1,-1,-1,-2,0
1512354422059839,0,-2,2,1,0,-1,0,-2
1512354422059839,1,-2,-5,-4,-1,-3,-1,-1
1512354422067839,-2,-2,-6,0,-1,0,-4,0
1512354422067839,-1,1,-1,0,-3,-2,-1,-3
1512354422081839,-1,1,11,2,1,-1,1,-1
1512354422081839,-3,-5,-11,3,1,0,-1,-3
1512354422089839,0,3,-1,-6,-6,-1,-1,1
1512354422089839,-1,-3,-10,-6,-2,1,-1,-2
1512354422104839,0,-1,-4,0,0,6,2,2
1512354422104839,-2,1,9,3,0,-1,-2,-1
1512354422105839,1,1,1,0,2,-1,-3,-2
1512354422105839,-1,-1,6,3,-1,-1,-3,3
1512354422119839,0,2,-1,-2,1,-3,0,1
1512354422119839,2,-1,1,-1,-3,2,3,-2
1512354422127839,0,0,-6,1,-1,0,0,-2
1512354422127839,-2,1,1,-1,-1,1,1,0
1512354422141839,1,-1,-1,-1,-1,-1,0,-2
1512354422141839,-4,-1,2,0,-1,0,-3,0
1512354422150839,0,0,-3,-3,0,2,1,0
1512354422150839,0,-1,0,-2,-4,-6,0,-2
1512354422164839,-1,-3,-7,-4,-1,0,-1,-1
1512354422164839,1,1,-1,4,2,-1,0,1
1512354422173839,-3,-2,0,2,0,-4,-1,-1
1512354422173839,-1,2,4,0,0,3,-3,-2
1512354422179839,0,-1,8,0,0,-4,-2,1
1512354422179839,4,-1,-13,-8,-1,5,-2,-1
1512354422188839,0,-4,-7,-2,-1,-2,0,-2
1512354422188839,-2,2,0,1,4,4,4,0
1512354422201839,0,0,0,3,-5,-11,-2,-1
1512354422201839,-2,-1,8,-1,-1,1,-1,-2
1512354422210839,-1,-3,-2,3,0,-3,2,1
1512354422210839,0,-2,-1,0,1,2,0,0
1512354422224839,0,0,3,2,1,6,-1,1
1512354422224839,-2,0,3,0,0,-1,1,1
1512354422233839,-4,-1,0,-6,-3,-2,-3,-3
1512354422233839,0,-3,-6,-3,-3,-1,-3,0
1512354422239839,-1,-4,-9,-6,-1,1,-1,-1
1512354422239839,0,-1,-2,-2,0,-2,-2,0
1512354422248839,-1,3,8,2,0,1,1,0
1512354422248839,0,1,6,3,0,-1,2,-1
1512354422261839,-3,1,0,0,-3,1,-6,0
1512354422261839,1,1,0,-1,-1,-2,-2,-1
1512354422270839,0,3,6,3,0,1,0,0
1512354422270839,-1,-4,-9,-3,-1,-2,1,-2
1512354422284839,-2,-4,-12,-2,0,2,-1,-3
1512354422284839,-3,-1,-8,-6,-1,-5,-1,-1
1512354422293839,-1,-1,5,0,-1,0,-3,2
1512354422293839,0,-1,3,-1,-2,0,2,1
1512354422299839,-1,3,12,3,0,-2,1,-1
1512354422299839,0,-2,-2,4,7,2,1,-3
1512354422308839,3,-2,-11,-9,-5,-5,-4,-4
1512354422308839,0,0,-3,-3,-2,-4,0,0
1512354422321839,0,-2,-1,-2,0,1,0,-1
1512354422321839,2,0,9,3,1,-1,0,0
1512354422330839,-3,-2,-2,2,-1,-1,-1,1
1512354422330839,-1,-3,-10,-9,-2,-2,-2,-2
1512354422344839,-3,0,-7,-1,-2,1,1,-3
1512354422344839,-1,0,1,1,-2,-4,-1,-1
1512354422353839,0,-1,2,-1,2,-1,-1,-2
1512354422353839,-1,3,11,4,0,1,0,0
1512354422368839,-2,-3,-1,-1,2,3,1,2
1512354422368839,-2,-1,-1,-2,-3,-1,0,-1
1512354422369839,-2,-1,-6,2,0,1,-2,-2
1512354422369839,-1,0,-1,2,-1,-3,-3,1
1512354422381839,-1,1,5,0,1,1,0,-2
1512354422381839,-1,-3,-4,-2,-3,1,1,-2
1512354422390839,0,-4,-7,-6,-2,-2,1,1
1512354422390839,-3,-1,-6,0,3,3,-1,-1
1512354422404839,-1,-2,8,3,0,0,-1,-1
1512354422404839,-1,-4,2,-6,-4,0,-2,-4
1512354422413839,-1,-1,-2,-2,-1,-1,0,-1
1512354422413839,-2,-1,-2,0,2,4,1,3
1512354422419839,4,0,-5,1,0,-1,0,1
1512354422419839,1,2,2,2,1,-3,0,1
1512354422428839,-1,-2,1,-1,-1,4,2,0
1512354422428839,0,0,6,0,-2,-2,2,-1
1512354422441839,3,3,0,1,0,-5,-5,0
1512354422441839,-1,1,-2,0,2,1,-1,0
1512354422450839,-4,-4,-4,-7,-2,-4,-2,-2
1512354422450839,-1,-2,-11,-1,1,2,-1,-1
1512354422464839,1,0,-1,-5,-6,1,1,-3
1512354422464839,0,2,6,7,3,-2,-4,0
1512354422473839,-2,1,3,2,0,0,4,-2
1512354422473839,-1,-3,-2,-3,-2,0,-2,-1
1512354422487839,-2,-1,-4,-4,1,-3,0,0
1512354422487839,-2,0,3,2,-2,3,0,0
1512354422489839,0,1,-1,-2,1,-3,0,-1
1512354422489839,0,-3,-4,-3,-2,-5,-1,-4
1512354422501839,-2,-1,-6,0,2,0,0,-1
1512354422501839,-2,1,3,2,-3,0,-1,0
1512354422510839,3,-2,-3,3,1,2,0,0
1512354422510839,-2,2,2,-5,-5,-2,2,-4
1512354422524839,0,1,5,0,2,-1,0,-1
1512354422524839,0,0,-4,3,2,-3,-1,-1
1512354422533839,-1,-1,-2,3,-1,-1,0,-1
1512354422533839,2,-1,-3,-4,4,-1,-2,-1
1512354422547839,-3,-2,1,-3,-4,-1,-1,1
1512354422547839,-1,-1,1,-5,-4,1,-1,1
1512354422549839,-3,1,2,2,-1,-2,-1,0
1512354422549839,1,-1,2,1,-1,2,1,-1
1512354422561839,-1,-1,0,-4,-2,-1,-1,1
1512354422561839,2,-1,-6,-3,-2,-2,2,-2
1512354422570839,-1,1,2,1,-3,-2,-2,1
1512354422570839,-1,-2,0,2,1,1,0,-2
1512354422584839,0,1,-5,-5,0,-2,1,1
1512354422584839,-2,-1,-8,-2,-2,-2,-2,-1
1512354422593839,1,-1,-2,-4,-2,1,-4,-1
1512354422593839,1,6,13,8,2,-3,-1,2
1512354422607839,0,-1,0,2,3,3,0,-1
1512354422607839,-1,0,-1,-5,-5,-1,1,-1
1512354422609839,2,-2,-5,-3,0,2,1,1
1512354422609839,-2,0,0,1,0,-1,-3,-2
1512354422621839,-2,0,3,-3,-1,-2,0,-1
1512354422621839,-2,2,-1,-1,1,0,0,-1
1512354422630839,0,3,2,2,0,0,-1,0
1512354422630839,-2,-1,-1,2,-4,0,0,0
1512354422644839,0,-4,-4,-6,-2,-2,0,-1
1512354422644839,-2,0,-2,-7,-1,1,-1,-2
1512354422659839,-3,3,0,-1,0,0,-1,-2
1512354422659839,3,-2,-2,-1,0,-3,-4,0
1512354422667839,-3,-1,-1,4,4,-1,-2,-2
1512354422667839,1,-3,-3,-1,-1,-2,1,-4
1512354422669839,2,-2,0,-3,-1,1,1,-1
1512354422669839,-1,0,-2,-2,-3,-1,-1,-1
1512354422681839,3,1,0,0,2,1,0,2
1512354422681839,0,-1,-1,2,-4,3,-1,-1
1512354422690839,1,-3,2,4,3,-1,0,-2
1512354422690839,-2,-1,3,0,1,-6,3,1
1512354422704839,-4,-1,-1,1,-2,3,-3,-4
1512354422704839,0,0,2,2,2,2,-1,3
1512354422713839,1,0,-2,-3,-1,-1,-1,0
1512354422713839,2,-3,-3,-6,-4,3,-1,-1
1512354422728839,0,-4,-9,0,-1,1,-1,-1
1512354422728839,-2,-2,-6,-2,-3,-2,3,-2
1512354422729839,-5,-4,2,-3,0,3,0,-2
1512354422729839,-1,0,5,4,3,-1,-2,1
1512354422741839,1,4,8,1,-1,1,2,-1
1512354422741839,-1,-4,1,4,-1,0,-3,2
1512354422750839,0,-3,-1,4,0,-3,2,3
1512354422750839,-2,0,-2,-1,1,3,0,-1
1512354422764839,-3,-1,-2,-6,-3,-1,0,-1
1512354422764839,0,1,0,3,1,1,-3,-1
1512354422773839,0,1,3,0,-1,-2,-4,0
1512354422773839,1,-2,-4,-1,-1,5,1,-2
1512354422787839,-4,-3,-8,-1,-4,1,-6,0
1512354422787839,-5,-1,1,-3,-1,0,3,2
1512354422789839,0,1,8,3,2,1,-1,-1
1512354422789839,-2,-1,-8,-5,-3,1,0,2
1512354422801839,-1,-1,-2,-4,0,0,4,-3
1512354422801839,1,-2,-4,-4,-2,1,4,-2
1512354422810839,-2,1,6,-1,-4,-1,0,-2
1512354422810839,0,-1,1,6,2,0,-1,-3
1512354422824839,0,-2,-1,0,0,-1,-2,-2
1512354422824839,-1,-3,-7,-5,-2,-2,-2,-1
1512354422833839,-1,-2,-3,-3,0,0,0,0
1512354422833839,-3,1,2,-2,-2,1,-1,-3
1512354422848839,0,1,8,2,-2,-3,-1,-2
1512354422848839,0,0,6,6,2,0,-2,-1
1512354422849839,-2,-1,-7,-4,-1,-1,2,1
1512354422849839,-3,0,-9,-8,-2,-1,0,-1
1512354422861839,-1,-2,-3,-1,1,-4,3,1
1512354422861839,-1,3,8,2,6,0,-2,-1
1512354422870839,1,-1,-3,1,-5,1,-3,-2
1512354422870839,-2,2,5,3,0,-1,1,1
1512354422884839,0,-1,-2,3,1,0,-2,0
1512354422884839,2,-1,-4,-3,1,1,1,0
1512354422893839,0,-1,0,-3,0,1,-1,0
1512354422893839,1,3,1,-1,-1,-1,0,-1
1512354422907839,-2,-2,5,1,-2,2,0,0
1512354422907839,2,-1,-3,-2,-1,-1,-1,-1
1512354422909839,0,-1,-6,-3,-2,-4,0,-2
1512354422909839,-3,-3,-1,-1,-1,-4,-4,2
1512354422921839,2,3,-5,-7,0,1,1,-1
1512354422921839,-2,0,4,3,-2,-3,-4,-1
1512354422938839,0,1,2,5,-1,1,6,-2
1512354422938839,1,-1,0,4,2,3,-4,-2
1512354422944839,3,-3,-4,-4,-3,-2,0,3
1512354422944839,-2,-4,-15,-9,-4,2,2,-3
1512354422953839,0,-1,-3,-4,1,-3,-4,0
1512354422953839,0,-1,8,5,2,-1,-2,-2
1512354422968839,-2,0,2,-1,-1,-2,-2,-1
1512354422968839,-2,2,5,0,3,-4,-2,0
1512354422969839,0,0,-5,-3,-1,1,-1,0
1512354422969839,2,-4,-1,-3,0,-3,3,2
1512354422981839,-2,1,-2,4,2,1,1,0
1512354422981839,1,-1,-2,0,-1,1,0,0
1512354422990839,-4,-2,-3,1,-2,3,-1,0
1512354422990839,1,0,-5,-4,0,-2,0,0
1512354423004839,0,2,2,1,0,2,-2,0
1512354423004839,1,1,5,1,-1,-2,2,2
1512354423013839,1,-1,1,0,-1,-1,-4,-1
1512354423013839,1,3,-1,-1,-1,0,2,-3
1512354423027839,-2,0,-2,0,-3,-1,0,-2
1512354423027839,0,1,3,-1,-1,-2,-4,1
1512354423029839,-2,-1,-6,-6,-2,-1,0,-3
1512354423029839,1,0,-5,-3,0,0,1,-1
1512354423041839,1,0,-3,2,2,2,-1,-4
1512354423041839,0,-3,3,-3,-3,-1,-3,-3
1512354423050839,1,-1,0,-2,0,2,0,1
1512354423050839,1,-1,1,-3,-2,-2,1,1
1512354423064839,1,0,4,3,-3,4,0,0
1512354423064839,-2,0,4,-1,0,-4,-2,-1
1512354423073839,-2,-1,6,2,-1,-1,-3,-4
1512354423073839,-1,-1,-13,-8,-2,-2,0,-1
1512354423088839,0,-4,-9,-2,2,0,-4,-1
1512354423088839,2,0,-1,1,-2,0,3,0
1512354423089839,0,2,5,3,2,-2,0,-1
1512354423089839,-2,1,7,4,-2,0,-4,-3
1512354423101839,-3,-2,1,-5,-1,0,1,0
1512354423101839,-4,2,-11,-4,5,7,-1,0
1512354423110839,2,2,2,1,2,1,0,-1
1512354423110839,-1,-4,0,-3,-1,-2,1,1
1512354423124839,-2,-3,-7,-2,-1,-4,1,-1
1512354423124839,-2,-1,-6,2,-1,0,3,2
1512354423133839,-1,0,3,0,-3,-1,-3,1
1512354423133839,-3,-1,-1,0,0,-5,-3,-1
1512354423147839,0,1,1,-2,-1,7,2,-1
1512354423147839,-1,-3,1,0,-1,1,1,1
1512354423149839,-4,-4,-5,1,0,-3,-1,1
1512354423149839,0,-2,4,1,-3,0,-3,-1
1512354423161839,-1,-1,4,1,-1,2,-2,-1
1512354423161839,-3,-3,-3,-4,-4,2,-1,-1
1512354423170839,-2,1,1,0,-1,0,-1,-2
1512354423170839,-2,-3,-8,2,1,2,-2,0
1512354423184839,-2,1,7,1,1,-1,-1,0
1512354423184839,0,2,3,0,0,-3,-2,-3
1512354423193839,-4,-2,-2,0,-3,0,0,-1
1512354423193839,0,-4,-17,-9,-4,3,0,0
1512354423207839,0,-3,-6,-3,-4,-2,2,2
1512354423207839,3,0,-1,-3,-3,-3,-3,-3
1512354423209839,-1,0,5,4,1,-3,-2,1
1512354423209839,-1,2,5,3,-3,3,-2,0
1512354423221839,-1,-1,-1,0,0,-2,-1,-3
1512354423221839,-1,-4,-1,-1,1,-1,-2,-1
1512354423230839,-1,0,0,-4,1,2,0,0
1512354423230839,0,-1,-2,-2,2,0,-2,-3
1512354423243839,-1,-1,-1,-2,-7,-4,1,1
1512354423243839,-1,-2,0,-1,1,-1,-2,0
1512354423253839,2,-3,-3,2,1,-2,0,0
1512354423253839,3,4,2,2,-2,-2,3,-2
1512354423267839,-1,-2,1,-4,-2,-5,-4,0
1512354423267839,0,-3,-9,-1,-4,0,1,-2
1512354423274839,1,-1,-4,-4,-2,0,-1,-1
1512354423274839,0,2,14,6,1,1,-1,1
1512354423281839,0,2,4,5,3,-3,-1,-1
1512354423281839,-4,-1,-3,-7,-2,0,-1,3
1512354423290839,0,-5,-16,-7,-1,3,1,-4
1512354423290839,0,-2,2,-2,0,0,4,1
1512354423303839,1,2,10,9,2,-2,-2,-2
1512354423303839,0,1,5,-2,-1,1,-3,2
1512354423313839,2,0,-6,-7,-1,-1,-2,1
1512354423313839,-2,-1,-7,-3,-3,0,-1,-2
1512354423327839,-1,-3,2,-2,-2,0,-2,-1
1512354423327839,0,0,-2,4,3,-1,1,0
1512354423333839,3,4,6,3,-3,-2,1,2
1512354423333839,-1,1,1,0,1,-4,0,-3
1512354423341839,-1,0,-6,-4,-2,5,0,-2
1512354423341839,1,1,-2,0,0,-5,0,-3
1512354423350839,1,-1,-4,-6,-5,0,-2,-1
1512354423350839,0,-1,3,-1,0,-1,1,0
1512354423364839,-1,-1,-3,1,-1,3,1,0
1512354423364839,-1,-2,3,3,1,-2,-2,-2
1512354423373839,0,2,8,3,3,-3,0,2
1512354423373839,-2,-2,-5,-6,-2,-1,-1,-2
1512354423386839,1,-2,-11,-8,1,2,1,2
1512354423386839,-1,-1,1,-2,-3,-2,3,2
1512354423395839,-3,2,-1,-1,2,-4,0,0
1512354423395839,-3,-5,6,2,-1,1,-3,-2
1512354423410839,-2,1,-1,-6,-3,2,1,-2
1512354423410839,-1,-1,-3,0,-2,-1,-3,-2
1512354423411839,0,0,-2,1,1,2,-3,-3
1512354423411839,0,-1,-7,0,-2,2,0,2
1512354423424839,0,1,0,1,1,-2,-3,-2
1512354423424839,2,-2,3,-3,-4,1,0,1
1512354423433839,0,-3,0,4,2,-4,0,0
1512354423433839,-1,0,-2,-4,1,2,0,-2
1512354423447839,-1,0,4,4,0,-4,0,-1
1512354423447839,2,1,5,2,-5,1,0,-1
1512354423454839,-4,0,-9,-5,-3,-4,-3,-1
1512354423454839,-2,-1,0,-4,1,2,-2,0
1512354423470839,-1,-4,-6,-5,-1,-1,3,-1
1512354423470839,1,-1,-1,0,0,3,0,-1
1512354423472839,-2,-1,11,5,0,2,3,-1
1512354423472839,-3,-2,-1,-2,-1,1,-2,1
1512354423484839,1,-2,-3,0,-3,-1,-2,-5
1512354423484839,-4,-3,-9,-7,1,0,0,1
1512354423493839,3,-2,-1,3,1,0,-2,1
1512354423493839,1,0,9,-1,1,1,3,0
1512354423507839,-2,1,-2,3,-1,-1,-4,-1
1512354423507839,1,-4,0,1,-2,-1,2,-2
1512354423513839,-2,1,-9,-6,-4,4,0,-2
1512354423513839,-1,-1,-6,0,2,-5,-1,2
1512354423530839,-2,-1,-2,-3,1,0,1,1
1512354423530839,0,2,4,3,2,0,0,1
1512354423531839,-1,-2,6,0,0,0,0,-1
1512354423531839,-2,1,1,3,-1,-2,-2,0
1512354423544839,0,-2,-1,-1,-3,-1,3,-1
1512354423544839,-3,-2,-5,1,0,-1,-3,1
1512354423553839,-1,-1,-9,-9,-2,1,-1,-3
1512354423553839,1,-1,-6,-6,-3,3,0,0
1512354423567839,0,0,5,2,3,-1,-6,-2
1512354423567839,1,-1,10,0,-1,0,-2,0
1512354423574839,-1,2,1,5,2,-2,1,-2
1512354423574839,-1,-4,-5,-1,2,1,0,-3
1512354423590839,-2,1,-12,-8,-2,0,-2,-1
1512354423590839,1,2,-2,-1,-1,-2,-2,-3
1512354423592839,-2,-2,8,1,-1,-1,1,0
1512354423592839,1,1,5,4,-3,-2,-3,0
1512354423604839,-1,0,2,-2,-2,-1,-2,1
1512354423604839,-2,-4,-9,-2,-1,-1,0,-4
1512354423613839,1,-3,-5,0,-4,-2,-1,3
1512354423613839,1,-1,-2,2,-2,0,-2,0
1512354423627839,2,-2,7,4,3,0,3,0
1512354423627839,-4,1,1,-3,-1,-5,-3,-1
1512354423634839,-1,-1,-3,1,0,2,0,-4
1512354423634839,-2,4,2,-6,-2,-2,0,0
1512354423650839,0,-3,-7,-3,-1,2,-4,-1
1512354423650839,-1,3,8,2,-4,-2,-1,-2
1512354423652839,-2,-4,-8,-6,-1,1,-2,-1
1512354423652839,1,0,2,-1,2,-4,0,0
1512354423664839,-3,2,8,6,1,-1,1,1
1512354423664839,-1,-3,-4,-4,1,-1,0,0
1512354423673839,2,0,-1,-3,0,1,-1,-1
1512354423673839,2,0,-7,-4,-4,-2,-2,-5
1512354423687839,2,0,4,1,-3,-4,-2,2
1512354423687839,-3,0,1,0,1,2,0,-1
1512354423694839,0,2,0,4,0,3,1,0
1512354423694839,2,-2,-1,-3,-2,-4,-3,1
1512354423710839,-2,-1,4,0,-2,-1,2,1
1512354423710839,-2,1,-3,1,-1,0,0,0
1512354423712839,-3,-2,0,0,-1,-3,-2,-2
1512354423712839,-2,0,-4,-1,-2,2,-1,-1
1512354423724839,1,-1,-1,-1,-2,0,0,-1
1512354423724839,0,1,4,0,-1,-4,1,0
1512354423733839,-2,1,4,2,0,-1,0,-2
1512354423733839,-1,-1,-4,1,-3,-1,-2,1
1512354423747839,2,-2,-7,-4,1,-1,0,-3
1512354423747839,0,-2,-13,-5,-1,3,0,0
1512354423754839,0,1,5,0,-1,-1,-2,0
1512354423754839,0,0,11,5,1,-2,-1,-1
1512354423770839,0,0,1,-2,-2,-1,0,-4
1512354423770839,-1,-6,-2,-8,-2,3,0,-3
1512354423772839,0,-1,-8,-6,-1,-4,-2,0
1512354423772839,0,-2,-1,0,1,-1,0,-1
1512354423784839,-3,5,5,1,3,-2,-3,0
1512354423784839,1,0,4,3,-1,1,-3,0
1512354423793839,0,-2,-6,-7,-6,-3,-2,-2
1512354423793839,-2,0,-6,-2,-1,-1,3,-1
1512354423807839,1,-3,-2,1,-1,0,-4,0
1512354423807839,2,4,8,5,1,-2,-2,0
1512354423814839,0,3,5,2,1,1,1,-1
1512354423814839,-2,0,3,1,2,-1,-1,-1
1512354423830839,-2,1,1,-4,-3,-2,2,-1
1512354423830839,-1,-2,-9,-4,1,0,-1,-1
1512354423831839,2,-1,-6,-1,0,-1,-1,0
1512354423831839,-1,1,1,-1,0,-3,1,-2
1512354423844839,0,1,5,3,-2,2,-3,2
1512354423844839,-1,-1,-2,1,-2,0,-2,-1
1512354423853839,0,1,9,4,2,-1,1,1
1512354423853839,1,-5,-6,-6,0,2,0,-1
1512354423866839,-1,0,-9,-2,-3,-2,-2,-4
1512354423866839,1,1,-5,1,0,3,2,1
1512354423875839,-3,1,0,0,-1,1,-2,-2
1512354423875839,-1,1,9,2,-2,0,-1,-1
1512354423890839,-1,-2,-7,-6,0,0,2,1
1512354423890839,-4,-1,-2,-2,0,-5,-2,0
1512354423892839,0,0,1,-2,1,2,-2,1
1512354423892839,-1,1,7,4,3,0,-2,0
1512354423904839,-1,-3,-5,-2,0,0,1,-1
1512354423904839,-3,0,-3,-2,-5,0,0,0
1512354423913839,-1,-1,-4,-3,-2,-2,-1,-2
1512354423913839,-1,-2,-2,-2,-4,-2,2,1
1512354423927839,2,-2,1,0,0,0,0,0
1512354423927839,-1,-1,5,2,3,-1,-1,0
1512354423933839,0,-2,-4,-1,-1,-1,1,-1
1512354423933839,1,3,1,0,-1,-2,0,0
1512354423950839,-2,-2,-2,-1,1,2,3,-1
1512354423950839,2,-1,8,-2,-1,-4,-1,0
1512354423951839,-3,-1,-3,-2,-3,-1,-1,0
1512354423951839,-3,-2,-4,-2,0,-1,0,0
1512354423964839,3,-1,0,0,0,-2,-1,-3
1512354423964839,0,-3,-4,-2,-2,3,0,-5
1512354423973839,1,-1,4,0,-2,0,2,0
1512354423973839,0,-2,-7,1,2,1,-5,-1
1512354423987839,1,0,1,-1,-1,2,2,0
1512354423987839,1,0,1,4,-1,-2,-1,0
1512354423994839,-1,-3,-4,-7,-1,-1,-1,-3
1512354423994839,-2,0,0,2,-5,0,4,-3
1512354424010839,-2,-3,-2,-4,1,-4,1,0
1512354424010839,0,0,1,3,1,-1,0,-3
1512354424012839,-3,-2,6,4,-3,0,-1,1
1512354424012839,4,0,-4,-8,-1,-1,-5,1
1512354424023839,-4,-1,-3,-2,-3,-4,-4,2
1512354424023839,0,1,-5,3,-2,-1,-3,1
1512354424033839,1,-1,-3,0,-1,0,-4,1
1512354424033839,-3,-1,-1,-1,1,1,3,-3
1512354424046839,-3,-2,-3,-1,1,2,2,-1
1512354424046839,-2,-1,-1,-6,-1,-5,-3,-1
1512354424055839,2,1,10,5,1,0,1,-1
1512354424055839,-1,3,2,0,0,3,0,0
1512354424070839,1,1,-5,-2,-3,0,0,-1
1512354424070839,-4,-3,-6,-6,1,3,4,-1
1512354424072839,1,0,-2,1,-1,-2,-4,-1
1512354424072839,-1,1,1,1,-1,0,-1,0
1512354424084839,2,3,6,2,-1,4,-2,2
1512354424084839,1,-1,-6,-2,-1,-1,1,0
1512354424093839,-5,0,-3,0,-3,-5,-2,-3
1512354424093839,-1,-1,-1,2,4,3,-3,0
1512354424106839,-2,-1,6,3,-1,0,-3,-1
1512354424106839,0,-1,-6,0,1,1,2,-2
1512354424115839,-1,0,-1,-6,-2,1,0,-2
1512354424115839,-3,-2,-9,-7,-3,-1,-2,-1
1512354424130839,-1,-2,-3,-3,0,-1,0,-1
1512354424130839,0,2,15,2,-2,3,1,-2
1512354424132839,2,-4,0,2,3,1,-3,0
1512354424132839,0,-1,-7,-4,-1,-1,1,0
1512354424144839,0,1,-6,-4,2,2,-3,-2
1512354424144839,0,2,3,3,-3,-4,-3,-2
1512354424153839,-1,3,4,1,4,1,3,4
1512354424153839,-6,-2,-1,0,-6,-1,-1,-1
1512354424166839,1,1,1,1,-1,-4,-4,2
1512354424166839,-1,2,0,-1,1,0,-1,-3
1512354424175839,3,-1,0,0,-1,-1,0,-1
1512354424175839,0,-2,-3,-1,4,-3,-2,1
1512354424189839,-2,-1,6,3,0,2,4,-1
1512354424189839,-3,-1,-7,-4,0,0,0,-1
1512354424196839,1,-2,-6,-3,-4,0,-3,-1
1512354424196839,0,-3,0,0,0,0,2,-1
1512354424204839,-1,3,4,3,1,2,-4,-1
1512354424204839,-2,1,4,3,-4,-4,-2,3
1512354424213839,-1,-3,-9,-10,-2,1,2,-1
1512354424213839,2,-1,-1,0,0,-4,-1,-2
1512354424227839,-1,-2,0,1,1,-2,-3,1
1512354424227839,3,-1,0,1,-1,-1,1,-1
1512354424235839,-2,-1,-4,-3,-2,0,-3,-1
1512354424235839,-2,0,2,3,2,-2,1,0
1512354424249839,-1,0,0,-4,-4,-1,2,-1
1512354424249839,-1,-1,0,0,2,2,1,-2
1512354424256839,0,1,1,1,-3,-2,-2,-1
1512354424256839,-1,-2,3,-2,0,1,0,-2
1512354424264839,1,-2,-3,-4,-1,0,2,-2
1512354424264839,1,0,-3,1,-4,-4,-3,3
1512354424273839,-3,-3,0,3,0,0,1,-1
1512354424273839,-2,0,2,1,-3,-1,-4,4
1512354424286839,-1,-1,-3,2,-3,-3,1,0
1512354424286839,1,1,0,-4,1,2,-2,2
1512354424295839,-2,1,-3,1,2,-2,0,0
1512354424295839,2,2,0,0,0,-4,1,-1
1512354424309839,0,-1,-3,-5,-6,-1,0,0
1512354424309839,0,-3,-7,-1,3,4,-2,-2
1512354424316839,-1,0,-3,-3,-3,0,-1,2
1512354424316839,0,0,1,3,0,2,1,0
1512354424324839,-1,-1,2,-5,-2,-3,-1,0
1512354424324839,-1,2,1,3,1,-4,-3,-2
1512354424333839,-6,-4,3,0,-1,1,-1,-2
1512354424333839,-3,0,-5,-5,-1,0,-2,0
1512354424346839,0,-2,-1,-1,0,2,1,-4
1512354424346839,-2,-2,-2,-11,-2,-1,-3,-2
1512354424355839,2,1,4,2,4,1,1,0
1512354424355839,-1,-2,-1,-2,-3,1,0,0
1512354424369839,-1,0,-1,2,1,-1,-1,-1
1512354424369839,-2,-3,-3,-3,-1,0,0,-2
1512354424376839,-1,0,6,2,-1,-1,2,-1
1512354424376839,-1,-1,4,-1,-3,-1,0,-3
1512354424392839,1,-5,-12,-3,-1,1,0,-1
1512354424392839,1,-2,-3,2,2,0,1,3
1512354424394839,0,-3,-2,-5,0,-1,0,-1
1512354424394839,0,1,3,-2,-1,-2,0,-1
1512354424406839,-5,-1,2,-2,0,2,-3,-1
1512354424406839,-2,0,-4,0,-3,-2,-1,0
1512354424415839,1,0,-3,2,1,-2,-2,0
1512354424415839,0,2,2,1,-1,1,-2,-1
1512354424429839,-3,1,4,-5,-3,-4,-4,-1
1512354424429839,1,-1,-6,-2,0,3,1,1
1512354424436839,-2,-1,-2,2,-2,-4,1,1
1512354424436839,1,0,-3,0,-3,-3,-1,0
1512354424452839,-4,1,9,5,-1,1,1,0
1512354424452839,-2,-2,3,3,0,1,1,-1
1512354424454839,-1,0,-3,-3,-4,1,-3,0
1512354424454839,0,-1,-4,-6,2,-5,0,2
1512354424466839,2,1,-4,-1,-1,-1,-1,-2
1512354424466839,-1,-4,3,-4,0,-5,1,0
1512354424475839,0,-3,4,3,2,3,2,0
1512354424475839,1,-1,-1,4,-2,1,2,-3
1512354424489839,0,0,-7,-4,-1,1,-2,1
1512354424489839,-1,4,-2,-4,-1,1,-1,-4
1512354424496839,-4,0,1,0,0,-3,-2,2
1512354424496839,0,-2,-1,1,-1,1,-1,0
1512354424513839,-1,-3,-5,-1,1,-1,-3,-1
1512354424513839,-2,1,1,-1,-1,-2,-4,-2
1512354424514839,-1,2,-3,-3,1,0,-2,1
1512354424514839,0,2,4,2,2,0,-1,-1
1512354424526839,0,-3,-2,1,3,1,1,0
1512354424526839,4,2,4,-1,-1,-1,-1,-1
1512354424535839,-3,-2,-2,0,0,-1,0,0
1512354424535839,0,-2,-5,1,1,2,-2,0
1512354424549839,1,0,-1,1,2,-7,-1,-1
1512354424549839,-1,-2,-1,-2,-1,-1,1,0
1512354424556839,4,-2,0,-2,-2,0,0,-2
1512354424556839,1,0,1,-3,-1,2,-2,2
1512354424572839,0,-1,-1,-2,-1,0,0,0
1512354424572839,-1,-2,-1,0,0,-2,0,-2
1512354424574839,-2,-1,-4,-3,1,0,-1,-2
1512354424574839,-2,0,-2,-4,-3,-3,1,0
1512354424586839,0,0,6,6,1,5,-1,-1
1512354424586839,-3,-3,0,1,0,2,3,2
1512354424601839,2,-3,-2,-5,-1,-1,-3,1
1512354424601839,3,1,-2,0,-2,-2,-2,0
1512354424609839,-2,-2,1,-2,0,0,-1,-2
1512354424609839,2,0,1,1,-3,1,-1,0
1512354424616839,0,-1,1,2,2,-2,1,-1
1512354424616839,-1,-3,-6,-7,-4,-1,0,0
1512354424632839,-2,2,-1,1,0,-3,1,0
1512354424632839,-1,-1,-1,-3,-2,1,-2,1
1512354424634839,-2,3,1,3,-3,0,1,1
1512354424634839,1,-1,1,0,1,0,2,-1
1512354424646839,1,-1,-4,-3,-3,3,1,0
1512354424646839,-1,-3,-2,-1,-1,0,-3,0
1512354424655839,-2,0,-1,-3,-1,1,0,-5
1512354424655839,1,0,3,0,-5,-6,-3,-3
1512354424669839,-4,-1,-1,-1,-1,0,-2,0
1512354424669839,1,1,-2,-2,2,-3,0,-1
1512354424676839,0,-2,-3,-2,-2,1,-3,0
1512354424676839,-1,1,1,2,0,1,1,-1
1512354424692839,0,1,-2,0,1,-2,0,-2
1512354424692839,0,-4,0,2,-2,1,2,0
1512354424694839,-1,-1,-2,-4,-2,0,2,-1
1512354424694839,-3,1,1,0,3,1,-2,-1
1512354424706839,-4,-2,-2,-1,2,2,-3,1
1512354424706839,-1,0,0,2,2,4,-4,2
1512354424715839,2,0,-1,1,0,2,0,0
1512354424715839,-2,0,0,-1,-3,-2,-2,0
1512354424729839,1,1,0,-3,-2,-3,-3,0
1512354424729839,-1,-2,0,-1,-1,-2,4,-1
1512354424736839,-1,1,-2,0,1,-1,0,0
1512354424736839,-2,-1,-1,-2,2,-4,0,-1
1512354424752839,1,0,1,3,-3,0,0,2
1512354424752839,-1,0,-1,0,-2,1,1,-2
1512354424754839,2,0,0,0,-2,-1,1,0
1512354424754839,-3,-1,-1,-1,3,5,0,-3
1512354424766839,0,1,0,-1,-2,-5,-1,-2
1512354424766839,-1,-1,-1,-3,-2,-1,-4,-2
1512354424775839,-1,-4,0,0,0,1,3,2
1512354424775839,1,-1,-1,0,1,3,-2,0
1512354424789839,1,0,-1,2,1,-4,1,2
1512354424789839,0,-1,0,-4,0,0,-3,0
1512354424796839,0,1,0,0,-3,-3,-3,0
1512354424796839,-3,-1,0,2,-3,2,0,0
1512354424812839,-2,0,2,4,0,0,-2,-3
1512354424812839,-1,0,-1,-2,-2,-3,0,0
1512354424814839,2,3,1,1,2,-2,2,-3
1512354424814839,2,-2,0,-4,-2,0,-1,1
1512354424826839,2,-1,-3,-2,1,3,0,-2
1512354424826839,-1,-2,-1,0,-2,0,-5,1
1512354424835839,-1,0,0,-2,-1,1,-2,-4
1512354424835839,-2,-1,-4,-2,-1,-2,0,-3
1512354424849839,2,1,0,-1,-4,-4,-4,-2
1512354424849839,-1,0,-1,1,4,-1,2,2
1512354424856839,-1,1,-2,-4,0,0,-3,1
1512354424856839,1,1,0,2,4,1,0,0
1512354424880839,-3,-3,0,0,0,-4,-4,0
1512354424880839,2,1,1,0,1,1,-5,-5
1512354424882839,0,-3,-1,-1,-6,0,0,-1
1512354424882839,-2,-2,-1,-4,2,0,-4,-3
1512354424886839,1,-2,0,-2,-2,5,1,2
1512354424886839,-1,-1,1,5,2,4,-3,-1
1512354424895839,-1,-1,-1,-3,0,4,1,1
1512354424895839,-1,-1,0,0,-2,-4,-1,0
1512354424909839,-2,-2,-3,-3,1,3,4,-2
1512354424909839,-2,0,-1,-3,-5,0,-1,1
1512354424916839,0,-1,0,1,1,1,0,-1
1512354424916839,-4,1,-4,-4,-3,0,-1,2
1512354424932839,0,-1,0,-3,-1,-2,-2,-1
1512354424932839,0,-1,-3,-1,-4,-3,3,2
1512354424934839,0,0,-1,2,0,0,-5,-2
1512354424934839,2,-2,1,-1,-5,-4,4,0
1512354424946839,0,1,-1,-3,1,4,-3,-3
1512354424946839,-1,3,-2,-1,-3,-7,-1,0
1512354424955839,-1,-2,-1,-2,-2,0,-1,-1
1512354424955839,-1,0,1,1,1,2,-4,1
1512354424969839,-3,-1,0,0,-3,2,0,-1
1512354424969839,0,-3,-3,-3,-1,-3,2,-1
1512354424976839,-2,-1,-2,0,-1,1,2,-1
1512354424976839,-3,-2,1,2,0,2,0,4
1512354424992839,1,0,1,1,0,0,-1,1
1512354424992839,-3,2,-2,-2,-3,1,0,-1
1512354424994839,-1,-3,-1,1,-2,-9,1,-4
1512354424994839,-2,-1,1,1,1,3,1,-2
1512354425006839,0,1,-3,-3,1,2,1,0
1512354425006839,0,-2,-1,0,1,1,-1,-1
1512354425015839,2,-1,0,0,-1,-1,1,1
1512354425015839,-3,-2,-2,-2,-2,-3,1,-4
1512354425029839,-3,-2,1,-3,2,0,-1,0
1512354425029839,0,-3,1,3,2,3,0,0
1512354425036839,-4,0,-2,0,0,-5,-6,0
1512354425036839,2,0,0,1,-1,1,0,3
1512354425052839,1,-2,-4,-1,-1,-3,-1,0
1512354425052839,3,0,-1,-5,-4,-2,0,0
1512354425054839,-5,-2,-1,-2,-3,-5,1,-2
1512354425054839,0,1,-1,0,0,-3,1,-1
1512354425066839,-1,0,-1,1,-1,1,0,2
1512354425066839,-2,-1,0,-4,-1,-3,0,-2
1512354425075839,3,1,2,0,1,-2,-3,-5
1512354425075839,2,-4,-1,1,0,2,-3,-1
1512354425089839,-1,0,-2,2,3,3,-1,0
1512354425089839,-2,-2,-1,-5,-2,3,2,2
1512354425096839,-2,0,2,-1,-2,4,2,2
1512354425096839,0,1,-2,-3,-2,-2,-2,-1
1512354425112839,0,-2,-2,-2,-4,0,-1,0
1512354425112839,2,1,2,4,1,1,-4,-1
1512354425114839,0,-2,-2,0,0,1,0,-2
1512354425114839,2,-1,-2,-1,-1,3,1,2
1512354425126839,1,-4,-2,0,-4,-10,0,1
1512354425126839,-2,-1,-2,-2,-1,0,-3,-3
1512354425135839,-1,-1,-2,-4,-1,0,1,3
1512354425135839,1,-1,0,-3,-2,-1,-2,-3
1512354425157839,-1,2,5,2,6,0,0,-1
1512354425157839,0,-1,0,1,-2,5,3,0
1512354425159839,-1,1,1,-2,-1,3,-3,-1
1512354425159839,-2,-1,-2,-2,-1,-3,-2,0
1512354425172839,0,-1,-1,-2,-1,-4,-2,-2
1512354425172839,0,-2,0,3,3,2,-1,0
1512354425179839,-3,1,-1,-1,3,-3,-1,0
1512354425179839,-2,2,-1,0,-2,3,0,-3
1512354425195839,-1,1,2,0,-2,1,5,0
1512354425195839,-1,-1,-1,2,1,-4,-1,-2
1512354425196839,0,-3,-3,-1,-2,-1,-2,1
1512354425196839,-1,0,1,-2,3,1,-1,0
1512354425209839,2,-2,2,2,-2,-4,-2,-1
1512354425209839,1,-1,0,0,0,-1,-1,-1
1512354425216839,-1,2,-1,-1,0,5,2,0
1512354425216839,-1,0,0,1,-2,-7,1,-3
1512354425232839,-5,0,-2,-4,-1,1,-2,2
1512354425232839,1,0,-2,-1,-5,-2,-3,0
1512354425239839,3,0,-1,0,-3,1,1,1
1512354425239839,-1,0,0,-1,-2,-5,1,1
1512354425246839,-3,-1,0,-5,-1,-1,1,-2
1512354425246839,0,0,-3,7,1,-12,2,2
1512354425255839,1,2,0,-3,-1,2,-2,0
1512354425255839,0,-2,-3,0,-2,1,0,0
1512354425269839,4,0,-2,-2,-1,1,1,0
1512354425269839,0,0,-1,-2,-3,-1,-1,-1
1512354425276839,1,-3,-2,0,2,-2,1,-1
1512354425276839,0,-1,0,-2,1,-1,-1,1
1512354425292839,-1,-2,1,1,-5,-1,-3,-1
1512354425292839,-3,0,0,-2,0,0,0,-3
1512354425298839,-1,1,2,0,2,4,-2,-1
1512354425298839,-4,-2,0,-1,1,2,-3,1
1512354425306839,2,2,-3,1,-1,4,0,-1
1512354425306839,0,-2,-2,-2,-1,4,3,-1
1512354425315839,0,-1,0,1,0,-7,1,1
1512354425315839,1,-2,1,2,-1,2,-1,0
1512354425329839,-3,-3,-2,-5,-1,-1,1,0
1512354425329839,0,1,-1,1,4,2,2,1
1512354425336839,0,0,0,0,-3,0,1,0
1512354425336839,-1,-1,-2,1,-1,1,0,-1
1512354425352839,2,1,3,2,-2,3,-1,-2
1512354425352839,-1,-1,1,2,-4,-2,-3,-2
1512354425358839,-2,1,-3,-2,-2,-2,-1,0
1512354425358839,2,-2,-6,-3,-1,-2,2,-2
1512354425375839,-2,-2,-3,-2,1,0,2,2
1512354425375839,-3,0,-1,-6,-3,1,-1,-2
1512354425376839,-2,-1,3,3,2,1,-2,-3
1512354425376839,-1,2,4,0,-1,-2,-3,1
1512354425389839,-3,0,0,0,-2,1,-1,-2
1512354425389839,0,1,0,-3,-3,-2,-3,-1
1512354425396839,1,-1,-4,-1,-3,-4,-5,-2
1512354425396839,0,0,1,3,-3,-1,2,0
1512354425412839,0,-1,-4,-2,2,-3,-1,0
1512354425412839,-5,-3,-1,-5,-2,-6,4,0
