timestamp,emg1,emg2,emg3,emg4,emg5,emg6,emg7,emg8
1511884271002438,-1,-1,3,1,-1,-3,4,-3
1511884271002438,2,2,2,3,4,-2,0,5
1511884271009408,3,0,0,1,2,-1,1,2
1511884271009408,-3,3,-1,-5,0,1,2,-6
1511884271016455,2,3,-2,-2,-5,2,-2,3
1511884271016455,0,-3,-1,-2,-4,-1,-1,-9
1511884271025452,0,-3,-3,-1,-3,-6,-8,-5
1511884271025452,4,0,-1,3,-1,-3,0,4
1511884271039609,-2,1,0,1,3,2,-7,1
1511884271039609,-4,-6,0,0,4,0,0,3
1511884271048538,5,1,-1,-3,2,1,-4,1
1511884271048538,2,0,0,-6,1,3,2,7
1511884271062088,-5,-4,-1,0,-2,3,2,-8
1511884271062088,-2,-2,-1,1,-5,0,2,-1
1511884271069134,-2,-5,-2,4,-6,0,5,0
1511884271069134,0,-5,-2,7,-5,0,5,5
1511884271077157,-2,3,-1,6,-3,-3,-2,3
1511884271077157,-4,2,-2,-5,2,-5,-1,3
1511884271086153,-9,-1,-2,-6,5,-6,-4,-8
1511884271086153,5,11,-1,-2,4,2,-2,-1
1511884271099188,7,-8,0,-2,2,3,4,1
1511884271099188,6,-7,0,1,0,2,2,-1
1511884271108211,-1,-1,2,-1,-1,-2,0,1
1511884271108211,-7,-1,0,-4,-2,-1,-7,-3
1511884271122275,-6,1,-3,-7,-2,-2,-8,-3
1511884271122275,7,2,-3,-3,-4,0,-2,5
1511884271129294,-5,1,0,1,2,-2,-3,3
1511884271129294,-1,0,-4,-1,1,-4,-5,-4
1511884271145853,-2,2,-4,-2,-2,-3,-1,0
1511884271145853,1,-4,-5,-1,-1,1,1,8
1511884271147319,-2,-1,-5,3,0,6,5,-1
1511884271147319,-4,-6,-1,6,-3,4,6,-10
1511884271158879,-3,-5,1,3,-2,1,3,-6
1511884271158879,1,1,4,-1,-6,0,-3,-10
1511884271167904,1,-2,4,-1,-5,-3,0,1
1511884271167904,6,0,4,-5,-1,1,-3,5
1511884271181912,0,3,3,-7,-2,2,1,2
1511884271181912,-7,1,1,0,1,-2,-2,-6
1511884271188959,-1,3,-2,0,1,-1,5,8
1511884271188959,-4,-4,-6,-4,-1,-7,-3,-1
1511884271205977,6,-3,-2,3,-1,-4,-1,7
1511884271205977,1,-1,-3,4,2,-2,-3,-2
1511884271206979,5,-1,-3,1,2,-4,0,-3
1511884271206979,-1,-5,-2,3,2,0,2,-1
1511884271219039,4,5,2,-3,1,3,1,1
1511884271219039,-4,3,1,-3,-2,1,-1,-3
1511884271228036,-9,-2,1,-1,-1,2,0,-11
1511884271228036,-2,5,2,-4,1,-2,1,0
1511884271242605,0,-3,-2,-2,-1,3,1,-4
1511884271242605,6,0,-2,-2,-1,6,4,6
1511884271249595,-2,-2,0,-2,1,1,0,-2
1511884271249595,-3,-6,-5,-2,-6,-4,-2,1
1511884271265139,-1,3,-1,1,-3,-8,5,3
1511884271265139,-3,3,2,0,2,-2,0,2
1511884271267145,2,-4,-3,-2,-3,0,-7,-2
1511884271267145,1,-1,3,-5,0,0,0,0
1511884271279176,-9,-14,-7,-5,-3,-7,-8,-13
1511884271279176,6,-2,-3,-1,-2,-9,-3,3
1511884271288201,1,2,0,2,-5,1,-4,-3
1511884271288201,5,0,-2,2,-2,3,-1,0
1511884271302268,-5,0,-3,0,-2,1,5,-1
1511884271302268,1,2,2,-1,3,1,-1,4
1511884271309257,-8,0,1,0,0,2,-3,-2
1511884271309257,-6,-5,-4,4,1,4,-4,-1
1511884271325299,3,9,0,4,1,4,-2,-2
1511884271325299,-4,-4,-5,-5,-3,-1,-2,-11
1511884271327304,12,-2,2,-5,-2,0,4,3
1511884271327304,-3,-13,1,-3,0,-5,4,-4
1511884271339335,-3,-5,-2,-1,5,-4,0,-2
1511884271339335,-3,-4,-2,2,1,0,-3,-3
1511884271348361,2,-2,-1,3,1,0,1,5
1511884271348361,-1,3,-2,0,2,-3,-3,-4
1511884271362408,6,3,0,0,3,-2,-1,5
1511884271362408,-5,4,-1,-3,5,1,5,1
1511884271369427,-8,-1,-5,-3,4,0,3,-2
1511884271369427,0,2,-1,-1,-1,-2,-8,-3
1511884271385472,0,3,1,-1,-4,-3,-3,0
1511884271385472,-4,0,1,1,-6,-3,-8,-6
1511884271387476,2,0,0,-2,-5,-2,1,2
1511884271387476,-2,3,0,1,-8,-1,1,-2
1511884271399508,0,-9,0,1,-7,-3,5,9
1511884271399508,-6,-6,1,0,-4,0,3,-2
1511884271408533,4,-1,-3,-2,3,4,-1,4
1511884271408533,0,4,-4,-2,-2,2,-2,-4
1511884271422598,3,6,0,1,1,5,-3,-1
1511884271422598,-6,-1,-1,2,1,3,2,-7
1511884271429618,2,-2,2,-1,3,-3,1,-2
1511884271429618,-4,-4,1,-5,0,1,6,-2
1511884271445698,6,0,-1,-5,-5,-4,-1,4
1511884271445698,2,-3,-2,-1,-2,-3,-3,1
1511884271447169,1,0,4,0,-1,2,-6,-6
1511884271447169,-2,0,5,2,2,0,-5,1
1511884271458882,-7,5,3,-1,5,1,0,-2
1511884271458882,-3,3,1,-5,0,-3,-1,5
1511884271467910,-7,1,-1,-2,0,-4,2,-5
1511884271467910,4,-4,-7,-2,-1,-4,3,7
1511884271481974,2,-3,-3,-3,1,1,-3,-7
1511884271481974,9,5,1,-4,-4,-1,-5,4
1511884271488962,-6,-9,-6,3,-6,-1,-6,-7
1511884271488962,4,-3,-2,4,-2,4,0,2
1511884271506037,-1,3,-5,2,3,0,-1,-1
1511884271506037,-1,2,-3,0,3,1,2,-2
1511884271507011,4,2,4,-1,-7,2,4,4
1511884271507011,-7,0,2,-1,-9,-3,-1,-6
1511884271519071,-6,-4,2,1,0,-4,3,4
1511884271519071,0,2,0,4,-1,-1,1,0
1511884271528066,5,2,-1,-2,2,1,0,8
1511884271528066,-5,-4,-2,-1,2,-1,-4,2
1511884271542606,-4,-2,5,-6,-2,-4,-10,3
1511884271542606,-8,-8,1,-2,-2,-5,-3,3
1511884271549625,-8,2,1,-2,-3,0,0,-8
1511884271549625,4,4,-2,-4,1,4,7,1
1511884271565170,8,2,-1,2,2,0,3,-2
1511884271565170,3,-9,-8,-2,5,0,-2,-5
1511884271567174,-1,-1,-5,-3,1,2,-1,-7
1511884271567174,3,1,3,-3,-2,4,2,-3
1511884271579233,-3,-5,4,-4,-8,0,2,-3
1511884271579233,-4,3,4,1,-6,0,2,1
1511884271588229,-5,4,-1,3,0,-6,-1,0
1511884271588229,1,1,-3,5,7,-4,1,4
1511884271602268,1,-2,-7,0,2,-3,-2,-1
1511884271602268,4,-5,-2,-2,0,-1,0,2
1511884271609292,-3,-10,-3,-1,2,-2,-4,-6
1511884271609292,-1,4,-1,3,-2,-3,-4,-3
1511884271625359,-3,-1,-7,-1,1,6,0,-5
1511884271625359,1,1,1,-2,4,1,-8,-2
1511884271627336,-2,-3,-1,-6,-1,-1,-6,2
1511884271627336,-3,-3,2,-1,-2,-2,-1,7
1511884271639404,-9,0,2,2,-6,2,2,5
1511884271639404,1,3,1,0,-6,-1,0,-4
1511884271648406,0,3,5,0,-2,-6,2,3
1511884271648406,2,-3,2,0,0,-5,2,7
1511884271662474,7,-1,3,-1,-1,-1,1,7
1511884271662474,-2,0,-1,2,1,1,-1,-1
1511884271669510,3,-4,-3,4,-5,-2,-2,3
1511884271669510,-3,1,-5,-3,-1,-4,-8,-8
1511884271685513,2,-4,-2,-1,1,-1,-7,-5
1511884271685513,2,1,-1,2,-1,3,-1,-2
1511884271687518,1,0,-2,0,2,0,-2,-4
1511884271687518,-4,-1,-1,-2,3,2,3,-3
1511884271699548,0,-1,4,-1,4,-2,-4,-2
1511884271699548,0,1,4,-3,-1,-5,3,1
1511884271708572,0,2,2,-5,-2,0,6,2
1511884271708572,3,3,-2,-1,2,-3,7,3
1511884271722608,-3,2,-4,1,-1,0,-2,2
1511884271722608,-10,0,-3,2,-1,0,-7,-13
1511884271729627,0,2,-4,4,-4,0,0,8
1511884271729627,-4,2,2,2,-5,2,-3,-2
1511884271745675,1,-7,0,-1,-1,4,2,0
1511884271745675,4,-9,-1,-4,0,1,4,0
1511884271747680,0,2,2,-5,-1,-1,-3,-11
1511884271747680,-1,-7,-2,-4,0,-6,-2,-3
1511884271759616,-10,1,-1,-2,-3,-3,3,3
1511884271759616,0,-4,-3,3,-3,0,1,5
1511884271768616,-1,-7,-1,5,2,3,6,3
1511884271768616,-13,-3,2,-1,0,-1,-4,-14
1511884271782653,5,4,-5,-6,-4,1,0,6
1511884271782653,0,4,-3,-4,2,1,-1,8
1511884271789672,3,1,-3,-4,-1,1,-8,-3
1511884271789672,6,-6,0,1,2,0,-4,3
1511884271805715,-4,-1,-1,1,4,-5,-5,-7
1511884271805715,-5,2,-3,-4,-3,-4,-3,-9
1511884271806745,6,-6,-6,-1,4,-2,4,12
1511884271806745,-3,3,-1,-1,5,-1,-1,1
1511884271818777,-5,-2,3,0,0,-5,-3,-8
1511884271818777,-1,0,1,4,0,-3,4,3
1511884271827798,-5,2,0,2,-4,-4,-2,-1
1511884271827798,3,1,0,2,-9,0,-1,0
1511884271842839,2,-4,-4,-2,-2,1,2,0
1511884271842839,-3,-5,-3,-4,-2,4,1,-1
1511884271849360,-3,0,0,-2,4,4,-1,-8
1511884271849360,9,-1,-2,-2,2,2,-1,3
1511884271865795,1,1,1,0,-1,5,3,0
1511884271865795,-2,2,1,2,-1,0,-2,-2
1511884271866797,-6,-2,4,0,-4,-4,0,-5
1511884271866797,-5,-2,3,-2,3,-4,-1,-5
1511884271878849,4,-1,0,1,1,-4,0,3
1511884271878849,-4,-8,-1,-1,-1,-2,-2,0
1511884271887852,-4,1,0,2,-2,-2,0,3
1511884271887852,-1,2,0,-1,-8,3,-5,-5
1511884271902893,-1,-1,0,-5,-4,1,-3,-5
1511884271902893,1,1,0,-4,1,0,1,-3
1511884271908909,7,4,-4,-2,1,0,-1,10
1511884271908909,0,-1,-6,0,4,0,6,2
1511884271924976,-2,0,-2,1,4,-1,-4,-7
1511884271924976,-1,-1,-2,1,3,-1,-1,-1
1511884271931994,0,2,5,-1,0,-1,-2,-1
1511884271931994,2,-10,-4,-1,-4,-3,1,6
1511884271938990,-3,-7,-2,-1,-6,0,1,-2
1511884271938990,0,-5,-1,-3,-1,0,0,1
1511884271948545,0,7,2,-1,1,-1,-8,-8
1511884271948545,1,4,5,1,1,-1,-3,0
1511884271961991,-2,3,-2,2,3,-6,6,2
1511884271961991,-6,-3,-3,-1,-4,-6,-2,-1
1511884271969009,4,-3,-7,0,0,2,4,7
1511884271969009,1,1,-5,-1,-2,0,-3,3
1511884271985075,-6,-5,-2,1,0,-1,1,-6
1511884271985075,-5,5,-12,4,4,2,5,-1
1511884271992071,5,7,-4,4,-2,1,1,3
1511884271992071,-4,-12,-11,-3,-2,5,1,-3
1511884271999089,1,-2,1,-6,-6,2,-6,-2
1511884271999089,3,10,10,-6,-3,3,-3,0
1511884272008113,-11,-10,7,-4,1,-4,-1,-7
1511884272008113,0,-1,5,-2,1,-5,0,1
1511884272022150,1,1,4,-4,1,-2,-4,-1
1511884272022150,-5,-5,1,1,1,1,-3,-3
1511884272029169,1,-3,-5,-1,6,1,-2,7
1511884272029169,7,3,3,1,-2,-3,-2,-1
1511884272045213,5,1,0,5,-1,-3,1,1
1511884272045213,6,-1,1,3,-7,-3,-2,1
1511884272051759,-3,-1,-3,1,-9,3,0,-7
1511884272051759,-3,0,-1,-1,-3,-3,1,4
1511884272059253,-1,0,-1,3,1,-4,-4,9
1511884272059253,-2,-6,-1,2,3,-7,-2,-3
1511884272068276,-3,-1,-2,-4,-1,-3,-2,-2
1511884272068276,-3,2,0,-4,3,2,1,-7
1511884272082313,7,1,1,-4,5,3,3,0
1511884272082313,7,-3,-2,-5,3,1,5,2
1511884272089332,0,-7,-3,-2,-2,-3,-3,-11
1511884272089332,5,9,3,-4,-4,4,-3,0
1511884272105376,-5,0,1,-4,-7,4,2,3
1511884272105376,-4,4,3,1,-2,-2,-7,0
1511884272111392,1,2,2,-3,-5,-2,3,6
1511884272111392,-2,-3,-1,-2,-1,-3,-2,2
1511884272128436,-6,-4,-7,0,4,-3,2,-1
1511884272128436,-1,0,-3,-1,4,-2,4,1
1511884272129440,-10,-16,-2,-1,3,0,4,-1
1511884272129440,-5,2,-1,5,0,0,1,-3
1511884272142501,7,-2,2,4,-2,0,-1,-2
1511884272142501,3,0,1,-1,-2,0,-2,-1
1511884272149551,3,1,2,2,3,-4,-7,-3
1511884272149551,-4,-8,-2,0,0,2,3,8
1511884272165273,-6,2,-3,0,0,-1,-10,-7
1511884272165273,2,3,1,-2,-5,-2,3,4
1511884272171288,-1,-4,-6,-6,-2,-2,5,-3
1511884272171288,5,-2,-3,-3,-6,-2,2,2
1511884272188337,3,5,0,1,-3,2,2,0
1511884272188337,3,3,3,-2,0,4,0,2
1511884272189340,1,7,1,-1,2,6,3,-1
1511884272189340,-4,0,-2,2,0,-2,-8,-7
1511884272202375,-3,1,-5,1,-1,-4,-3,-1
1511884272202375,-4,3,-7,1,-2,-2,-10,-3
1511884272209394,-2,3,-3,1,-4,-1,-2,1
1511884272209394,0,-2,0,0,1,-3,2,4
1511884272225407,6,-2,3,-1,-4,-6,-1,10
1511884272225407,-1,-9,1,-3,0,-2,6,-1
1511884272231449,-2,-13,-1,-2,-2,1,4,2
1511884272231449,-1,12,4,0,1,1,0,-4
1511884272248517,0,-4,0,-2,0,3,2,0
1511884272248517,4,-1,-6,-3,-2,1,5,1
1511884272250022,-2,1,-2,-5,2,3,-13,-16
1511884272250022,-5,1,-5,-6,4,4,-3,-7
1511884272262120,-5,3,-3,2,1,2,-1,-1
1511884272262120,0,0,-2,6,-4,1,1,2
1511884272269144,2,0,0,3,-7,-5,1,2
1511884272269144,2,-6,4,1,-5,-3,3,8
1511884272285190,-3,2,2,-3,2,2,-4,-1
1511884272285190,-1,-1,4,0,2,0,-6,7
1511884272292172,-1,6,4,-2,2,-1,-5,3
1511884272292172,-4,-1,-4,-7,-2,0,-3,-7
1511884272308214,-2,-5,2,-2,-4,-1,3,-7
1511884272308214,5,-6,2,0,-4,0,7,3
1511884272309251,1,4,-1,1,1,-5,0,-9
1511884272309251,2,0,1,3,2,-2,1,2
1511884272322286,-6,-7,-4,5,5,-6,-3,-12
1511884272322286,-3,-3,-3,3,6,-4,-8,0
1511884272329305,1,-7,-2,-1,9,3,3,9
1511884272329305,3,14,1,-4,2,0,2,4
1511884272345374,-1,-9,-5,-6,-10,-3,2,5
1511884272345374,-5,-1,-2,-4,-6,-5,-2,-6
1511884272351891,-2,2,-3,2,-4,0,-1,-2
1511884272351891,12,-5,-7,1,-1,-5,-11,-4
1511884272368052,8,6,7,1,4,4,-1,8
1511884272368052,-12,-2,4,-1,-3,2,-3,-11
1511884272370060,-8,-5,0,1,-4,2,4,4
1511884272370060,-9,-2,3,4,-6,7,2,-7
1511884272382090,1,6,-2,0,-2,3,1,2
1511884272382090,0,-1,-2,-2,0,-3,-1,-7
1511884272389109,1,0,0,-4,0,-5,2,2
1511884272389109,1,-9,-5,1,4,-8,-4,4
1511884272405155,-2,-5,-4,0,-4,-4,-3,0
1511884272405155,-1,2,4,1,0,1,-3,-3
1511884272412173,2,5,6,1,1,3,5,0
1511884272412173,-1,-2,3,-5,-1,3,2,0
1511884272428182,-3,-2,-5,-6,-2,5,-4,-1
1511884272428182,-1,0,-10,-3,-4,2,0,-4
1511884272429215,3,9,-4,0,-4,-5,-7,-2
1511884272429215,-12,-11,-4,1,-3,-5,1,1
1511884272442220,2,1,3,4,4,-6,-2,4
1511884272442220,5,5,7,2,-3,-1,-1,8
1511884272449273,4,-1,2,-1,-3,-1,-1,-4
1511884272449273,-3,1,2,3,2,7,1,-4
1511884272465042,0,-6,-2,-1,3,-2,4,-1
1511884272465042,2,-4,-5,-5,3,-3,-1,7
1511884272472030,1,-3,-5,-8,-3,-3,-4,3
1511884272472030,-1,1,-3,-4,-1,0,4,-2
1511884272488073,-8,0,-1,-3,-5,-2,1,-6
1511884272488073,-3,-3,0,1,2,-3,3,-4
1511884272490078,-2,-6,0,7,1,-3,-3,-7
1511884272490078,1,-4,-3,1,0,-1,0,-3
1511884272502110,1,0,0,0,2,-3,-10,-9
1511884272502110,2,6,0,-2,0,0,-5,-1
1511884272509129,-4,-3,-6,-1,-1,0,1,0
1511884272509129,-5,1,1,-1,-4,-2,-1,-2
1511884272525173,0,-5,3,-4,-3,0,3,-3
1511884272525173,-1,8,3,1,0,2,2,7
1511884272531187,-5,-3,0,3,0,1,-4,1
1511884272531187,1,1,1,-1,0,-2,-2,-4
1511884272548297,9,0,-2,1,-1,-4,-1,6
1511884272548297,-1,-7,-5,-2,-2,4,-5,-3
1511884272549771,5,-2,-3,-3,3,5,-1,6
1511884272549771,4,-3,-6,-3,2,1,1,6
1511884272562010,-6,2,3,-4,-2,-1,1,-8
1511884272562010,-3,-1,1,2,-4,-7,2,-5
1511884272569028,-8,6,0,2,-2,-2,4,1
1511884272569028,0,2,2,-1,0,-5,1,5
1511884272585044,-2,3,1,-1,2,-3,-4,-2
1511884272585044,5,-6,-8,-2,2,-2,3,6
1511884272592062,2,-5,0,-3,-3,-3,-1,-2
1511884272592062,4,0,-2,-1,-4,1,-2,-7
1511884272608108,1,-10,-6,-1,-4,6,4,-5
1511884272608108,-4,-4,1,0,-1,1,0,-6
1511884272610138,-1,-1,-1,-3,-2,-2,-6,-7
1511884272610138,-8,1,1,5,2,-1,-1,2
1511884272622260,-4,-3,1,3,3,0,-8,-2
1511884272622260,-5,11,4,2,2,-1,-2,3
1511884272631166,3,2,1,2,-4,1,3,6
1511884272631166,-4,-6,-3,-1,-1,-1,0,3
1511884272645441,-3,-2,-6,-2,-2,-1,-1,-4
1511884272645441,-6,-4,-4,-6,2,1,3,-5
1511884272651838,3,-3,-4,-5,3,0,2,-3
1511884272651838,6,-1,-2,-2,2,-1,0,-6
1511884272667929,7,2,-3,2,3,0,6,1
1511884272667929,2,3,0,2,1,0,-1,1
1511884272669931,-4,2,0,1,1,-1,-2,3
1511884272669931,-2,1,5,1,-5,-4,-7,0
1511884272681967,-10,4,0,-2,-3,0,-3,-2
1511884272681967,4,0,-2,-3,-3,-2,-8,0
1511884272691018,1,1,-2,-2,-2,3,2,3
1511884272691018,-6,-3,-5,-4,1,1,2,-3
1511884272705148,0,0,-3,1,-1,-2,7,3
1511884272705148,-1,-5,-2,1,-5,-4,4,-4
1511884272712172,-3,-1,2,-1,-3,-7,-2,-3
1511884272712172,0,0,0,3,-1,-2,-7,-1
1511884272727187,-1,-6,3,0,-3,-1,-6,2
1511884272727187,4,6,0,0,-3,2,1,-2
1511884272734107,4,-1,-1,-4,-1,3,2,3
1511884272734107,-1,-1,2,-5,-1,4,1,3
1511884272742134,3,-5,-3,-4,1,-1,-2,-1
1511884272742134,-1,-9,-3,1,2,-2,3,6
1511884272751164,-4,1,0,1,-1,-5,-6,-1
1511884272751164,-5,-4,-5,0,0,-3,0,-7
1511884272765332,-4,3,3,1,6,1,-3,-8
1511884272765332,-3,0,0,0,4,-3,-3,-10
1511884272772258,4,-1,-1,3,2,1,6,5
1511884272772258,-4,-2,-1,0,0,1,-3,-13
1511884272788320,-5,3,0,0,-4,-1,0,0
1511884272788320,-3,-5,-6,0,-6,0,-5,1
1511884272789272,2,10,1,-1,-4,-2,-6,1
1511884272789272,6,-3,1,-1,-2,0,-2,6
1511884272801306,10,0,0,-3,-3,2,5,8
1511884272801306,0,-8,0,-4,-6,3,5,-1
1511884272810379,-2,-11,-3,-3,0,0,2,-5
1511884272810379,-6,-10,-5,-2,-4,-5,-7,-5
1511884272825371,-8,3,1,3,0,-3,-8,-7
1511884272825371,-2,-1,1,-2,-1,0,-9,-8
1511884272831419,6,6,-4,0,2,4,-1,6
1511884272831419,-2,6,-1,-1,1,-1,3,1
1511884272847531,-7,4,0,3,0,-3,4,1
1511884272847531,4,6,2,1,-3,-5,4,5
1511884272854608,-6,-3,-1,1,-1,-2,2,-6
1511884272854608,-1,-2,-1,1,2,-1,3,5
1511884272861542,0,-4,-4,0,1,-1,1,2
1511884272861542,-4,-3,0,-3,3,-1,-3,-3
1511884272870539,6,2,0,-5,3,1,-6,-6
1511884272870539,8,7,2,-3,1,3,3,2
1511884272884611,-7,-2,4,-7,-4,-1,1,-4
1511884272884611,4,-5,-6,0,-3,1,1,3
1511884272891597,-5,-6,-1,3,-5,3,0,-2
1511884272891597,-3,-1,-2,3,-3,2,-2,-3
1511884272907638,3,10,-1,4,2,-1,-1,8
1511884272907638,1,-2,-5,-3,5,-3,-8,0
1511884272913654,-2,6,-2,-1,2,-4,-5,5
1511884272913654,1,-2,-3,-1,-4,2,4,4
1511884272921706,-2,-6,1,-2,-7,5,3,-7
1511884272921706,-3,-1,5,0,-8,4,2,-3
1511884272930700,-2,-6,1,-2,-2,0,4,-5
1511884272930700,0,-3,-1,-1,-2,-3,1,-3
1511884272945293,2,4,-5,1,4,-5,1,6
1511884272945293,-6,-3,-2,-1,7,-5,-5,1
1511884272951783,-2,-1,-4,-4,3,-4,-8,-1
1511884272951783,-6,7,-2,2,3,-6,-4,-11
1511884272967859,2,-5,-7,1,-1,-4,4,-2
1511884272967859,1,0,-1,0,-4,-4,0,-2
1511884272973875,0,-8,0,-2,-4,5,5,-1
1511884272973875,-2,-3,2,-6,-6,4,-3,1
1511884272981865,9,-1,4,-1,-3,1,-3,4
1511884272981865,0,3,-1,-1,-1,-1,-2,3
1511884272990890,-3,2,2,0,2,-4,-4,1
1511884272990890,3,-1,1,0,0,2,-1,5
1511884273004954,-3,0,-2,0,-4,3,-5,-4
1511884273004954,-7,0,1,3,-4,5,0,-3
1511884273011972,-1,1,-3,0,-3,-5,-5,-8
1511884273011972,-2,-9,-14,-4,5,-3,4,8
1511884273026985,-8,-4,-5,-6,5,-6,-8,-6
1511884273026985,2,3,0,-7,4,-4,11,3
1511884273034004,-4,-3,0,-5,-11,2,4,-6
1511884273034004,7,0,7,0,-4,2,5,0
1511884273050552,2,-3,-2,3,-6,3,0,-3
1511884273050552,1,2,0,7,-2,-1,-1,-6
1511884273052557,-4,-5,0,4,-3,0,4,-2
1511884273052557,6,4,4,0,-1,-1,1,4
1511884273064618,0,-5,3,-6,3,-5,0,5
1511884273064618,-9,2,5,-4,3,-1,-7,1
1511884273071637,-2,2,-1,1,2,-4,-2,9
1511884273071637,-5,0,-8,5,-4,-1,-8,-3
1511884273087710,6,7,0,-1,3,1,-3,7
1511884273087710,0,-8,-6,-3,0,3,0,-1
1511884273094697,4,-4,-2,-4,3,1,3,-2
1511884273094697,3,11,-3,-4,1,-2,0,-5
1511884273110767,-5,-10,-9,1,-5,-3,-10,-11
1511884273110767,4,-2,1,-1,1,1,-2,1
1511884273111744,-2,-8,3,0,0,5,2,2
1511884273111744,-6,0,8,2,-3,-1,6,2
1511884273124779,-3,1,3,-2,-3,-5,11,4
1511884273124779,1,2,-2,1,-6,-4,-5,-16
1511884273131796,7,1,0,3,1,0,2,8
1511884273131796,-8,-1,-3,3,5,-3,-8,-14
1511884273147371,-3,1,-5,0,2,3,1,6
1511884273147371,1,1,-1,0,-3,-4,-3,6
1511884273154419,-4,-4,-2,-1,-8,-6,-7,-2
1511884273154419,1,-3,7,-7,-6,1,-5,3
1511884273170990,4,8,5,-2,0,5,2,-3
1511884273170990,2,-1,-1,0,3,5,6,4
1511884273171964,4,0,-5,-1,-2,2,4,2
1511884273171964,-2,-5,-5,2,0,-5,2,0
1511884273184998,-7,2,-1,2,2,-4,5,-6
1511884273184998,6,2,2,1,1,-6,1,-1
1511884273192017,1,1,2,-2,2,-7,-3,-4
1511884273192017,2,-4,-4,-6,-1,-1,-7,-9
1511884273207056,1,-1,1,-4,-1,1,0,0
1511884273207056,-2,-5,-2,-3,-1,-1,-2,3
1511884273214103,-9,-2,0,-2,2,0,-1,-5
1511884273214103,-3,3,-1,0,3,5,5,10
1511884273230118,-1,-5,-2,5,-2,4,-3,0
1511884273230118,-3,-2,-1,3,1,2,-2,-4
1511884273232124,6,4,-2,5,-3,0,3,1
1511884273232124,1,0,-3,3,-3,-3,5,-5
1511884273245215,-1,-3,-2,-2,-1,-2,-1,-1
1511884273245215,-3,0,3,-10,-3,-2,-5,-1
1511884273251729,-3,-1,-1,-10,1,-3,-5,-3
1511884273251729,1,-5,-4,-5,0,-9,-12,3
1511884273267803,1,-4,-6,-2,2,-3,4,3
1511884273267803,10,1,0,-1,1,-1,2,2
1511884273273790,3,2,-3,0,0,5,0,-1
1511884273273790,-3,-2,4,4,-4,8,6,0
1511884273290862,-5,-5,6,4,0,0,2,-2
1511884273290862,-6,-2,0,3,0,-1,4,4
1511884273291839,-6,-2,0,2,0,-7,-9,-6
1511884273291839,5,1,-3,-2,-4,0,-2,6
1511884273304871,-1,-2,-3,-1,-2,2,-6,-3
1511884273304871,1,1,-2,2,-5,0,-5,-5
1511884273311926,-6,3,2,-1,-4,0,0,1
1511884273311926,-7,3,-1,0,0,-2,3,-6
1511884273326965,-15,-1,-7,-3,-1,-4,4,-9
1511884273326965,0,-3,-5,0,0,-3,2,0
1511884273333985,10,-2,-3,0,5,1,2,8
1511884273333985,-1,-2,8,-6,-2,2,-8,-1
1511884273351029,9,-3,2,-5,-3,-2,-9,-5
1511884273351029,-14,8,-2,-1,1,0,1,-2
1511884273352559,5,4,4,4,4,1,-2,-1
1511884273352559,1,-2,-3,3,2,1,-1,5
1511884273365125,1,-6,-1,0,-4,1,-2,0
1511884273365125,12,-4,-6,1,-5,1,-5,2
1511884273372115,4,1,-3,1,-10,2,-5,4
1511884273372115,-46,-18,-2,2,-1,4,4,0
1511884273387155,7,14,3,1,1,-7,-2,3
1511884273387155,-2,2,0,-3,-2,-8,1,-9
1511884273394201,6,1,-2,-1,1,-2,6,-1
1511884273394201,13,2,-1,-6,-3,-4,1,-1
1511884273410244,-8,-7,0,-3,-3,-1,-5,4
1511884273410244,-7,6,1,-2,0,0,-1,-6
1511884273412224,-9,-1,3,-1,1,1,-1,-5
1511884273412224,21,8,2,0,1,2,4,4
1511884273425265,12,7,-4,-1,4,4,2,6
1511884273425265,-28,-24,-9,-3,1,3,-2,-4
1511884273431303,3,22,7,5,7,3,3,-1
1511884273431303,3,-1,-2,6,3,1,-2,-2
1511884273447821,16,-1,0,-1,0,0,4,5
1511884273447821,12,5,0,-4,-1,-3,-3,3
1511884273454339,7,-5,-2,-8,-6,-7,-7,0
1511884273454339,-18,9,0,-4,-1,-7,-6,-11
1511884273470416,16,-4,2,6,1,3,6,9
1511884273470416,-14,-6,-2,2,-4,-2,-1,-3
1511884273472425,-17,-6,0,0,-1,-3,4,-1
1511884273472425,19,7,-2,0,-4,0,1,0
1511884273485422,-13,-8,-6,-4,-10,2,-4,-7
1511884273485422,-2,-6,2,5,-5,-1,-2,2
1511884273491439,31,30,-1,0,-2,-1,-1,0
1511884273491439,-13,-4,-3,-5,0,-2,-6,1
1511884273507508,-11,5,0,-2,4,6,4,3
1511884273507508,2,-8,-1,-5,-4,1,-4,-2
1511884273514499,-41,-21,2,7,6,1,-2,-7
1511884273514499,13,-6,1,-1,-1,-5,-4,-5
1511884273530542,-5,-10,-3,0,-1,-3,-1,-7
1511884273530542,8,-4,-2,-4,-1,-7,2,2
1511884273532574,1,-1,-3,-3,-10,-9,1,-5
1511884273532574,9,5,-6,-2,-8,8,6,1
1511884273544606,-3,-7,1,-6,-2,-3,-2,0
1511884273544606,-14,1,9,-1,1,-21,0,3
1511884273553666,-18,-17,-9,6,-4,10,-3,-9
1511884273553666,4,11,9,19,23,-16,1,2
1511884273567705,-5,-1,3,-41,-25,-14,-7,-2
1511884273567705,12,4,1,34,17,13,-1,4
1511884273573721,2,-5,-2,-6,-6,-2,-5,5
1511884273573721,-7,0,-8,-12,-8,1,-5,-5
1511884273590766,-17,-7,-4,9,3,5,0,1
1511884273590766,-4,2,8,-4,-2,5,2,1
1511884273591769,18,6,7,-3,-3,-3,4,2
1511884273591769,-10,-6,7,13,-3,4,9,-1
1511884273603801,3,-2,5,7,1,-4,5,-4
1511884273603801,2,-5,-4,-9,-4,3,-8,-3
1511884273612944,0,6,-1,2,8,1,-5,-8
1511884273612944,4,-10,-5,-14,-8,-4,-9,-6
1511884273627920,-12,-3,-4,6,-3,-4,2,5
1511884273627920,7,5,-6,-7,-3,-2,3,3
1511884273633905,-4,-1,-7,-4,1,1,6,8
1511884273633905,0,3,-4,-1,0,-2,-5,-7
1511884273651107,20,13,-4,4,6,-3,1,-2
1511884273651107,-21,-8,-1,0,2,4,-1,-6
1511884273652655,6,-9,-6,-1,2,-1,-3,-6
1511884273652655,1,-7,-2,1,0,9,4,3
1511884273664239,25,15,-1,4,11,5,-2,5
1511884273664239,-3,1,-2,-5,4,4,-1,1
1511884273673264,-23,-7,-3,-6,0,-15,-3,-4
1511884273673264,-1,-4,2,0,-2,-6,1,0
1511884273687494,-4,-2,0,-2,-3,-2,-3,0
1511884273687494,-1,1,-1,-5,-7,0,-4,-1
1511884273694431,10,-2,1,-4,-1,2,0,2
1511884273694431,-3,4,3,-3,-3,2,4,2
1511884273710455,-12,-9,-7,-1,-5,-2,-1,-7
1511884273710455,8,-3,-3,-2,-6,-2,4,-1
1511884273712368,0,-3,0,4,0,1,-3,-3
1511884273712368,-5,-5,-2,-3,2,-5,-3,1
1511884273724594,-1,1,2,2,6,2,4,4
1511884273724594,16,7,3,-2,5,3,7,8
1511884273733424,-16,-4,2,0,4,-2,-2,-5
1511884273733424,16,8,3,0,0,-1,-5,2
1511884273747589,7,7,-2,-1,0,-4,-7,-2
1511884273747589,2,-4,-6,-3,-4,0,-3,-2
1511884273754700,1,3,-4,-5,-3,7,7,6
1511884273754700,-8,0,0,-1,1,8,5,2
1511884273770412,-8,1,2,3,-4,4,2,0
1511884273770412,1,6,2,-1,-5,-5,1,-1
1511884273772296,-13,-5,1,0,-1,-3,1,-1
1511884273772296,20,-3,-3,-1,0,-7,-5,1
1511884273784360,-2,1,0,5,2,1,-4,-1
1511884273784360,-11,-10,-2,-1,-3,1,-5,-7
1511884273793347,1,0,1,-5,-5,0,-1,-1
1511884273793347,-1,0,-1,-3,-1,4,3,1
1511884273807388,-4,-2,-4,-1,-1,1,2,0
1511884273807388,0,2,-4,5,0,1,-3,-1
1511884273814408,1,0,0,1,0,3,1,-1
1511884273814408,0,0,3,1,0,-9,4,4
1511884273829629,-7,-5,-2,-3,-1,-4,-9,-13
1511884273829629,3,4,-3,-8,-5,-3,-4,-3
1511884273836653,-1,-2,-3,-5,-8,3,-8,1
1511884273836653,18,9,2,-5,-3,3,-2,1
1511884273844484,-13,-13,3,4,7,2,-1,-2
1511884273844484,3,8,1,0,9,0,-2,-4
1511884273853511,-4,-10,-8,0,6,0,2,-2
1511884273853511,3,0,-5,0,-4,3,6,4
1511884273867599,-2,1,3,-1,-3,-5,5,1
1511884273867599,-2,-5,-1,1,-4,-5,4,-2
1511884273874618,-3,-1,-5,2,-8,-8,-2,0
1511884273874618,-11,-6,-9,1,-5,0,-3,0
1511884273889685,4,-3,0,-3,0,2,-3,-9
1511884273889685,2,1,3,-3,0,1,-5,-2
1511884273896678,3,4,3,-1,-2,-3,0,-5
1511884273896678,-10,-5,1,1,-1,-2,-3,-5
1511884273904699,6,4,-3,1,-3,1,2,5
1511884273904699,0,-4,-2,1,4,7,4,6
1511884273912719,4,1,5,0,1,1,-1,-1
1511884273912719,-13,-4,2,1,-2,-3,-4,-3
1511884273927786,-2,1,1,-3,3,-2,1,2
1511884273927786,-2,3,4,-2,-4,-2,3,2
1511884273933798,0,-9,-4,-2,0,-1,2,-2
1511884273933798,1,0,-1,-1,-3,-2,3,5
1511884273950372,-5,-3,-6,3,-6,-1,-6,-9
1511884273950372,-1,0,-7,1,-7,-1,-2,-1
1511884273956886,14,5,2,-3,-7,0,-5,7
1511884273956886,6,9,2,-4,-3,2,-8,-5
1511884273972957,5,-6,-4,1,6,1,0,4
1511884273972957,-6,-2,-4,3,8,0,3,-4
1511884273974936,7,8,3,2,8,5,9,11
1511884273974936,-14,-6,1,-3,2,1,-2,-15
1511884273986992,-17,-15,0,-2,-4,1,-2,-2
1511884273986992,12,1,5,-3,-5,-6,0,4
1511884273993985,-3,0,6,1,1,-7,-1,-5
1511884273993985,-8,-9,3,-2,0,-4,5,2
1511884274010029,9,11,4,-4,1,-2,6,3
1511884274010029,-10,-13,-4,0,-1,0,-2,-7
1511884274017056,3,0,-7,2,1,-1,-1,3
1511884274017056,-4,5,-6,0,3,0,-7,-5
1511884274033089,-6,4,0,-1,0,-1,-5,-7
1511884274033089,-3,-1,-1,-2,2,0,0,4
1511884274035095,6,3,-5,-2,-4,-3,-5,1
1511884274035095,-1,-1,-4,-1,-6,-3,2,5
1511884274047630,-1,2,-4,0,-6,-2,1,-3
1511884274047630,18,9,0,-2,-3,-2,1,5
1511884274054692,2,7,4,-4,0,1,3,-4
1511884274054692,0,-18,-10,-2,2,0,0,2
1511884274070249,-1,6,9,-2,4,0,-3,2
1511884274070249,3,-3,1,-5,4,5,0,3
1511884274076234,-13,-3,9,-1,-3,1,-6,-6
1511884274076234,5,1,1,4,0,0,1,5
1511884274093280,2,9,-4,1,-7,-4,1,-1
1511884274093280,-11,6,1,3,-3,-3,-6,-10
1511884274094282,-8,0,-2,-2,-2,-2,1,-3
1511884274094282,15,-2,7,-4,-4,2,1,7
1511884274107343,12,-8,-6,-3,-2,1,-6,6
1511884274107343,-3,-2,-2,0,3,5,3,-1
1511884274114364,-12,-9,-4,0,4,-2,2,-7
1511884274114364,6,14,5,-3,2,-2,4,-1
1511884274130377,-6,-17,-6,-2,1,-2,5,-1
1511884274130377,-7,-4,-3,2,-4,-2,-2,-3
1511884274136417,0,-10,-6,3,-1,1,-3,-1
1511884274136417,-8,1,2,2,5,0,-3,-3
1511884274153472,7,-2,-1,-2,-2,-5,1,3
1511884274153472,6,1,-1,-2,-3,-6,3,2
1511884274154946,0,2,0,-3,-7,-3,-6,-4
1511884274154946,-3,4,1,0,-4,-2,-2,-7
1511884274167538,-3,8,5,0,2,3,-4,-6
1511884274167538,6,-3,2,0,3,-1,0,2
1511884274174554,4,0,1,-4,0,2,5,3
1511884274174554,-4,1,-7,-2,1,1,4,2
1511884274189597,2,1,0,0,-1,-2,0,1
1511884274189597,-4,3,-1,-3,-4,-5,-3,-4
1511884274196589,3,1,-2,-9,-3,-1,-3,7
1511884274196589,-7,-8,-3,-10,3,2,-2,-2
1511884274212658,-8,0,-3,-7,4,-2,-4,-5
1511884274212658,-10,0,-4,-4,0,1,-1,2
1511884274214636,8,1,-3,4,0,1,-1,-1
1511884274214636,20,5,-1,7,-8,-7,-6,-3
1511884274227698,-13,-12,-3,2,-3,-2,7,1
1511884274227698,15,1,1,0,-2,-4,4,4
1511884274233686,0,-5,-4,4,4,-1,-5,4
1511884274233686,-7,2,5,4,1,2,-1,1
1511884274250236,4,-7,-3,5,-5,0,-6,0
1511884274250236,1,8,-7,-1,-4,-1,-5,-9
1511884274256779,-8,-9,-2,1,-1,2,5,0
1511884274256779,0,0,1,-2,4,2,-2,-3
1511884274272822,5,12,4,0,1,2,-2,-3
1511884274272822,-10,0,2,-1,2,3,5,4
1511884274274827,-6,2,-2,-1,-1,-3,1,-3
1511884274274827,-2,-9,-5,2,-4,-1,4,4
1511884274286861,-5,-4,-3,-2,-3,-4,0,-1
1511884274286861,1,-7,-3,-3,-1,-2,-3,-1
1511884274293880,0,3,1,-1,0,-1,-5,-4
1511884274293880,-6,-4,-1,-1,-4,1,-2,3
1511884274309955,8,7,4,-3,0,2,1,-1
1511884274309955,-1,-3,1,1,3,2,1,0
1511884274316970,2,-1,-2,1,2,1,2,-9
1511884274316970,-6,-2,-3,0,3,-1,-1,-3
1511884274333012,-5,-1,-4,2,-4,-3,-3,5
1511884274333012,0,-4,-8,-3,-6,-5,-4,6
1511884274335016,6,-7,-2,1,-1,-2,11,11
1511884274335016,14,6,1,-1,-2,1,4,9
1511884274347522,-10,-1,-1,0,4,-4,-10,-7
1511884274347522,-8,-5,4,3,1,-1,-4,-9
1511884274354540,-6,-3,1,-3,-1,-7,-4,-2
1511884274354540,2,-2,-1,-3,-4,-3,-2,3
1511884274370111,0,-9,-7,-6,-4,1,5,-2
1511884274370111,1,4,11,0,0,2,0,-3
1511884274377130,1,10,9,0,0,5,-2,-3
1511884274377130,-7,-7,-2,-3,2,3,-2,-12
1511884274393176,9,3,-1,1,-1,4,0,2
1511884274393176,7,3,-7,-1,4,-3,1,1
1511884274394179,-7,-5,-7,-1,-1,-9,-1,-8
1511884274394179,-7,4,-2,4,3,-3,4,-6
1511884274407213,-6,-3,1,4,0,0,5,-6
1511884274407213,7,0,2,1,-3,1,0,5
1511884274414202,1,1,0,-4,0,-1,-1,5
1511884274414202,-9,-2,-3,-6,1,1,-5,0
1511884274430244,11,0,-3,-5,-2,1,-8,3
1511884274430244,-1,5,-1,2,-2,1,-5,-3
1511884274436287,-6,1,0,0,-4,0,-3,0
1511884274436287,-10,-10,-1,-1,-5,-6,0,-1
1511884274453336,13,3,4,-1,0,-4,7,9
1511884274453336,-12,0,-2,-3,4,-6,-3,-7
1511884274454811,-3,-15,-9,-4,3,1,2,-2
1511884274454811,11,4,4,2,0,4,3,7
1511884274466270,1,-2,5,-4,-3,1,-6,2
1511884274466270,9,13,-2,0,-4,0,-2,4
1511884274475268,-5,-1,-2,0,1,-2,-2,-3
1511884274475268,10,1,-1,0,2,-4,4,12
1511884274490337,-2,-7,-3,1,1,-4,1,-1
1511884274490337,0,-12,-3,2,-1,1,6,0
1511884274496357,12,22,8,2,0,1,-4,-2
1511884274496357,-9,-9,-7,2,-5,-2,-7,-14
1511884274513368,-9,0,3,3,-3,0,-7,-6
1511884274513368,-2,-3,-2,-1,-1,2,-3,-4
1511884274514387,-3,1,-4,2,-2,5,1,4
1511884274514387,-4,0,0,-1,1,1,-1,1
1511884274535453,1,7,2,1,2,-4,3,3
1511884274535453,-7,-10,-1,-2,-5,-6,4,0
1511884274537459,1,2,1,3,-9,-4,2,-3
1511884274537459,2,6,-3,-3,-5,-2,2,-5
1511884274550001,-12,-4,-2,-4,-2,-2,1,-2
1511884274550001,2,-10,0,-8,1,4,-3,-1
1511884274557020,5,-3,-5,-6,0,1,1,0
1511884274557020,7,0,7,-2,1,-1,-1,4
1511884274572625,-4,0,-3,-6,-3,-1,2,3
1511884274572625,-6,-1,-1,-2,3,0,-2,2
1511884274574596,0,-2,2,-1,5,2,-6,-4
1511884274574596,-12,-7,-4,9,-1,3,-5,-9
1511884274586662,1,-2,50,8,-3,2,-1,-3
1511884274586662,1,-5,90,3,-6,-3,-1,0
1511884274595654,-8,0,49,-5,0,-2,6,2
1511884274595654,2,6,12,-8,-2,-2,3,0
1511884274609691,-2,-5,-46,-2,2,0,1,1
1511884274609691,-8,2,-58,0,-4,0,5,-6
1511884274616826,0,-5,-39,-2,3,-4,-5,3
1511884274616826,6,3,-35,0,2,-3,-3,3
1511884274632776,-5,-1,-29,-3,-1,-1,-5,-9
1511884274632776,5,-1,-17,-1,3,0,-2,4
1511884274634756,-6,-4,-12,-1,-1,4,-2,4
1511884274634756,9,-3,-7,0,-4,1,-1,-4
1511884274646916,5,0,-1,-3,0,0,0,-2
1511884274646916,-1,13,-3,-3,-2,-6,-2,-5
1511884274655941,1,-6,-8,-2,-6,-6,-1,-3
1511884274655941,-10,-5,2,-3,0,2,-4,-3
1511884274670074,3,1,13,-1,1,5,4,8
1511884274670074,2,0,-4,2,1,5,2,4
1511884274677093,0,2,4,0,-2,0,4,7
1511884274677093,-8,1,10,4,-2,-5,-10,-10
1511884274693141,0,-3,-4,1,2,-4,1,-9
1511884274693141,4,-4,-5,0,3,-3,-3,2
1511884274695168,-5,-8,-3,1,-1,2,1,-2
1511884274695168,5,0,5,-1,2,-1,0,-4
1511884274707221,-11,1,-3,-3,1,-2,4,-7
1511884274707221,12,-3,-7,-3,-7,-6,5,12
1511884274716196,0,5,-1,-3,-4,-6,2,-4
1511884274716196,0,-3,0,1,1,0,2,13
1511884274730332,4,-3,2,3,-1,2,-3,6
1511884274730332,-4,-2,-1,3,-2,1,-7,-8
1511884274737301,1,-3,0,2,-5,-5,-5,4
1511884274737301,-2,-4,-1,0,-2,-9,-4,-3
1511884274752849,0,2,1,-3,5,-5,-2,-2
1511884274752849,2,-5,-2,-8,2,0,2,0
1511884274759368,-3,-1,1,-5,2,5,-1,-4
1511884274759368,-10,-10,1,-2,-4,7,-1,-5
1511884274766465,33,10,3,5,-7,1,0,20
1511884274766465,-16,1,-2,5,-4,0,-5,-15
1511884274775439,6,-5,-4,2,-4,-2,0,-1
1511884274775439,-3,6,1,-6,-1,2,5,-3
1511884274789503,-12,-8,0,-1,1,2,0,-5
1511884274789503,6,12,0,-6,2,2,-1,5
1511884274796666,-5,-13,-4,-1,3,3,1,-1
1511884274796666,3,7,-1,1,3,-2,1,5
1511884274812663,-7,-2,-6,0,3,-10,1,-1
1511884274812663,-6,0,1,3,2,-11,-4,-1
1511884274819559,-6,0,-2,-1,2,-5,-2,-11
1511884274819559,11,9,4,3,0,-1,6,11
1511884274826702,-5,-4,-2,-6,-2,2,-4,-5
1511884274826702,-5,-8,-10,-9,0,3,2,-1
1511884274835599,-1,1,-2,-2,-1,4,-1,-5
1511884274835599,6,-6,-1,-2,3,7,1,1
1511884274850256,-2,5,3,0,-4,3,-2,-5
1511884274850256,5,-4,1,4,-2,-1,6,5
1511884274856773,-2,2,5,3,-5,-3,-9,-5
1511884274856773,-8,5,-1,1,-5,-8,-6,-1
1511884274872343,-1,-1,2,-2,-2,-1,-5,3
1511884274872343,2,0,4,-1,2,5,0,7
1511884274879331,-6,10,0,-2,2,-1,-3,-10
1511884274879331,4,1,11,3,-1,-4,2,-1
1511884274895403,3,-19,-11,2,-5,-3,0,2
1511884274895403,-7,-5,-2,-2,-6,-4,-3,-4
1511884274897405,-1,0,-2,-6,-3,-2,3,6
1511884274897405,-3,0,-3,-12,-3,1,-2,-6
1511884274909442,-4,-7,-10,-5,4,1,4,-2
1511884274909442,3,4,3,3,0,0,-3,2
1511884274916457,-1,0,8,9,4,0,-1,5
1511884274916457,-10,-5,-6,2,-2,-4,-4,-2
1511884274932473,7,6,-1,1,1,-1,0,2
1511884274932473,-1,-3,-10,0,4,2,-8,-9
1511884274939518,6,-7,-4,0,5,4,3,2
1511884274939518,-3,-7,-1,-1,2,0,0,-3
1511884274955091,-2,7,6,1,-1,0,1,-1
1511884274955091,1,2,2,-2,-4,-3,0,2
1511884274956088,4,4,3,-4,-3,-1,-1,4
1511884274956088,-1,-11,-3,-4,-3,1,-3,2
1511884274970689,-3,7,0,-2,-5,1,-1,6
1511884274970689,6,6,0,-2,-7,-4,-4,-12
1511884274976730,-1,-2,-3,1,-4,-4,2,-3
1511884274976730,-5,-10,-7,-1,0,-1,2,-9
1511884274991747,-5,-3,4,0,1,1,7,2
1511884274991747,0,3,2,0,-2,-1,0,7
1511884274998764,2,4,0,-4,-4,-1,-2,2
1511884274998764,0,-9,2,-2,-4,-1,1,1
1511884275014806,-5,-1,0,2,1,1,-2,-10
1511884275014806,2,-1,-4,-1,4,3,3,-1
1511884275015809,0,0,1,0,5,4,-1,-1
1511884275015809,-5,2,-1,0,6,-1,0,2
1511884275030877,-9,-7,9,2,2,-7,-2,-2
1511884275030877,-2,9,-3,-1,-3,-1,3,1
1511884275036897,13,14,5,2,-4,-3,-2,5
1511884275036897,0,-15,-12,-3,-1,-3,-3,-1
1511884275051909,0,-4,-1,-5,-4,-2,-1,2
1511884275051909,-10,-17,-6,-2,-2,0,-11,-8
1511884275059460,-3,4,-1,-7,-6,-1,-2,0
1511884275059460,6,10,0,-1,2,5,-2,-1
1511884275075005,8,-4,-3,2,0,-3,-2,3
1511884275075005,7,-5,3,3,1,-2,-1,-4
1511884275076040,-1,-5,-2,3,4,1,-2,-2
1511884275076040,-8,-4,0,-2,-1,-2,-4,-2
1511884275091073,5,6,2,-3,1,1,-5,3
1511884275091073,-6,0,2,1,0,2,0,6
1511884275097063,0,-6,-1,1,5,-5,-3,2
1511884275097063,-3,1,0,-3,2,3,6,4
1511884275112130,-4,11,-4,-7,-1,5,-6,-5
1511884275112130,-7,-1,0,-2,-2,3,1,-2
1511884275119149,0,2,1,2,-1,-1,0,-1
1511884275119149,-1,-10,-2,1,-6,-8,0,-5
1511884275135192,5,5,-3,6,-3,-4,2,-2
1511884275135192,5,-8,-1,4,0,-3,1,-6
1511884275135192,-1,-3,-10,0,-3,-3,1,6
1511884275135192,-4,0,3,0,0,-3,-1,-11
1511884275150709,-1,-4,1,-4,-3,1,0,-5
1511884275150709,7,-2,0,0,2,2,2,4
1511884275156752,-4,1,0,-3,3,1,2,3
1511884275156752,5,9,1,-4,1,0,0,4
1511884275171292,-8,-3,-2,-6,-1,-3,4,1
1511884275171292,-13,-2,-3,-6,-7,-6,0,-7
1511884275179287,13,-3,1,1,-5,3,-3,3
1511884275179287,-1,4,0,3,-2,2,-7,-1
1511884275195328,-5,0,0,4,-1,1,-7,-3
1511884275195328,-6,-6,-1,-1,1,2,-4,2
1511884275195328,-4,-6,-1,-5,5,-2,-3,-7
1511884275195328,2,5,2,1,3,2,1,6
1511884275210396,-10,-12,-2,1,5,1,0,-14
1511884275210396,4,14,7,0,1,-2,2,9
1511884275216385,-6,-14,-1,1,-4,-4,0,-1
1511884275216385,3,6,6,3,-5,1,1,-3
1511884275231426,10,-8,-3,0,-7,3,4,11
1511884275231426,-1,6,0,-2,-5,-1,1,-10
1511884275239446,-8,0,-1,-5,-4,-5,5,-10
1511884275239446,11,11,5,-2,1,-6,-2,2
1511884275255013,-2,-5,1,0,2,-3,-4,-1
1511884275255013,-2,-7,-1,0,2,-1,-5,6
1511884275256018,-4,2,-1,3,0,5,-4,0
1511884275256018,-11,-2,-3,-2,-2,2,-1,1
1511884275270559,14,8,1,-2,-2,2,0,5
1511884275270559,-3,-3,-4,-2,3,-1,1,5
1511884275276575,-1,-3,-5,0,0,-3,1,1
1511884275276575,-2,1,2,-3,0,0,-1,0
1511884275291616,2,4,5,2,3,-5,-1,-1
1511884275291616,4,-6,-3,-3,-1,-2,5,-3
1511884275299638,7,-1,-3,0,-1,-3,0,-2
1511884275299638,1,-9,-8,0,-1,-4,1,-8
1511884275314712,-2,8,8,2,-3,-3,-3,-3
1511884275314712,-1,0,-4,1,-1,1,-3,-1
1511884275315680,-2,4,4,0,-3,8,-3,-3
1511884275315680,-6,-5,-2,-1,2,6,-2,1
1511884275330719,-11,-11,-3,-3,3,1,2,1
1511884275330719,-7,-6,-5,0,2,-4,3,-2
1511884275336768,-2,-1,0,-3,-5,-6,-3,2
1511884275336768,1,6,-4,-3,-6,-5,-3,2
1511884275351810,2,9,5,3,3,1,1,4
1511884275351810,-8,-1,-8,-2,2,5,1,-2
1511884275359361,7,2,1,1,2,-4,-4,-12
1511884275359361,-3,-10,-3,-5,-4,-2,5,2
1511884275375012,13,2,3,-1,-1,0,5,1
1511884275375012,2,-1,-1,1,-2,5,3,0
1511884275376015,-7,-18,-9,2,-2,5,3,-3
1511884275376015,-3,9,5,6,-1,-3,-4,0
1511884275391084,-5,4,0,-4,-8,-7,-4,-3
1511884275391084,1,-1,-1,-2,-1,-2,0,0
1511884275397071,6,5,0,-9,-1,0,-1,5
1511884275397071,7,2,9,-2,-4,1,4,-1
1511884275412149,-7,-9,1,-4,-2,1,1,-1
1511884275412149,-3,-2,5,2,-2,-3,-2,-1
1511884275419155,2,19,8,11,3,-4,1,4
1511884275419155,4,-5,-4,2,-2,0,-5,-1
1511884275435198,8,4,-8,-1,-4,3,1,-6
1511884275435198,9,4,4,3,4,1,-1,0
1511884275435198,-5,-10,-2,3,1,0,-1,-1
1511884275435198,-3,-1,-5,5,3,-2,-2,-4
1511884275457760,-4,-5,-10,-1,-6,-3,-9,-9
1511884275457760,3,-2,-4,-7,-5,-3,-7,0
1511884275458261,-6,-2,-1,-6,-1,1,1,3
1511884275458261,0,1,-1,-3,9,1,1,7
1511884275473303,-11,-6,-10,-7,1,-3,2,2
1511884275473303,7,6,-1,-4,3,1,-1,-3
1511884275479345,7,-3,0,3,3,3,3,6
1511884275479345,-16,-5,0,-1,4,3,3,-5
1511884275494386,-2,-5,2,-3,2,0,0,0
1511884275494386,-1,-6,-3,-6,-5,-2,-2,-2
1511884275495362,6,6,-3,-2,-8,-6,-5,-5
1511884275495362,5,1,-4,-4,-9,-2,-3,-4
1511884275517447,1,-1,5,3,5,-2,1,2
1511884275517447,1,2,9,2,1,-1,2,-1
1511884275518451,-5,-9,5,-2,1,4,-4,-1
1511884275518451,4,-2,-1,2,-2,0,-6,3
1511884275533494,-1,-4,-4,0,-4,-1,-6,4
1511884275533494,-6,1,-8,-2,-6,0,-1,-4
1511884275539509,6,1,-11,-6,2,2,9,5
1511884275539509,-1,7,-3,-2,7,-3,-1,-6
1511884275555053,-9,4,5,6,6,0,-3,-13
1511884275555053,9,-1,4,0,2,-5,-3,5
1511884275556055,-8,2,8,6,-2,-3,-3,-10
1511884275556055,-3,-1,22,1,-8,1,-1,-2
1511884275577647,-3,-2,6,-3,0,3,3,-3
1511884275577647,5,-2,8,1,0,0,0,7
1511884275577647,-3,-1,-5,-4,2,-1,-2,-2
1511884275577647,6,-6,-16,-3,3,-4,-4,0
1511884275592685,-6,-2,-14,-4,-4,1,2,1
1511884275592685,-7,-3,-9,-3,-5,0,-1,1
1511884275598672,5,15,1,-5,-6,2,3,6
1511884275598672,-2,0,-1,1,-1,1,0,1
1511884275614747,0,0,-8,0,0,-5,-1,-2
1511884275614747,5,5,1,5,4,-3,2,4
1511884275615717,3,-5,-3,2,2,-5,5,4
1511884275615717,-1,-4,-2,-5,0,0,3,-3
1511884275637779,6,1,5,1,-1,1,-2,1
1511884275637779,-15,-9,-4,-7,-16,-7,-5,-7
1511884275637779,4,-1,-2,-6,-10,-8,-13,-4
1511884275637779,-3,2,3,7,24,10,4,4
1511884275653437,1,1,-4,-2,4,2,-3,-1
1511884275653437,-6,2,-3,4,7,6,6,-5
1511884275659456,-9,-3,-3,1,-5,-4,-4,-11
1511884275659456,7,-2,-12,-1,-9,-10,-4,5
1511884275674250,4,-5,-2,1,0,-2,-1,2
1511884275674250,-13,1,5,-1,-1,3,-3,-6
1511884275682129,11,0,3,-5,2,7,-2,0
1511884275682129,-1,2,0,-5,-5,0,-3,-14
1511884275697130,2,-4,5,2,-5,-1,-1,-8
1511884275697130,8,-5,-11,3,-3,-1,2,3
1511884275698133,-11,-3,1,5,4,-3,3,-1
1511884275698133,-9,-2,-1,-4,0,-1,3,4
1511884275713173,-3,4,1,-3,-1,-5,0,1
1511884275713173,1,-2,-1,-1,1,-5,0,0
1511884275719299,-2,-1,-4,-3,2,3,2,-5
1511884275719299,3,2,-2,-5,-6,2,1,-4
1511884275734345,1,-2,1,2,-1,4,7,-5
1511884275734345,2,3,0,3,2,2,-1,-8
1511884275741247,1,-1,4,-1,2,1,-2,-4
1511884275741247,-4,-4,-3,-1,-5,-3,-5,-3
1511884275757796,-4,0,-8,0,-4,-2,-5,-2
1511884275757796,-5,-8,4,-1,-3,0,0,-1
1511884275758295,-4,4,2,4,6,-6,1,-5
1511884275758295,-1,3,5,-3,3,5,0,0
1511884275773000,8,3,-7,-8,-1,2,-4,5
1511884275773000,-6,0,8,2,0,2,-2,-5
1511884275779107,2,-2,0,-3,1,-2,3,6
1511884275779107,2,-5,3,4,-3,-4,4,2
1511884275794049,3,-2,3,2,-2,-4,-2,-7
1511884275794049,6,10,-4,-5,-6,-6,-1,0
1511884275802039,-8,-4,-10,-1,-10,-1,-1,-5
1511884275802039,-5,0,2,3,-1,-2,-3,-1
1511884275817082,-1,-5,-4,-5,-1,0,-2,1
1511884275817082,5,-9,-9,2,1,-1,-1,2
1511884275818088,-8,-8,0,2,6,7,-1,-11
1511884275818088,16,3,-5,-5,-5,0,2,4
1511884275833129,-5,3,-6,-5,-1,1,3,-3
1511884275833129,4,0,1,1,4,-2,0,-4
1511884275839262,-1,0,0,1,8,-3,1,4
1511884275839262,-7,-3,-1,-2,1,-2,-1,-2
1511884275854305,5,3,4,-2,1,-2,-4,0
1511884275854305,-4,2,0,-4,3,-2,1,-4
1511884275861825,-2,-3,-2,-6,-4,-2,2,-5
1511884275861825,-1,1,1,11,-3,0,1,-5
1511884275876983,0,-3,-3,-18,2,1,0,-1
1511884275876983,3,1,5,8,-4,1,-5,-1
1511884275877985,3,0,1,2,-9,0,-5,0
1511884275877985,0,0,-5,1,-5,0,0,1
1511884275893039,-3,4,3,4,0,3,2,7
1511884275893039,-8,1,-6,-7,5,-3,-1,9
1511884275899075,-1,2,5,-6,-3,-6,-1,7
1511884275899075,4,0,8,-1,-1,-5,-2,6
1511884275914112,0,-7,9,12,-1,6,0,8
1511884275914112,0,-9,-1,0,-1,-3,-1,0
1511884275922102,-6,-11,-8,2,2,2,2,3
1511884275922102,-10,-5,-9,3,49,-6,-3,-1
1511884275937142,-8,-6,-6,3,81,-5,-2,-13
1511884275937142,7,6,-2,-1,45,-1,2,11
1511884275938145,-5,4,-4,-4,14,-3,-3,-13
1511884275938145,5,-6,-2,-5,-35,-2,3,3
1511884275953188,-1,-11,-16,-2,-54,2,3,0
1511884275953188,-5,-11,10,10,-21,5,2,4
1511884275959204,5,3,-3,-1,-33,5,-1,12
1511884275959204,-5,6,5,0,-28,2,-7,1
1511884275973781,3,2,4,7,-24,-2,-4,7
1511884275973781,-1,2,0,-9,-13,2,1,0
1511884275981803,1,5,4,15,2,-3,1,3
1511884275981803,-2,-4,-8,-17,-10,-4,0,0
1511884275996842,0,4,0,-3,-6,3,0,5
1511884275996842,-5,1,-5,-17,-15,2,-1,2
1511884275997845,-1,5,-6,-1,3,0,1,0
1511884275997845,-2,3,-8,5,3,-3,3,-1
1511884276012892,7,4,-5,-3,-7,-5,1,-2
1511884276012892,5,3,1,0,1,-2,-1,-7
1511884276018928,3,-4,3,-5,8,1,-4,-2
1511884276018928,0,-3,7,-3,8,-2,-4,-4
1511884276033969,-2,-4,9,-2,0,-5,0,3
1511884276033969,-5,-4,2,3,2,2,1,0
1511884276041964,4,-1,3,1,-5,3,2,8
1511884276041964,-3,3,15,2,0,2,-4,-9
1511884276057534,-2,4,8,4,4,4,4,4
1511884276057534,-5,2,7,6,3,0,1,3
1511884276058511,-7,-5,1,1,3,-4,0,5
1511884276058511,-3,0,5,6,1,0,-2,-1
1511884276073077,9,4,1,-2,-5,-6,-9,1
1511884276073077,2,1,0,-4,-9,1,-2,0
1511884276079121,6,0,6,-7,-6,2,1,0
1511884276079121,0,-1,3,4,1,2,4,0
1511884276094162,-8,-6,-4,-2,-2,0,3,-7
1511884276094162,-1,-1,-19,-18,1,3,2,-4
1511884276101175,-4,5,-6,2,10,-4,-2,-3
1511884276101175,1,-1,-21,-2,9,-1,1,6
1511884276117194,-10,1,-20,-5,5,-2,1,1
1511884276117194,2,-7,-13,0,4,-4,-1,-3
1511884276118196,4,2,2,0,0,-2,3,7
1511884276118196,-1,-15,-5,-4,-1,1,1,0
1511884276133236,11,6,26,5,3,3,1,0
1511884276133236,-1,2,20,-7,-8,-1,-5,-4
1511884276139252,0,-1,27,3,-2,1,-6,-11
1511884276139252,3,-3,9,5,0,1,1,3
1511884276154298,-3,-3,12,2,12,3,-5,-3
1511884276154298,-7,3,12,10,3,-4,-1,-4
1511884276161818,3,-5,-6,-4,-7,-6,1,8
1511884276161818,7,8,-12,-9,1,0,0,0
1511884276176919,-6,-8,-12,-8,-11,-5,-2,-1
1511884276176919,1,-7,-1,-5,0,-4,-4,-11
1511884276177892,-8,-2,-28,-1,1,0,4,-12
1511884276177892,1,1,-10,7,2,0,6,-1
1511884276192931,2,20,-10,-5,3,-1,-5,0
1511884276192931,-14,8,-5,-2,2,1,0,-6
1511884276198979,-3,4,1,-6,-8,-1,0,1
1511884276198979,-2,-13,-21,-11,-6,1,-4,0
1511884276213987,-4,-4,-12,-5,-5,0,-8,0
1511884276213987,7,-9,-38,-4,-5,-4,-6,9
1511884276222039,-2,-9,-36,-11,16,4,0,-2
1511884276222039,2,3,-13,-8,2,-1,4,0
1511884276237079,12,8,-7,-2,-1,-3,5,0
1511884276237079,-2,-1,-19,-4,-2,3,7,-2
1511884276238051,5,7,-5,10,-5,5,4,6
1511884276238051,-8,-4,-8,19,2,3,-1,-1
1511884276253125,-3,-1,-27,11,3,-2,4,3
1511884276253125,0,4,14,7,-5,-2,-2,-1
1511884276259672,0,2,20,4,-1,-2,-3,0
1511884276259672,-2,6,31,-3,-8,-9,-4,0
1511884276274235,-4,-8,14,-2,1,-1,3,-3
1511884276274235,-5,-2,4,-2,3,5,15,11
1511884276281254,6,8,5,-5,4,1,-7,-6
1511884276281254,-4,-3,-34,-2,-4,2,-5,-12
1511884276297270,7,-9,-34,1,-6,-1,-3,3
1511884276297270,1,6,-15,8,3,-7,-13,-6
1511884276298273,1,-12,5,8,-3,-5,0,0
1511884276298273,0,-3,16,2,-2,-3,3,5
1511884276313312,6,1,12,5,-2,2,4,4
1511884276313312,3,-7,25,6,3,3,1,0
1511884276319329,-11,-10,18,-3,-5,-8,-6,-11
1511884276319329,5,12,20,-5,4,-4,-3,5
1511884276334369,-6,9,28,-3,3,6,-1,-3
1511884276334369,6,-7,10,-5,-7,-5,0,7
1511884276341388,2,8,13,1,-3,2,-2,-5
1511884276341388,0,-10,-6,-3,-11,-6,0,-2
1511884276357493,-7,-2,5,7,0,2,-2,-11
1511884276357493,0,9,8,2,5,-1,2,0
1511884276358466,6,-7,-6,-3,-1,5,7,24
1511884276358466,-11,2,14,-5,-1,0,-6,-17
1511884276373038,0,0,10,-1,-2,-1,-6,-1
1511884276373038,-8,-1,-3,-5,0,-2,-7,-5
1511884276379053,2,-6,-13,-1,2,-1,-3,0
1511884276379053,1,2,21,8,1,0,6,7
1511884276417166,-8,-15,7,-2,-4,-9,5,-3
1511884276417166,-2,-2,11,2,-1,-2,3,-3
1511884276426177,-3,20,14,-3,5,1,1,0
1511884276426177,15,-1,-1,14,-2,9,-1,8
1511884276440243,5,-9,-13,-10,-3,-10,-7,3
1511884276440243,1,-6,2,2,-10,1,-6,0
1511884276442221,-4,-7,4,-4,-12,-5,0,0
1511884276442221,-6,8,-2,-4,14,8,2,-1
1511884276455291,-4,-3,54,1,-5,0,-1,-6
1511884276455291,-2,-3,36,11,6,2,-2,-2
1511884276461798,1,6,39,-6,-3,5,5,-1
1511884276461798,10,0,60,-9,-2,4,12,21
1511884276469282,-13,-6,20,-3,-2,-7,-19,-22
1511884276469282,1,0,47,-5,5,-1,-3,0
1511884276478305,0,-4,-14,1,2,-4,-9,-3
1511884276478305,3,2,-119,-2,1,-5,2,-4
1511884276484347,18,12,-79,1,0,4,7,13
1511884276484347,-10,-5,-71,-3,-4,-4,-5,-9
1511884276485350,-2,1,-58,1,4,-3,-4,3
1511884276485350,-16,-11,-1,-3,-1,-1,2,-3
1511884276493344,2,1,-10,-2,-1,3,4,6
1511884276493344,-5,9,-1,2,-5,3,0,-12
1511884276499387,1,-4,4,3,-3,3,2,4
1511884276499387,-9,-6,16,0,1,-6,-11,-14
1511884276514431,0,2,8,5,1,-2,2,2
1511884276514431,3,-1,-5,-3,-2,-3,0,7
1511884276521449,-7,-7,-3,-1,1,-4,-4,-7
1511884276521449,3,7,10,-5,-4,-5,-8,-6
1511884276537492,-2,-9,10,3,1,2,1,0
1511884276537492,5,-2,-15,1,1,1,-1,1
1511884276538497,-3,6,-16,-11,-5,1,0,-4
1511884276538497,-2,-24,-8,0,-2,5,0,1
1511884276553506,0,11,35,2,-1,3,4,-3
1511884276553506,-4,-11,5,2,-3,-4,-1,-8
1511884276559554,8,0,-1,2,-4,-7,-2,-9
1511884276559554,-4,2,-1,-6,1,-2,-1,-3
1511884276574613,5,-4,-18,-6,11,8,4,8
1511884276574613,5,12,-27,-12,1,9,5,2
1511884276581636,-3,-1,0,3,8,2,2,-2
1511884276581636,-1,14,10,1,4,-4,-2,-5
1511884276597651,5,-19,-16,1,1,-1,2,13
1511884276597651,-5,9,-1,-3,2,-5,-2,-3
1511884276597651,-1,-6,2,-1,-8,-4,0,2
1511884276597651,1,1,-6,2,-1,-2,-2,-5
1511884276612730,-7,4,-8,2,-2,-3,-10,-8
1511884276612730,2,-1,-3,-2,-4,2,0,2
1511884276619780,-5,-2,40,5,-4,-1,-5,-4
1511884276619780,-4,-19,13,0,-5,1,-3,2
1511884276634760,-1,5,10,3,2,2,2,0
1511884276634760,-1,-6,-2,0,1,-4,2,8
1511884276641769,3,-2,-4,-1,5,-2,0,-5
1511884276641769,1,-6,-18,-6,0,-1,3,2
1511884276656814,-8,-3,-10,-5,-3,2,3,-8
1511884276656814,5,4,-5,0,-1,-1,-5,-6
1511884276664487,6,-6,-13,-4,-1,3,-1,-8
1511884276664487,4,6,0,0,-3,-1,0,-4
1511884276673511,-3,3,-5,-3,0,-5,4,9
1511884276673511,7,1,24,5,1,-4,6,9
1511884276679631,-5,-3,10,-1,-3,-5,-7,-4
1511884276679631,5,6,9,-3,-8,-1,-9,-2
1511884276694773,-6,5,2,1,-7,-4,-5,-7
1511884276694773,-1,-2,-19,-3,-1,-2,1,2
1511884276701589,3,7,-21,-4,2,1,6,8
1511884276701589,-8,-4,5,0,1,1,-3,-2
1511884276716745,-6,5,-8,-4,-3,-1,2,-5
1511884276716745,-4,-16,-19,-3,-6,-1,4,-2
1511884276724647,0,-6,-16,4,5,1,2,-2
1511884276724647,-1,2,-9,2,0,-2,0,0
1511884276733675,-2,-4,-5,-1,0,0,-2,-1
1511884276733675,11,18,3,0,5,1,-1,6
1511884276739687,-3,1,6,-7,3,3,-1,1
1511884276739687,-2,4,2,-3,4,0,-2,-2
1511884276754262,0,0,6,-1,0,-6,-6,-2
1511884276754262,6,5,3,-2,-3,-6,-2,7
1511884276761780,-2,0,1,-2,-6,-5,1,8
1511884276761780,-3,-1,4,-1,-4,1,-5,-2
1511884276777353,-3,-3,-1,-1,-3,2,-5,-3
1511884276777353,2,-12,2,5,0,3,-1,-2
1511884276784501,5,-4,-1,1,-2,1,0,-2
1511884276784501,3,-5,4,1,-2,-2,7,4
1511884276800419,1,-2,-9,-2,0,-3,2,-3
1511884276800419,-4,-5,-18,0,1,3,-3,-8
1511884276800419,-7,0,-27,-1,2,-1,0,-4
1511884276800419,-1,-10,-14,1,-1,2,-4,-2
1511884276814567,2,-13,-3,-6,0,-1,-4,5
1511884276814567,-2,0,12,0,-1,-3,-4,-1
1511884276821596,-3,0,8,1,-2,-4,1,-2
1511884276821596,-5,14,0,-4,-2,-3,2,-1
1511884276836561,-5,4,2,-2,2,2,4,-4
1511884276836561,-2,5,3,-5,3,0,1,-2
1511884276844676,0,7,3,1,-2,0,6,0
1511884276844676,2,3,9,1,-1,0,2,1
1511884276860208,-1,3,9,0,-1,3,0,-1
1511884276860208,-9,0,3,9,4,7,-3,-4
1511884276860742,-8,-5,7,0,7,5,-7,0
1511884276860742,4,16,3,0,2,-7,-4,2
1511884276874776,2,-3,-9,-2,-1,-7,-3,0
1511884276874776,-5,-2,12,0,-8,-6,-1,-6
1511884276881828,4,-1,-3,0,-7,-2,-2,2
1511884276881828,0,-3,-2,-4,-5,1,2,5
1511884276896828,-1,0,7,-5,-5,1,-4,-4
1511884276896828,-1,1,3,-4,-2,0,-3,-5
1511884276903876,-2,-2,6,2,-4,-2,3,-1
1511884276903876,-3,-2,2,4,6,1,9,6
1511884276919916,-3,-8,-2,2,5,0,5,-9
1511884276919916,8,3,0,2,3,2,3,7
1511884276920918,-3,-3,0,-5,-5,-3,-2,-4
1511884276920918,11,2,-4,1,1,-5,-4,5
1511884276933953,-1,-3,-9,-1,1,-1,-1,1
1511884276933953,-7,-4,-7,-6,1,0,-6,-4
1511884276941949,-6,-2,-5,-6,3,4,-2,-6
1511884276941949,3,5,-5,-4,1,1,3,4
1511884276957016,1,4,-1,-2,-2,-6,2,4
1511884276957016,-2,-1,5,-1,-5,-5,-4,1
1511884276963647,3,4,10,2,-3,2,-5,3
1511884276963647,3,-10,-2,-5,-2,6,-8,-10
1511884276979667,6,-1,1,0,-4,2,0,-2
1511884276979667,-1,-4,-7,-7,0,-4,4,-2
1511884276980670,0,0,4,-2,2,-3,3,4
1511884276980670,-5,7,4,-2,1,-2,-4,-6
1511884276993705,-1,-2,0,-2,-1,0,-3,3
1511884276993705,-5,3,5,4,-3,1,2,-3
1511884277001725,2,-6,2,7,-5,-3,1,-3
1511884277001725,8,-9,0,2,-5,-4,0,0
1511884277016767,7,5,2,2,1,0,3,7
1511884277016767,-1,-5,5,1,2,1,2,10
1511884277023783,-3,-2,-1,-2,1,3,-2,-3
1511884277023783,-7,-5,5,-3,-2,4,-1,-5
1511884277039827,3,1,0,0,-4,6,-4,-3
1511884277039827,0,-6,-9,-4,1,2,1,-3
1511884277040830,-8,-4,-6,0,1,-4,-1,-5
1511884277040830,-6,8,-5,-3,-4,-1,1,-2
1511884277054421,-5,-1,-2,-3,-3,-3,0,4
1511884277054421,0,-4,-4,-2,-3,-1,-2,-1
1511884277061914,3,-5,-3,-3,-1,-6,-2,1
1511884277061914,-2,0,-1,-1,4,-5,0,-3
1511884277076955,5,1,5,5,2,-3,-2,1
1511884277076955,-3,1,-10,4,-5,1,-5,-5
1511884277084002,-1,2,-13,2,-1,2,0,1
1511884277084002,-3,3,5,8,-5,-2,0,1
1511884277100041,-1,-1,-11,-6,-3,-7,0,-1
1511884277100041,4,0,-2,-2,0,-3,5,-1
1511884277101046,-1,1,1,-6,2,3,4,-1
1511884277101046,-6,-3,6,6,6,5,-2,-2
1511884277114056,-8,1,-11,1,2,5,-1,-4
1511884277114056,-1,-2,-5,-3,-1,2,-4,-2
1511884277122077,1,-5,-8,-4,-8,1,-4,0
1511884277122077,2,3,3,-3,-3,-2,2,1
1511884277137117,-3,-8,2,-3,-3,-4,-5,-2
1511884277137117,1,-2,5,1,1,-2,-2,5
1511884277144136,2,0,6,2,1,-2,-4,-2
1511884277144136,1,-3,4,-1,-3,0,-2,-1
1511884277160208,11,0,4,1,-2,-1,2,4
1511884277160208,-2,-1,3,0,-2,-6,-6,-8
1511884277160683,-4,2,15,4,2,-5,-3,-5
1511884277160683,-1,-10,-12,-5,1,-1,3,3
1511884277174278,-4,2,-2,0,2,-3,2,1
1511884277174278,-3,3,0,-1,1,1,4,3
1511884277181295,-1,6,-2,2,-2,-3,3,1
1511884277181295,-5,-9,1,1,-1,2,-3,-3
1511884277196308,-5,-10,3,5,3,3,3,0
1511884277196308,6,4,-2,-1,1,6,0,1
1511884277204358,-1,-2,-1,-1,1,1,3,-1
1511884277204358,-3,1,-5,-5,0,2,2,-2
1511884277219369,-2,3,-1,-6,-3,2,-5,0
1511884277219369,-3,3,-7,-15,-5,0,-2,2
1511884277220371,-5,0,-4,3,-2,1,-4,1
1511884277220371,1,1,0,5,-3,-3,-2,-1
1511884277234432,1,4,2,2,-5,-5,-6,-4
1511884277234432,3,0,-14,-1,-1,-2,2,-2
1511884277241428,7,6,4,-3,-1,-6,-2,-3
1511884277241428,-4,-8,1,3,-1,-4,-1,-2
1511884277257020,0,-2,8,6,-2,-1,1,-2
1511884277257020,-4,-6,21,7,-4,3,0,-2
1511884277264064,-3,-3,0,0,1,4,2,-1
1511884277264064,-1,-6,-4,3,2,1,-2,1
1511884277280114,-6,-1,1,-1,-3,-1,0,-2
1511884277280114,2,-3,1,-2,2,-2,-3,-2
1511884277280114,-2,0,-2,-7,6,-4,-3,1
1511884277280114,-2,-1,1,-2,5,-6,1,1
1511884277294151,-2,2,-1,-2,3,-2,-4,-3
1511884277294151,-3,-1,-6,-2,-3,1,0,0
1511884277301170,0,-3,-4,-3,-3,4,-1,-1
1511884277301170,-3,-12,-7,-2,-8,3,-2,0
1511884277316210,5,8,8,6,4,0,0,-2
1511884277316210,3,3,4,7,3,-3,3,3
1511884277324235,6,4,-3,4,-1,-1,-2,3
1511884277324235,-6,1,-7,-2,-6,-4,3,2
1511884277340277,2,-10,-1,-5,-8,-2,-1,-3
1511884277340277,6,-1,7,2,-2,-6,-6,1
1511884277340277,-1,3,4,-6,2,-1,3,2
1511884277340277,-3,4,-1,-6,2,2,0,-7
1511884277354310,-11,-4,-8,1,-1,0,3,-1
1511884277354310,-10,-2,-5,-1,-3,-6,-4,-3
1511884277361832,1,-6,-1,3,0,0,0,10
1511884277361832,-1,6,-2,-3,7,-1,-5,-9
1511884277377002,-2,-6,-5,1,8,3,-1,-5
1511884277377002,4,-5,3,5,-1,2,2,2
1511884277384019,3,3,-4,7,-7,0,-1,-2
1511884277384019,8,5,-4,9,-3,2,2,8
1511884277400065,7,4,-4,-2,-3,-2,0,5
1511884277400065,0,-4,-2,0,-1,5,1,-1
1511884277401066,-1,-6,-1,-3,-1,4,-6,-2
1511884277401066,5,3,5,1,-1,-2,-4,-5
1511884277414099,3,-2,1,-4,-1,-6,-9,-6
1511884277414099,-8,-2,-2,-4,3,4,1,2
1511884277422100,-10,1,-7,-5,1,4,4,-4
1511884277422100,9,9,4,-4,0,7,1,8
1511884277437134,-6,3,16,4,-4,3,7,-2
1511884277437134,-6,-3,-2,-1,-5,-5,0,-8
1511884277444153,-8,-8,0,-3,-1,-5,-1,-2
1511884277444153,-2,-7,3,3,4,-6,-4,-2
1511884277460211,0,-15,-14,-3,1,0,4,4
1511884277460211,-2,10,5,0,1,-3,1,-2
1511884277460712,4,-1,3,-2,0,-6,2,0
1511884277460712,7,-1,-4,-7,0,-6,5,9
1511884277475253,-3,1,2,-8,-1,-3,-1,6
1511884277475253,-1,-3,-3,-3,-2,-2,-3,-2
1511884277481269,-2,-4,-6,-3,0,-2,-4,-2
1511884277481269,1,-4,-6,-6,-5,-3,-7,-2
1511884277496310,-2,9,-1,-6,3,4,0,0
1511884277496310,-4,-3,-3,-3,0,-2,1,2
1511884277504357,-3,-4,3,0,-4,-6,-17,-10
1511884277504357,-15,-3,-2,-2,-6,0,-9,-8
1511884277519370,6,3,2,2,-6,-2,-3,1
1511884277519370,0,-3,-2,2,-2,-3,3,0
1511884277520373,7,3,-2,2,2,0,10,-2
1511884277520373,3,4,3,1,3,2,6,-1
1511884277535414,-3,-18,-1,-3,4,2,-2,-2
1511884277535414,8,9,4,-4,1,2,3,3
1511884277541431,-9,-6,-1,-2,-5,0,7,-4
1511884277541431,-2,0,-2,-4,-6,-5,-4,0
1511884277556976,-6,11,-4,-3,-5,-1,-1,0
1511884277556976,2,-7,-5,2,0,-2,-6,-1
1511884277564527,-10,-5,2,1,-1,-1,-1,0
1511884277564527,-1,0,-1,-3,5,2,6,2
1511884277579563,7,14,5,1,4,0,-1,-1
1511884277579563,2,0,3,2,0,-1,-2,3
1511884277586582,3,5,-1,0,-1,-3,-5,-10
1511884277586582,0,-4,-4,3,-4,-5,4,1
1511884277595579,2,-5,-3,-4,-6,-7,1,1
1511884277595579,-3,-8,-3,-3,-4,-5,-2,-3
1511884277601623,0,4,6,-2,2,2,2,13
1511884277601623,-6,-4,1,1,2,2,-4,-5
1511884277616636,-7,-4,1,0,1,1,2,-6
1511884277616636,-2,0,-2,-2,0,-1,4,-2
1511884277624680,13,1,-11,-6,1,-1,1,5
1511884277624680,-6,7,-1,3,-3,0,-2,-5
1511884277639707,5,7,-7,3,-3,1,-4,3
1511884277639707,0,8,-9,-2,0,3,-2,-1
1511884277646739,-2,-5,-6,-4,-1,-2,-4,-6
1511884277646739,5,4,3,0,-1,-3,4,2
1511884277655827,-7,-5,1,-1,-6,-2,3,-7
1511884277655827,-3,-2,8,0,-3,-2,1,-3
1511884277661865,-1,-2,12,3,-3,-2,-4,0
1511884277661865,-5,-12,-18,-10,4,2,0,-2
1511884277677094,-3,0,5,6,9,1,-4,-3
1511884277677094,8,-2,-4,-2,-2,-3,1,11
1511884277683990,-1,-1,0,4,-6,3,2,6
1511884277683990,-5,-3,-4,2,-2,-3,-2,-2
1511884277699030,-3,0,-4,1,0,5,0,1
1511884277699030,5,6,0,-7,2,5,-9,-6
1511884277707180,2,-9,-6,-5,1,-1,-3,5
1511884277707180,2,0,5,-1,-2,0,-1,-1
1511884277716072,0,-4,4,1,-3,0,2,7
1511884277716072,-5,-9,1,2,-2,0,0,-3
1511884277722093,-5,2,-1,0,-1,-3,1,-3
1511884277722093,-4,2,-17,-4,2,-2,4,-7
1511884277737290,4,5,-1,-1,-4,-9,3,0
1511884277737290,6,-1,0,1,-5,-3,5,1
1511884277744147,114,4,0,-2,1,3,0,-3
1511884277744147,104,5,10,8,1,1,-1,-5
1511884277759746,65,-1,-3,-3,5,0,0,-3
1511884277759746,-5,5,3,-3,-3,2,6,-1
1511884277766935,-63,0,-5,-6,0,-3,3,-1
1511884277766935,-64,1,10,3,-3,-3,-4,-2
1511884277781977,-65,-2,-3,5,3,0,0,-1
1511884277781977,-54,-6,0,2,4,0,-8,0
1511884277782975,-54,4,1,-3,-1,3,-2,2
1511884277782975,-31,2,4,-7,-8,3,-4,6
1511884277797012,-30,-3,-2,0,-8,1,-7,-6
1511884277797012,-19,2,-2,4,-2,1,-2,-5
1511884277804158,-26,1,-5,5,2,5,0,-1
1511884277804158,-40,-5,-5,-1,3,1,-1,2
1511884277819195,-36,13,1,0,2,-2,1,4
1511884277819195,-18,-5,1,-2,4,-4,-4,0
1511884277827130,-15,-5,1,-1,2,-6,-2,0
1511884277827130,-2,-3,-3,-4,-6,0,-1,0
1511884277842141,29,-4,0,-3,-8,3,-3,4
1511884277842141,31,3,1,-1,-5,-1,0,-2
1511884277843143,29,-1,0,5,-3,-1,3,-3
1511884277843143,18,-2,0,0,1,-1,1,-8
1511884277857261,20,2,2,-2,4,-5,-6,-8
1511884277857261,22,-2,1,-2,4,-3,3,0
1511884277863932,12,-7,-7,-1,3,-7,0,-5
1511884277863932,13,-7,-3,1,2,-5,-2,3
1511884277878969,3,-18,-7,0,0,1,3,4
1511884277878969,8,4,1,7,-1,0,3,2
1511884277886991,2,-5,1,1,-4,5,3,2
1511884277886991,7,6,0,-2,-6,5,1,-1
1511884277902058,0,-3,-3,-9,-3,2,-2,0
1511884277902058,9,-5,21,0,-4,-6,-9,-1
1511884277903034,-1,7,7,-3,-4,-3,-3,-3
1511884277903034,-3,1,-4,-7,-4,1,1,1
1511884277917099,-2,6,-4,-1,5,2,3,-1
1511884277917099,3,9,-3,2,3,1,0,-3
1511884277924117,-3,-6,-9,3,1,2,-2,-2
1511884277924117,2,-7,2,0,2,1,-1,4
1511884277939130,-5,-4,4,-5,-4,0,-2,1
1511884277939130,-3,-3,-10,-5,-7,-1,1,-1
1511884277947679,7,5,8,2,-5,-4,-1,-1
1511884277947679,-11,3,-6,3,0,-4,0,-7
1511884277962718,8,-3,-6,-4,-2,-5,1,-2
1511884277962718,-1,-2,-4,-1,2,-5,-1,-3
1511884277962718,-5,-1,-6,2,5,-1,-5,-2
1511884277962718,3,-3,1,2,5,6,-4,3
1511884277976842,-1,5,-12,-3,4,4,1,-2
1511884277976842,-9,1,0,1,0,3,3,0
1511884277983835,2,-2,-2,-6,-8,0,2,2
1511884277983835,8,-2,-2,1,-6,-1,3,3
1511884277998875,2,-5,0,2,-2,-3,-1,3
1511884277998875,-2,-5,1,-2,2,1,-1,0
1511884278006901,-4,5,2,-1,1,0,-1,0
1511884278006901,-1,-1,4,-3,-3,-1,-1,-6
1511884278021962,3,4,1,2,-6,1,0,-1
1511884278021962,5,-2,-7,0,0,0,-4,-5
1511884278022938,2,4,3,1,3,-1,-2,3
1511884278022938,-4,3,-4,2,5,-4,-4,9
1511884278037002,-12,1,3,0,6,-4,-4,-6
1511884278037002,2,-2,-4,-4,0,1,3,5
1511884278044021,-5,-5,-4,-8,1,1,-1,-7
1511884278044021,7,-4,-3,-2,-5,-1,4,3
1511884278059588,9,4,-5,1,-5,2,0,-2
1511884278059588,-2,-5,-8,-3,-4,1,-3,-1
1511884278067142,2,6,-2,1,-3,2,3,-1
1511884278067142,-10,-4,5,-2,0,-3,-3,-6
1511884278082176,-5,11,15,4,3,-6,-3,-6
1511884278082176,-2,-9,-5,-2,-3,-4,-2,-4
1511884278083159,0,-2,1,0,1,1,1,2
1511884278083159,0,-1,1,4,4,2,-3,-4
1511884278096215,8,-7,15,4,-1,-1,-1,7
1511884278096215,4,4,6,3,1,-3,-1,0
1511884278104213,0,-7,-9,0,-4,3,3,-3
1511884278104213,-4,3,-9,-8,-7,3,3,1
1511884278119281,-13,-6,-6,-3,-2,0,-3,0
1511884278119281,-5,0,2,2,-2,-2,1,3
1511884278127274,-3,13,9,4,1,-8,-4,3
1511884278127274,2,-6,-4,2,0,-1,-3,-2
1511884278142315,4,-6,-4,2,-4,2,1,4
1511884278142315,-11,-7,-8,-1,-3,2,0,-11
1511884278143317,17,7,2,0,0,-2,3,11
1511884278143317,0,2,3,-2,-5,-3,4,5
1511884278156857,-1,1,-1,-6,0,-3,-5,-9
1511884278156857,7,6,1,-4,7,-3,-2,4
1511884278164004,-5,-12,-4,-5,3,-6,0,-14
1511884278164004,5,1,6,1,2,-2,-2,0
1511884278179039,0,-3,-2,5,0,3,-1,1
1511884278179039,1,-1,-5,6,-1,8,3,6
1511884278187047,-4,0,-2,0,1,3,-3,-1
1511884278187047,4,-4,1,-3,1,1,-2,6
1511884278202073,-5,-3,0,-4,-7,0,0,-5
1511884278202073,3,11,-5,-2,-4,-3,3,2
1511884278203076,-15,-17,-9,4,-1,-4,0,-3
1511884278203076,-3,23,6,3,-1,-5,-1,-8
1511884278217113,-2,-3,-1,-5,2,-1,2,-1
1511884278217113,6,1,8,-6,-2,-4,-2,-5
1511884278224159,0,-1,-8,-6,0,2,-6,-6
1511884278224159,4,-5,-3,-3,0,-1,-1,-2
1511884278239200,3,1,-3,-2,-1,-2,3,4
1511884278239200,8,-7,3,2,6,3,3,2
1511884278247721,4,-8,-7,0,-3,3,4,4
1511884278247721,-4,0,-2,4,-1,1,-2,-4
1511884278262763,-6,2,2,5,2,4,2,0
1511884278262763,-8,-4,-1,1,1,5,-3,1
1511884278262763,-5,6,0,0,-1,3,-3,2
1511884278262763,-4,-6,-12,-4,0,-4,0,5
1511884278277016,7,-1,-4,-3,-6,-9,1,8
1511884278277016,0,-1,-10,-8,-9,-2,-4,2
1511884278284035,4,0,0,-4,-4,-3,-4,2
1511884278284035,-2,-2,3,-4,-3,-4,-3,2
1511884278299078,-2,0,0,6,8,-3,-2,-1
1511884278299078,-6,0,-5,8,4,-3,-1,-8
1511884278307099,-1,12,10,2,3,-3,-3,-6
1511884278307099,0,1,4,-2,-1,1,3,-2
1511884278322147,3,-4,0,-2,-6,3,3,-3
1511884278322147,-10,-6,12,3,0,2,-3,-13
1511884278323121,-5,-13,-3,-3,-8,0,-2,-2
1511884278323121,4,2,-4,-1,-1,-3,1,6
1511884278336183,14,2,-8,-3,-3,-9,-7,2
1511884278336183,-4,2,-2,-2,-2,-1,3,1
1511884278344204,-3,9,5,5,1,-2,2,-5
1511884278344204,-9,-15,12,-2,-3,3,0,-7
1511884278359237,-6,-7,-6,0,0,1,3,-2
1511884278359237,3,5,1,-4,-4,-3,-4,4
1511884278366285,-7,9,8,-3,5,1,-5,1
1511884278366285,1,15,-12,-1,0,5,0,4
1511884278382327,-14,-11,-4,1,0,-1,-5,-14
1511884278382327,4,-25,10,0,4,-5,0,3
1511884278383333,1,-5,-1,-1,4,4,1,2
1511884278383333,4,2,14,0,2,-3,-3,3
1511884278396337,-6,-4,-4,-1,-4,-6,0,-1
1511884278396337,18,3,-4,-5,4,-5,3,15
1511884278404384,3,-14,-8,1,-5,-1,1,-5
1511884278404384,2,-2,-2,0,-2,2,3,0
1511884278419400,-2,9,1,-6,1,-4,1,-6
1511884278419400,-10,0,-2,3,-8,-9,-4,-4
1511884278426452,5,6,-2,-1,1,-2,1,13
1511884278426452,-1,4,-7,-2,-4,1,-2,-11
1511884278442491,-4,11,9,1,-8,6,-1,0
1511884278442491,-7,3,-1,0,-5,8,-1,1
1511884278443464,-9,-10,4,-2,-3,1,-5,-4
1511884278443464,8,-13,-5,4,4,-3,-9,8
1511884278457001,6,-4,4,1,7,-5,-7,5
1511884278457001,-1,3,-5,-1,1,-4,-6,-6
1511884278464553,0,7,1,1,-3,-4,-4,3
1511884278464553,5,1,-5,-8,-10,-3,0,1
1511884278480595,-2,-3,1,-3,-1,5,1,-7
1511884278480595,-6,9,-6,4,1,12,12,-4
1511884278486642,-13,-18,-11,3,-6,-3,6,-2
1511884278486642,7,0,-5,1,-11,-2,-4,-21
1511884278502655,-13,3,6,1,12,6,8,-4
1511884278502655,6,-3,1,5,-1,0,-2,-9
1511884278502655,-5,-5,-26,-7,11,5,9,7
1511884278502655,-10,0,-12,-5,-4,-4,6,6
1511884278524729,-2,-1,-7,-4,-7,-5,2,9
1511884278524729,-2,-8,7,-9,0,-4,1,-2
1511884278525716,17,3,23,2,-2,-7,-4,0
1511884278525716,3,-8,18,4,8,0,0,2
1511884278538778,8,-4,-2,-2,6,-4,-5,-2
1511884278538778,2,1,-1,2,1,-5,1,3
1511884278546805,3,2,-7,-1,-2,-3,0,-4
1511884278546805,-8,-5,-4,2,0,4,1,-1
1511884278561815,-3,5,7,6,-3,3,3,3
1511884278561815,4,-6,-15,1,-11,3,4,6
1511884278569838,1,8,3,5,-4,1,-5,-2
1511884278569838,-9,3,3,6,11,1,-6,-1
1511884278576888,2,-3,-3,1,-1,3,-5,5
1511884278576888,-6,1,4,-8,-4,-6,-11,1
1511884278583906,-8,-5,12,-10,-10,-5,2,-2
1511884278583906,3,-4,-18,-9,0,-4,0,-2
1511884278598945,8,4,-3,-8,-5,0,0,1
1511884278598945,-1,-1,-6,7,2,4,-1,-4
1511884278606966,2,4,-1,0,-8,3,-3,-3
1511884278606966,-4,-1,-1,-2,-8,-4,-3,2
1511884278622091,-2,2,6,-2,-1,-1,-1,-1
1511884278622091,-8,2,0,6,1,-1,-3,-4
1511884278630114,2,4,-5,1,2,1,-1,2
1511884278630114,-2,-8,2,7,-10,0,1,-2
1511884278637145,3,3,-12,-8,-19,-11,-1,-2
1511884278637145,2,5,4,0,26,5,2,-1
1511884278644163,5,2,-1,5,8,3,1,-2
1511884278644163,1,2,-2,1,3,-1,-4,-3
1511884278659579,3,-12,6,5,1,-4,0,-2
1511884278659579,8,0,-6,-11,-2,-4,0,0
1511884278666283,0,1,-3,-4,5,-3,-2,1
1511884278666283,-8,-6,7,4,6,-2,-1,-3
1511884278681327,-3,1,-2,1,-3,0,3,5
1511884278681327,-18,-1,-2,-4,-10,-2,4,2
1511884278690463,3,0,-3,-6,2,6,2,10
1511884278690463,7,7,-4,-5,1,-2,3,1
1511884278696366,-1,-2,6,-2,-3,3,-5,-2
1511884278696366,-2,0,3,15,-3,-7,-7,-10
1511884278704388,-7,7,-30,-3,-3,-3,-6,-11
1511884278704388,-9,0,-7,12,1,-2,-6,-10
1511884278719427,1,7,-14,-4,17,2,-2,-1
1511884278719427,-1,-6,0,-6,5,5,-2,2
1511884278726445,0,-7,8,6,3,-2,-4,-2
1511884278726445,3,0,5,-4,-6,-6,3,-2
1511884278741488,1,-10,1,11,-7,-3,3,-4
1511884278741488,3,2,5,-17,-10,-6,4,1
1511884278750010,-5,-6,9,-2,-8,2,5,3
1511884278750010,-2,7,3,-39,-6,4,-1,3
1511884278765138,-5,4,7,39,7,4,-6,-2
1511884278765138,0,0,3,-8,-3,-4,-1,2
1511884278765138,1,-7,-1,3,1,1,7,-1
1511884278765138,0,-3,12,7,1,3,1,-1
1511884278779149,-1,0,-14,-13,-1,4,-2,0
1511884278779149,4,3,-7,0,-4,2,-2,5
1511884278787171,-2,5,-8,-5,2,-26,-5,-8
1511884278787171,5,3,-1,2,2,-25,-1,7
1511884278802234,-1,13,-7,-17,0,-26,2,3
1511884278802234,2,6,-10,-2,-5,-16,-1,-2
1511884278810350,6,19,-7,-12,-2,2,4,0
1511884278810350,6,-1,-17,-1,-1,8,2,1
1511884278825271,1,-14,-10,-7,-5,2,-4,-3
1511884278825271,1,2,-11,-11,2,7,-1,0
1511884278825271,-4,-6,5,11,4,7,0,-1
1511884278825271,-8,-15,-12,4,-3,5,4,-2
1511884278839495,1,-1,10,0,9,8,7,3
1511884278839495,-1,2,-5,-8,2,5,5,-3
1511884278846444,5,12,0,-12,3,8,-1,13
1511884278846444,8,23,34,6,0,13,-4,11
1511884278861873,-5,-7,1,3,-10,6,-12,-2
1511884278861873,-8,-11,1,-13,-2,1,-3,-2
1511884278870058,-4,-7,2,10,-16,-6,-2,-7
1511884278870058,-9,6,6,5,-8,0,7,-6
1511884278885093,-1,-10,2,-11,-4,3,2,-5
1511884278885093,12,7,12,13,-5,4,3,-2
1511884278885093,3,-3,-4,-3,1,6,-2,-4
1511884278885093,-3,-3,-7,1,3,6,0,-1
1511884278899100,0,3,1,1,-1,4,3,-2
1511884278899100,-2,-5,-12,3,0,5,-1,4
1511884278906146,-6,0,-6,-3,1,0,-2,-12
1511884278906146,0,-3,0,-5,9,4,0,-3
1511884278921194,-1,-1,2,0,6,1,0,-5
1511884278921194,5,-5,0,10,-4,-1,-2,2
1511884278930211,7,-4,6,2,-5,-1,-2,5
1511884278930211,-3,-4,1,-3,3,3,-4,2
1511884278945223,-7,1,-9,-14,-7,2,1,4
1511884278945223,-14,-19,-5,6,-5,5,1,-5
1511884278945223,0,-13,0,-5,0,9,1,11
1511884278945223,4,7,-13,7,-1,-4,-1,1
1511884278959290,4,7,1,1,3,-5,-1,2
1511884278959290,-4,-4,-4,-25,-4,-7,-6,-7
1511884278966940,-3,14,9,3,6,-5,1,-4
1511884278966940,1,-15,1,0,4,-2,0,2
1511884278981983,-10,-6,-16,6,-4,-5,-6,-12
1511884278981983,9,24,13,5,8,0,2,7
1511884278990006,-2,-8,-1,3,-1,-5,0,1
1511884278990006,-11,-2,3,-1,-1,-1,1,0
1511884279005018,10,4,16,2,-5,-3,-4,-3
1511884279005018,5,10,14,9,-1,-1,-3,5
1511884279006020,3,8,4,-5,0,-2,-3,-3
1511884279006020,-3,-4,3,5,-6,-7,-1,-6
1511884279019055,-11,-7,19,4,2,-5,0,1
1511884279019055,4,-10,-8,2,5,4,3,9
1511884279027077,0,-7,-5,7,-3,1,-2,-1
1511884279027077,-1,8,-34,-4,-4,-1,-3,-2
1511884279042116,-3,-20,-49,-9,-4,4,-1,-1
1511884279042116,-1,4,-13,5,0,-3,1,0
1511884279050139,-10,-21,-4,5,0,-4,0,2
1511884279050139,1,9,8,0,-1,0,-4,-5
1511884279065060,4,15,11,-2,4,-1,-2,7
1511884279065060,-2,-2,-5,-3,4,-5,-2,-5
1511884279066061,3,6,17,-2,-2,-8,3,-5
1511884279066061,3,-2,9,-1,2,-2,-1,1
1511884279079126,-5,3,-3,3,1,3,4,1
1511884279079126,-7,-27,-5,-5,3,2,5,0
1511884279087117,13,17,34,-8,-13,-5,-6,-6
1511884279087117,1,-14,27,3,-1,0,1,0
1511884279102157,-1,0,29,5,0,4,2,3
1511884279102157,6,10,25,1,-2,2,-1,6
1511884279110214,-3,9,17,4,0,3,8,6
1511884279110214,-8,14,20,4,-1,-9,-5,-8
1511884279125219,0,-5,17,12,-4,-8,-1,4
1511884279125219,-16,-5,-18,3,-2,-4,-8,-18
1511884279125219,6,-2,-28,-4,5,1,0,5
1511884279125219,3,-2,-13,-6,3,-2,-4,1
1511884279139256,1,2,-18,-6,3,-1,1,-4
1511884279139256,1,-2,-2,-2,-6,3,-4,1
1511884279146275,-8,-5,15,6,-13,-5,-8,-9
1511884279146275,-3,-11,-17,-4,12,6,7,5
1511884279161819,1,-5,0,-3,2,-7,0,4
1511884279161819,3,1,-5,-2,1,-3,0,1
1511884279169340,-3,3,-16,-5,10,6,-1,-5
1511884279169340,4,-10,-10,0,-1,2,-4,-8
1511884279184381,10,6,-6,4,3,8,-2,-2
1511884279184381,-5,-25,-7,3,-4,2,-5,2
1511884279185384,-5,-9,2,-2,-2,5,1,5
1511884279185384,-3,-3,11,2,-6,-3,-2,4
1511884279199450,-2,1,4,-4,-4,-6,-1,1
1511884279199450,0,0,0,7,2,-10,-1,-5
1511884279206468,-7,-9,-19,-3,6,-7,-1,-1
1511884279206468,13,-1,-18,-6,-1,1,3,10
1511884279221506,3,3,-2,-8,-4,3,4,-2
1511884279221506,-2,17,-14,-14,1,5,2,-2
1511884279229531,-7,5,-26,-13,-3,3,-2,-6
1511884279229531,-11,0,5,6,-2,-2,-4,-7
1511884279244541,7,-1,-6,2,2,3,-1,3
1511884279244541,1,2,6,9,0,-2,0,0
1511884279245542,4,-4,-5,3,-4,1,4,6
1511884279245542,-8,10,-9,-6,-7,0,0,-11
1511884279259146,-2,-5,0,-1,-7,-1,2,1
1511884279259146,0,-3,-4,2,8,3,1,2
1511884279266165,3,-10,-2,7,4,-1,-10,-6
1511884279266165,3,-3,-6,2,6,0,0,4
1511884279281204,-5,2,7,-2,-3,0,0,4
1511884279281204,-10,-5,8,-5,-6,-1,-1,1
1511884279290228,4,21,38,0,-8,-4,-1,0
1511884279290228,-6,-18,-8,4,-6,-9,6,2
1511884279305270,-3,3,-39,5,2,-5,-2,-13
1511884279305270,-7,-4,-49,6,1,-4,5,-7
1511884279305270,0,-3,-22,4,8,1,2,-6
1511884279305270,12,-4,-7,-2,0,1,-1,1
1511884279349923,7,4,5,-6,3,-3,1,5
1511884279349923,4,8,26,-1,-6,-3,-4,-1
1511884279358414,-4,-8,0,-6,-4,0,-3,4
1511884279358414,-2,-4,21,-5,-2,4,-2,3
1511884279363963,-9,-9,5,-2,-5,-15,-10,-5
1511884279363963,-2,6,16,0,-4,-4,-1,2
1511884279371985,-7,-1,6,1,4,-4,-3,-10
1511884279371985,2,-10,5,-4,1,-1,-2,3
1511884279379003,7,23,6,2,3,2,0,1
1511884279379003,0,0,6,2,1,1,2,-4
1511884279387997,3,-6,-3,-6,-2,-1,2,7
1511884279387997,-5,10,-4,-3,2,-2,-1,-6
1511884279403069,1,-11,10,-2,5,2,-1,3
1511884279403069,-5,-4,9,-11,0,-2,-6,-2
1511884279405074,-9,-8,15,5,0,-3,-1,-12
1511884279405074,-1,-5,-7,5,1,1,5,1
1511884279417097,10,7,-4,-2,-5,0,2,2
1511884279417097,-5,-4,-24,-4,-3,-4,-4,-3
1511884279424092,-8,3,-3,1,-5,-4,-1,7
1511884279424092,-13,12,-2,-3,-6,-5,-3,-2
1511884279431139,-6,2,-3,-2,-1,0,4,-7
1511884279431139,11,-2,3,-4,-8,-3,4,-9
1511884279441137,4,-4,-20,-3,-5,-2,-4,-4
1511884279441137,10,9,-27,-1,-6,-2,-2,1
1511884279455709,2,5,-2,1,-1,2,0,8
1511884279455709,1,-15,-33,3,8,2,-2,15
1511884279457187,0,1,-33,2,6,4,-1,14
1511884279457187,-7,-2,-12,-4,2,0,-5,5
1511884279469529,-11,-15,12,2,-2,1,-8,-4
1511884279469529,-1,7,21,-8,-9,-2,-3,-7
1511884279478581,4,4,18,-4,-4,-6,-4,-5
1511884279478581,2,-7,21,3,-3,-7,-3,-7
1511884279492589,3,-8,6,-5,3,-3,7,8
1511884279492589,-11,-2,25,7,3,-5,-2,-35
1511884279494595,14,-2,6,2,0,5,9,6
1511884279494595,-1,2,6,-4,-4,2,-2,-12
1511884279515678,-5,-1,13,0,-5,2,-4,0
1511884279515678,-1,13,21,3,-1,-1,0,9
1511884279516681,-15,-3,5,-2,-6,-1,-7,-6
1511884279516681,2,-11,-3,0,-1,4,4,4
1511884279528713,2,4,10,5,-2,6,2,1
1511884279528713,-4,3,1,-7,-1,-2,-4,-5
1511884279537736,2,-2,6,-6,1,-6,0,-7
1511884279537736,5,-5,-5,1,8,-3,3,5
1511884279553282,-2,-4,-5,-1,-3,-3,0,-5
1511884279553282,14,3,0,2,0,-1,-3,7
1511884279554782,8,-1,-10,-1,1,6,-1,0
1511884279554782,2,14,0,2,0,7,-2,2
1511884279575662,-5,-1,0,0,4,7,-3,-9
1511884279575662,-7,1,14,1,-1,-3,-1,4
1511884279576636,-9,-4,2,-9,-8,-6,-6,-2
1511884279576636,-6,-1,4,12,3,1,1,-4
1511884279588703,-3,-3,-8,-13,3,-5,-1,-6
1511884279588703,-2,-1,-19,0,3,9,7,1
1511884279597693,-5,-3,-11,5,5,-6,5,-6
1511884279597693,5,0,5,0,-3,-6,0,-2
1511884279612765,5,-6,12,-4,-5,-4,4,7
1511884279612765,10,4,-4,-4,-5,5,1,0
1511884279614737,1,-3,-9,-1,-1,1,-5,-6
1511884279614737,1,-4,-9,-11,-7,1,-6,-3
1511884279627896,7,-1,-9,3,-5,0,-1,12
1511884279627896,-11,-3,-10,-2,1,1,8,1
1511884279627896,-6,4,4,4,-1,-3,9,-3
1511884279627896,-9,5,11,10,1,-7,0,-10
1511884279641810,-2,3,-8,6,2,-1,-8,-7
1511884279641810,-2,-3,-3,-3,-1,-1,-5,2
1511884279650436,-1,-5,-8,-4,-3,6,1,1
1511884279650436,-3,3,1,-8,-1,2,-1,3
1511884279664530,-4,-11,-1,0,-2,-2,-5,-6
1511884279664530,-4,-8,3,2,4,-9,-9,-6
1511884279672737,-2,-6,-7,-4,2,-3,-6,13
1511884279672737,-1,-13,12,7,-4,-2,-3,5
1511884279687700,-3,3,0,-4,0,2,0,7
1511884279687700,-2,-2,2,-3,-1,-1,-4,9
1511884279688628,1,5,0,0,2,1,1,5
1511884279688628,3,6,-16,-19,-3,-2,2,-2
1511884279701626,-1,-1,4,6,-4,0,2,-17
1511884279701626,5,-11,3,-3,-1,-4,5,-5
1511884279709651,5,-3,-5,8,1,4,1,-4
1511884279709651,6,2,-5,-9,4,2,-2,-5
1511884279724743,-5,1,-10,-3,0,-1,4,-2
1511884279724743,-1,-2,15,7,-3,-3,-8,3
1511884279732712,-7,-1,10,5,1,0,-1,1
1511884279732712,-8,1,5,8,3,1,1,4
1511884279747748,-2,4,-3,-4,5,4,0,4
1511884279747748,-1,6,-3,-1,4,3,4,-2
1511884279748251,-1,-1,6,-5,0,-5,0,-12
1511884279748251,4,-5,6,2,-8,-9,-5,-3
1511884279761791,-2,-1,1,5,0,-7,-3,0
1511884279761791,1,-1,-4,3,0,2,-5,2
1511884279769936,-4,-2,2,-1,-1,4,1,-2
1511884279769936,0,5,-16,-8,-2,1,4,3
1511884279783985,5,-2,8,0,-8,-1,-3,-6
1511884279783985,5,6,-14,-6,-6,2,-3,-2
1511884279792912,6,15,-7,-1,-2,-1,4,1
1511884279792912,0,2,-3,-2,-1,-3,-1,-7
1511884279807961,-3,0,-12,-4,0,-1,-2,-7
1511884279807961,-5,-1,2,5,-8,0,1,0
1511884279807961,-3,3,7,-3,-3,-1,-2,4
1511884279807961,-4,4,-2,11,10,3,-4,7
1511884279821968,-4,-1,-6,-6,-1,3,0,3
1511884279821968,-3,-8,5,0,3,0,4,-1
1511884279830167,-1,-5,-5,1,2,-1,3,-5
1511884279830167,-3,-6,0,1,-5,-10,0,-1
1511884279844115,-4,-8,-3,2,4,-6,-4,-4
1511884279844115,11,0,-4,-3,0,-1,5,10
1511884279852620,1,-2,-6,-3,-3,3,1,0
1511884279852620,5,1,3,-6,-4,5,-2,-4
1511884279867041,-5,-1,0,-7,-5,1,-2,-6
1511884279867041,-2,5,0,-5,-5,0,-5,-4
1511884279868043,-1,7,4,-1,0,-1,-6,-2
1511884279868043,-8,-11,-1,0,-4,0,-3,0
1511884279890097,3,5,-4,-4,1,3,1,6
1511884279890097,-7,0,-12,3,4,0,-5,-2
1511884279891099,-5,-4,-2,3,-2,1,-2,-5
1511884279891099,11,1,1,6,1,-4,6,3
1511884279904134,-7,-2,-11,-2,4,-8,3,-6
1511884279904134,27,5,-2,1,-3,-4,4,9
1511884279912154,-4,1,-14,-7,-5,2,2,-4
1511884279912154,-7,-6,-7,-3,-5,2,0,-3
1511884279927195,7,8,2,3,-3,5,1,1
1511884279927195,-10,-12,-6,3,1,2,-4,-4
1511884279928199,-1,-12,-7,-1,-1,-3,-3,3
1511884279928199,0,1,-17,-1,2,2,-1,-1
1511884279941233,0,11,-11,-1,1,-3,-3,1
1511884279941233,-9,-4,5,1,2,-5,-2,-4
1511884279950282,2,-2,4,-1,5,-5,-5,5
1511884279950282,-7,-1,-1,-8,2,-1,-3,-1
1511884279964297,-9,-14,32,12,-1,-1,-4,-4
1511884279964297,1,3,15,-3,-5,-1,3,-1
1511884279972353,0,-11,15,-5,-4,-3,1,4
1511884279972353,3,9,-2,-8,1,2,2,-1
1511884279987358,10,7,7,-3,1,3,1,-2
1511884279987358,1,7,-10,-4,-3,2,2,-3
1511884279988360,-6,-11,3,4,-3,-2,0,4
1511884279988360,-9,0,-4,3,-1,3,0,2
1511884280001395,-7,-8,-7,-4,-6,0,-3,-5
1511884280001395,5,7,-4,-4,2,-1,-3,-2
1511884280009444,5,1,-11,-7,3,-1,-6,-7
1511884280009444,7,4,3,-10,0,-3,-4,1
1511884280024484,-2,-11,-6,0,-2,0,3,5
1511884280024484,-5,-8,13,6,-1,0,5,-4
1511884280032479,5,0,0,1,-2,1,-2,0
1511884280032479,-3,-9,7,6,-5,-5,-1,2
1511884280047545,0,2,-8,-2,-4,-5,-5,-2
1511884280047545,-8,1,-14,3,2,-6,-5,-5
1511884280048522,1,-2,4,8,2,3,1,7
1511884280048522,-4,8,4,4,-1,6,0,0
1511884280061587,-5,6,-3,-6,-5,8,2,4
1511884280061587,-7,-4,2,-5,0,6,1,9
1511884280070137,-7,-2,-3,-8,0,2,-4,-3
1511884280070137,-4,6,5,-3,0,-5,-3,-5
1511884280084203,-4,-17,-12,-2,0,-16,2,-6
1511884280084203,5,-4,-2,1,1,-16,2,-3
1511884280092226,1,2,2,0,2,-17,4,-1
1511884280092226,5,-11,5,-1,8,-9,5,2
1511884280107265,-4,1,6,2,2,0,-1,-10
1511884280107265,23,15,1,1,-3,15,0,12
1511884280108238,0,9,0,0,-6,13,-2,-5
1511884280108238,3,-6,-2,2,-3,5,2,4
1511884280121302,0,0,4,0,-4,4,2,3
1511884280121302,-9,-3,10,2,0,2,-2,-1
1511884280130306,0,-10,-9,0,-8,1,-10,-3
1511884280130306,-3,-5,0,5,-2,1,-10,2
1511884280144332,-1,10,-15,-1,6,-2,-5,-2
1511884280144332,-2,-6,-7,-1,0,-6,3,5
1511884280152358,-8,7,5,6,1,1,6,-13
1511884280152358,-8,-8,-2,-2,-3,1,4,0
1511884280167399,1,1,3,-2,-4,3,-2,4
1511884280167399,-6,-7,-3,-6,-1,-2,-3,-1
1511884280168401,6,2,6,-3,6,0,0,2
1511884280168401,1,0,-4,-4,0,-1,-3,-9
1511884280181436,7,0,-9,-2,-3,-2,4,6
1511884280181436,-6,-4,-1,0,0,-8,-3,-12
1511884280189491,7,-2,3,1,-1,-4,2,7
1511884280189491,-5,-1,24,5,-3,-3,-8,-6
1511884280204526,-1,-5,-2,3,1,2,-12,-2
1511884280204526,-9,1,0,1,-3,2,-6,-1
1511884280212549,-9,1,3,0,-3,-6,7,0
1511884280212549,-1,0,0,-1,-6,0,6,4
1511884280227586,0,-5,0,-4,-3,0,0,3
1511884280227586,-3,-1,-10,2,-3,3,1,-6
1511884280227586,4,10,-7,2,-1,5,6,-3
1511884280227586,2,-5,-6,-4,1,1,8,-4
1511884280241597,3,21,7,-3,6,-4,0,7
1511884280241597,6,-15,-11,0,4,3,-6,9
1511884280250180,-6,-6,-14,-5,4,-4,-11,4
1511884280250180,-3,-2,-8,-3,3,1,0,1
1511884280264186,-2,-11,1,-1,2,-2,-1,-6
1511884280264186,2,-1,9,-2,-4,-6,3,-5
1511884280272599,-3,3,1,-4,-1,-6,-1,2
1511884280272599,-9,-2,-8,-4,-2,-2,1,-7
1511884280287639,-2,6,4,-1,-4,-4,0,-5
1511884280287639,3,5,4,4,-3,4,1,-6
1511884280287639,7,0,-3,2,3,8,1,-1
1511884280287639,0,5,-4,0,4,6,-4,0
1511884280301703,-1,1,-20,0,5,1,4,6
1511884280301703,-6,-1,-26,-1,-3,-8,-1,-1
1511884280309728,1,-10,-25,2,-9,-6,-3,2
1511884280309728,8,14,-2,-3,-6,-8,-8,-3
1511884280323766,-5,-16,-5,1,-6,1,0,1
1511884280323766,-5,0,4,-8,-1,2,0,-9
1511884280332793,-1,-2,10,-7,-1,6,3,0
1511884280332793,11,7,10,-2,-2,6,2,8
1511884280346797,0,-10,7,-4,-1,7,-1,6
1511884280346797,0,0,11,3,3,1,-1,4
1511884280347800,-6,3,2,-3,-1,-3,4,-2
1511884280347800,-8,-2,1,2,-2,-10,-4,0
1511884280361839,-3,2,1,1,-2,-6,-3,-9
1511884280361839,0,-2,-11,1,0,-2,-8,-1
1511884280369864,6,0,-2,3,2,1,-4,3
1511884280369864,1,-3,-4,-6,6,2,1,1
1511884280383901,2,-13,5,0,0,-1,3,4
1511884280383901,0,8,1,-7,-1,-4,0,-3
1511884280391923,12,4,5,-2,-4,-6,3,1
1511884280391923,-1,11,-1,3,-2,-5,2,-5
1511884280406989,1,-19,-9,1,4,-3,1,-2
1511884280406989,-9,-12,17,9,6,1,0,-10
1511884280414982,0,-5,9,3,1,3,-3,5
1511884280414982,3,9,-2,0,-2,4,-7,2
1511884280422027,-2,8,10,2,1,4,-1,-3
1511884280422027,1,-3,-4,0,-4,-2,1,3
1511884280430053,-9,-4,0,-3,-3,-2,-3,-5
1511884280430053,-5,-11,-3,-2,-5,-9,-2,-6
1511884280444060,6,9,0,0,-7,-11,-2,2
1511884280444060,-1,6,17,6,1,-7,-6,-3
1511884280452585,-4,-2,-6,-3,4,-3,0,-6
1511884280452585,-10,-8,2,2,2,6,-1,-2
1511884280466673,-9,11,1,2,-3,5,0,-1
1511884280466673,-6,-7,-9,2,-6,2,-2,-1
1511884280474665,-1,-10,4,3,-5,1,5,1
1511884280474665,5,-6,-3,-2,-1,1,4,-1
1511884280481684,8,-2,-1,-2,-1,5,2,2
1511884280481684,-3,1,2,-2,0,1,3,-4
1511884280489705,7,13,3,0,1,0,0,3
1511884280489705,3,-4,1,0,2,1,0,4
1511884280503743,2,-1,7,4,-1,0,-5,-3
1511884280503743,-5,-5,-3,1,-3,8,-3,4
1511884280512779,0,9,-5,-1,-4,1,-4,-8
1511884280512779,-7,0,-1,0,-2,-4,0,4
1511884280526804,3,9,-4,-2,2,-1,1,8
1511884280526804,-2,1,-7,-1,5,-2,-1,1
1511884280534851,-3,-9,5,8,6,-3,3,-2
1511884280534851,7,1,-2,-2,0,2,0,-3
1511884280541844,-5,-9,-4,0,1,0,-1,-10
1511884280541844,1,-5,-7,-8,0,-2,0,3
1511884280549928,-7,-3,1,-6,1,0,-2,2
1511884280549928,1,2,-5,-3,1,6,3,5
1511884280564437,2,6,0,0,-2,2,-2,-6
1511884280564437,0,-6,4,-11,-3,0,6,-1
1511884280571985,-7,-7,8,-2,-1,-7,-1,-9
1511884280571985,7,-13,-2,1,-1,-7,1,3
1511884280587025,-5,16,-1,-1,-1,-3,-1,-4
1511884280587025,3,3,-3,1,1,-5,1,7
1511884280595046,-8,9,1,-1,-2,-4,-5,-2
1511884280595046,-4,-4,2,3,-3,-4,-5,1
1511884280610089,-2,-6,0,1,-7,-8,-4,2
1511884280610089,10,7,0,2,-2,-22,0,-2
1511884280611075,5,-1,-16,-1,0,-14,2,-2
1511884280611075,11,3,10,2,1,-13,2,1
1511884280624134,3,-8,-10,-5,0,-3,-1,-5
1511884280624134,-4,-3,-1,-3,1,3,-3,4
1511884280632144,-7,-10,-9,-5,3,12,-4,-1
1511884280632144,-4,-3,-8,-4,-4,14,2,0
1511884280647159,-2,1,6,-1,-7,11,5,-1
1511884280647159,7,1,-1,-4,-9,9,4,-4
1511884280655234,2,7,4,-2,-2,6,0,-1
1511884280655234,1,8,5,-1,1,5,-8,-4
1511884280670794,1,1,-5,-5,6,2,1,8
1511884280670794,1,9,-13,-2,1,3,5,1
1511884280671759,-3,-1,2,9,3,3,4,1
1511884280671759,-7,-17,-7,1,5,0,2,-4
1511884280683853,0,7,-2,-7,1,3,-6,0
1511884280683853,-7,-6,5,-1,-1,6,-9,0
1511884280692822,11,-5,4,-8,-2,2,-4,8
1511884280692822,-11,-6,2,2,-6,-3,-2,-3
1511884280706974,0,-4,20,8,-2,1,5,1
1511884280706974,0,4,-8,0,-2,-2,0,-3
1511884280714899,2,4,-4,2,-2,-3,-4,4
1511884280714899,-4,3,-2,-1,5,-5,-5,-4
1511884280730916,2,-1,-9,2,5,-3,-2,-1
1511884280730916,-5,-1,1,-3,4,1,1,-1
1511884280730916,-1,-5,5,2,-4,3,2,-1
1511884280730916,-7,-2,-2,-1,-5,-3,-4,-13
1511884280744042,-1,1,-3,-2,-3,-2,2,0
1511884280744042,9,-1,-1,1,-4,6,0,-2
1511884280752538,-5,-5,-7,4,3,3,-1,-6
1511884280752538,5,3,-2,0,3,6,-5,8
1511884280767232,-7,-8,1,-2,-2,2,-5,0
1511884280767232,-4,2,-6,-4,-3,2,-3,1
1511884280775233,-5,9,7,2,-5,-4,-3,-7
1511884280775233,-5,4,3,1,-5,-3,1,-4
1511884280790390,-5,-9,-3,-2,0,-2,-3,-3
1511884280790390,14,-3,3,-2,4,-2,2,7
1511884280791275,2,-6,5,-3,2,-6,-3,-2
1511884280791275,6,11,6,10,2,-8,5,8
1511884280804423,-9,-10,-8,2,-7,-4,3,4
1511884280804423,-6,-1,-6,-3,-7,4,4,4
1511884280812435,-2,1,-10,-2,-4,-1,-1,-4
1511884280812435,4,5,0,-1,-5,-6,-2,-3
1511884280826552,4,1,-6,-4,6,-8,2,-8
1511884280826552,-9,-6,10,-2,7,-5,-2,-15
1511884280835392,4,-10,0,-5,2,-5,-1,1
1511884280835392,4,-3,-3,-7,1,-3,0,-1
1511884280850939,4,4,-4,-10,3,-2,2,-4
1511884280850939,4,-2,1,1,1,3,-2,-4
1511884280851437,5,6,-13,2,-5,4,0,3
1511884280851437,-7,-8,-8,3,-1,4,-2,3
1511884280863973,-1,17,7,9,-2,-2,-5,1
1511884280863973,-9,-1,-10,2,-2,-1,-2,6
1511884280872068,-4,6,3,1,-2,-5,0,10
1511884280872068,-4,-4,1,-6,-5,-5,-3,2
1511884280886135,-1,-4,-11,-5,1,-2,-2,2
1511884280886135,6,-2,-1,-2,1,-1,-3,-1
1511884280895157,8,-1,1,2,0,5,-1,-3
1511884280895157,5,-10,2,1,4,-1,3,-2
1511884280910199,2,-3,-4,-2,2,-1,5,-1
1511884280910199,-4,0,1,-2,-1,-1,3,-9
1511884280910199,-8,-2,-12,-8,-3,-2,3,-11
1511884280910199,5,8,-2,-4,-3,0,0,-5
1511884280924235,-2,-3,3,1,2,-1,-6,-3
1511884280924235,-3,-1,7,2,3,1,-2,5
1511884280932230,-4,3,5,6,2,-3,-2,2
1511884280932230,-5,-3,-3,2,-4,-2,-3,-3
1511884280946265,2,0,9,8,-4,-5,-1,-5
1511884280946265,1,-6,-2,-4,-4,-1,-1,2
1511884280955819,1,-5,3,-8,2,5,1,5
1511884280955819,-1,9,1,-6,6,-9,2,-4
1511884280968875,4,-6,-7,-2,3,-21,-5,4
1511884280968875,-8,3,-5,2,6,-22,-4,-2
1511884280977872,-7,2,-8,1,4,-23,-6,0
1511884280977872,1,4,-9,-2,-3,-16,2,6
1511884280983890,-4,0,3,-2,-6,-7,4,-1
1511884280983890,13,-5,1,-2,-9,-7,3,8
1511884280992914,3,0,-3,-5,-5,7,2,-6
1511884280992914,3,1,-13,-1,-7,15,-1,1
1511884281006980,-2,4,9,2,-5,17,-1,-4
1511884281006980,-6,1,-9,-2,-2,11,-2,-4
1511884281015996,-1,-7,-2,-2,-4,7,1,2
1511884281015996,4,3,9,1,-5,11,3,4
1511884281029039,2,5,-7,-3,-4,10,6,3
1511884281029039,0,2,-5,4,2,0,-2,-1
1511884281038063,-7,-3,1,-2,2,-9,-5,-2
1511884281038063,-11,-12,9,6,7,-4,-7,-4
1511884281044079,8,-2,-1,1,-2,3,-2,3
1511884281044079,1,2,5,-1,-4,10,4,3
1511884281053607,3,1,-8,-2,1,15,6,1
1511884281053607,-4,-1,-1,3,2,14,2,-6
1511884281066163,-4,7,-2,0,3,10,0,-3
1511884281066163,-2,-10,-7,2,8,1,-2,-4
1511884281083179,-4,-11,30,5,1,-1,-8,-9
1511884281083179,-3,-3,0,-2,0,1,-2,4
1511884281089194,-14,-8,0,-1,2,-3,-1,0
1511884281089194,6,-3,6,0,-5,-5,1,-1
1511884281098219,2,3,-1,1,-8,-2,-2,-5
1511884281098219,-2,-4,-7,-4,-7,1,-3,-4
1511884281104262,6,2,0,4,-7,5,0,4
1511884281104262,-7,4,11,1,1,3,2,3
1511884281113259,9,3,-10,0,7,1,1,10
1511884281113259,1,-1,-7,-5,5,1,0,-3
1511884281126320,0,2,-23,-16,4,1,-1,4
1511884281126320,0,9,-4,-1,-1,-1,-4,2
1511884281135318,1,-6,-5,5,3,-4,1,2
1511884281135318,-1,4,0,3,6,-1,-2,0
1511884281149357,-2,-15,12,1,4,-3,-6,-4
1511884281149357,2,-1,0,-5,3,2,2,3
1511884281158381,-3,-2,1,-6,-4,7,3,3
1511884281158381,-6,-4,-2,-4,-6,2,6,3
1511884281164397,-8,-5,-10,-4,-6,-2,2,-2
1511884281164397,-10,15,-1,-5,-9,-10,-2,-3
1511884281172920,6,7,2,4,-5,-7,-1,3
1511884281172920,-5,-4,0,3,0,-4,-7,-3
1511884281186958,12,3,-17,0,2,6,-2,0
1511884281186958,-3,2,-9,2,0,7,1,-3
1511884281196007,-4,-8,-1,5,2,4,-2,-10
1511884281196007,-2,-3,-4,-5,1,7,-1,-3
1511884281209045,0,-1,10,4,1,0,-4,-5
1511884281209045,1,-2,1,3,4,3,-3,-6
1511884281218042,-2,4,-2,0,-5,4,1,-10
1511884281218042,3,-3,-1,0,-4,3,4,-6
1511884281224084,-5,-6,-2,-3,-3,2,3,-5
1511884281224084,-5,1,-1,-1,-6,2,1,-5
1511884281233081,-2,0,0,0,-2,-15,-3,5
1511884281233081,0,0,-2,1,-3,-33,-3,7
1511884281247118,1,-5,-2,-3,-2,-28,-3,-1
1511884281247118,-2,-4,0,-1,1,-16,-5,0
1511884281255643,-8,-10,-7,-5,7,3,2,-5
1511884281255643,13,9,4,-5,4,23,1,-2
1511884281268806,-1,5,8,1,4,13,-6,-2
1511884281268806,7,-10,-2,-4,0,-6,-8,-3
1511884281277816,8,5,1,-4,0,-7,0,10
1511884281277816,-7,-3,12,4,-2,5,-2,0
1511884281283845,-5,6,6,4,-1,11,4,-4
1511884281283845,8,1,-10,-11,0,11,5,2
1511884281292843,6,9,-8,-3,-1,12,5,1
1511884281292843,-4,-14,0,3,-2,1,2,-10
1511884281306915,-1,-3,-1,3,-3,-12,1,1
1511884281306915,-13,-2,-1,1,-5,-9,-4,-10
1511884281315934,-3,-2,-1,0,0,-4,-3,0
1511884281315934,2,-2,10,0,-2,1,-2,2
1511884281328973,-4,-4,2,3,1,2,-5,5
1511884281328973,-1,-2,-6,0,-1,0,1,-3
1511884281337963,-3,-9,15,11,-4,-1,2,-3
1511884281337963,0,6,-3,-1,-3,-1,3,1
1511884281344009,-5,-5,-1,-2,-1,-7,2,-1
1511884281344009,4,0,-2,-3,4,-5,4,6
1511884281353506,1,4,2,-5,1,3,-3,1
1511884281353506,-3,1,0,-4,5,-4,1,0
1511884281367082,-2,-5,-3,-1,1,-14,-1,-4
1511884281367082,1,9,4,4,-5,-17,0,-1
1511884281376143,-4,1,-7,-4,-13,-22,0,-7
1511884281376143,-2,-8,-4,-2,-15,-15,-6,-1
1511884281389156,8,7,4,-8,-11,13,-2,6
1511884281389156,-1,-7,16,8,-8,22,-8,-2
1511884281398155,-4,-3,-5,-3,-4,19,-4,-1
1511884281398155,-4,9,-8,-2,-1,6,-1,-1
1511884281404171,-7,-6,-3,0,-3,-1,4,2
1511884281404171,1,-6,-6,-7,6,1,5,4
1511884281413194,3,-12,-5,-6,6,-7,-1,2
1511884281413194,2,-2,4,1,4,-8,-4,-4
1511884281426258,1,1,-22,-2,3,-6,2,2
1511884281426258,-9,-2,0,2,0,-3,-1,-1
1511884281435279,-7,-5,-3,2,2,3,-2,-2
1511884281435279,0,-4,-6,4,1,2,2,-4
1511884281449313,10,7,2,0,-1,-4,-3,-5
1511884281449313,2,2,-5,-6,0,-1,1,-3
1511884281458338,-4,18,9,1,2,-2,-2,-3
1511884281458338,16,-5,-11,-6,-3,1,-2,8
1511884281464378,2,7,3,0,-2,2,3,2
1511884281464378,-2,-5,-10,2,3,2,3,-2
1511884281473618,-7,-4,-13,2,-5,-10,1,0
1511884281473618,-5,0,1,3,0,-11,5,5
1511884281486661,-4,-6,2,-6,-3,-5,5,-2
1511884281486661,-1,1,1,-1,1,-5,-1,-4
1511884281495658,-4,4,-1,-5,6,-1,-5,-2
1511884281495658,-2,2,-1,-8,1,7,-2,0
1511884281508693,6,1,3,1,-1,7,-9,-1
1511884281508693,0,0,-3,-4,1,8,-8,1
1511884281517744,2,-1,-2,-2,-2,6,1,4
1511884281517744,-5,0,-3,-5,0,-4,-1,-5
1511884281532785,-9,-12,7,0,6,3,0,-4
1511884281532785,6,9,9,0,3,-4,3,1
1511884281534789,1,-4,4,-4,-1,-1,0,1
1511884281534789,-2,-1,3,-4,0,-4,0,1
1511884281546795,-5,-12,6,10,1,-2,-5,-2
1511884281546795,-3,-1,-14,-1,-3,-5,0,3
1511884281555844,2,4,-1,3,-6,-25,-3,1
1511884281555844,0,13,-4,2,-1,-27,3,5
1511884281568881,-4,-4,-11,-3,-1,-21,4,-4
1511884281568881,-2,5,-18,-14,-1,-1,0,0
1511884281577905,-10,4,16,6,1,12,1,-9
1511884281577905,-4,-12,-5,6,1,9,0,-3
1511884281592945,2,3,-1,1,7,7,-2,3
1511884281592945,8,4,7,3,-1,9,-1,-2
1511884281594950,0,-3,7,1,4,8,-2,-9
1511884281594950,4,8,6,-3,1,8,0,-3
1511884281606982,-4,0,-4,-7,-2,4,-3,-6
1511884281606982,-5,-8,2,-3,8,4,-6,3
1511884281616006,4,-5,-7,-9,0,8,-3,4
1511884281616006,-2,0,3,-2,-3,7,-7,4
1511884281629041,5,0,-1,-2,0,4,3,9
1511884281629041,-2,-10,-12,6,-11,0,6,0
1511884281638065,-2,-9,-31,5,-5,1,0,0
1511884281638065,-8,-11,-25,-2,-4,6,-5,-5
1511884281653114,-2,-6,4,0,-5,4,-7,-5
1511884281653114,3,5,17,18,4,4,0,0
1511884281655120,-1,13,9,-15,-2,9,4,7
1511884281655120,-6,-3,18,21,3,9,0,1
1511884281667154,0,2,5,-4,-4,-2,2,2
1511884281667154,-2,-5,1,-11,4,-3,2,-4
1511884281675182,3,-7,-4,3,-3,-10,3,-5
1511884281675182,1,9,-19,0,2,-6,1,3
1511884281689209,2,22,-1,-12,5,-3,-4,2
1511884281689209,-6,-11,8,6,-3,-9,-8,-7
1511884281698233,1,0,3,-6,8,-5,0,1
1511884281698233,6,-1,10,-11,-1,1,-2,-4
1511884281713277,-7,-10,-7,9,-3,-3,-2,-5
1511884281713277,4,-2,2,-3,-9,-3,-3,0
1511884281714276,2,-4,-1,3,6,-2,-2,1
1511884281714276,5,2,5,1,-1,-7,-2,-6
1511884281726308,-2,-4,-6,4,-1,5,3,4
1511884281726308,-4,9,2,-1,-5,-2,-1,4
1511884281735422,-4,-11,6,2,-2,-2,1,3
1511884281735422,1,-3,3,-3,4,0,6,5
1511884281749562,-7,-31,-1,17,4,-5,2,0
1511884281749562,-8,-6,-2,-3,3,-5,4,-2
1511884281758589,1,16,1,-1,-1,-2,-7,2
1511884281758589,0,2,0,-1,-3,-5,-8,-1
1511884281772671,2,6,0,-2,-6,0,1,-3
1511884281772671,0,-5,2,7,2,1,5,-2
1511884281774649,2,-5,0,2,3,-1,-6,-7
1511884281774649,1,4,11,0,-8,3,-3,-4
1511884281786680,1,4,-2,-6,-3,1,-3,-1
1511884281786680,-2,5,-4,-4,-9,1,-2,-2
1511884281795706,-2,-9,-10,-4,3,-1,2,5
1511884281795706,-3,0,-13,-14,1,-4,0,3
1511884281809773,-2,9,15,0,-1,-5,-3,-1
1511884281809773,-7,-22,-9,1,-8,-5,-2,-1
1511884281817766,0,4,0,18,-4,-5,-4,-4
1511884281817766,-2,-3,-6,4,11,-2,1,-4
1511884281832804,6,-12,-4,2,19,-7,3,3
1511884281832804,10,20,9,-5,-27,-3,4,5
1511884281834813,-8,5,0,-2,-31,-5,-2,-2
1511884281834813,-6,-10,5,16,-30,-2,3,3
1511884281847034,-6,7,-8,21,-2,2,-1,-5
1511884281847034,-1,-4,0,27,29,1,-4,-9
1511884281855867,4,9,-3,7,25,3,7,7
1511884281855867,17,7,-12,-8,25,0,-2,0
1511884281869047,3,23,8,-16,11,-8,1,5
1511884281869047,-5,-19,-12,-12,4,-17,-3,3
1511884281878044,-5,2,5,-10,-5,-9,2,-1
1511884281878044,-2,-3,-1,-18,-9,-15,0,-7
1511884281892088,3,5,-16,-16,-16,-1,-2,-6
1511884281892088,-3,9,-10,-8,4,8,-2,-13
1511884281899099,2,-4,-1,-8,4,16,-3,-1
1511884281899099,-1,-8,5,0,6,19,0,2
1511884281906119,-7,-11,-5,-13,-8,17,-8,-13
1511884281906119,-6,6,15,-13,1,18,6,6
1511884281915142,6,-13,20,4,2,3,-2,-5
1511884281915142,-1,-1,7,2,0,-1,5,-1
1511884281929180,17,1,1,0,-2,-1,8,8
1511884281929180,1,-3,-6,4,-1,1,2,-2
1511884281938204,2,18,6,4,-6,-1,-3,1
1511884281938204,-7,5,-3,0,-4,-1,2,-3
1511884281953300,-6,-1,1,2,-5,-5,-4,-3
1511884281953300,3,2,2,5,-6,-3,2,4
1511884281954804,-3,-3,-6,0,-5,0,6,2
1511884281954804,0,-18,-5,-2,-6,-2,3,-5
1511884281966366,-5,-10,-3,-1,-9,1,-2,-7
1511884281966366,4,-3,-3,-4,-11,2,-8,0
1511884281975359,-2,-1,-16,-6,-10,0,-6,-8
1511884281975359,-5,-5,-2,1,3,4,-2,-3
1511884281989427,-8,6,0,1,5,-2,1,-2
1511884281989427,-4,0,-9,-3,9,3,0,-1
1511884281998421,-7,-6,4,-2,3,-2,3,-5
1511884281998421,1,0,-15,6,0,-1,1,4
1511884282012485,8,2,-4,9,1,-7,-4,4
1511884282012485,3,17,-18,-6,4,-4,-6,1
1511884282014467,-11,-11,5,3,1,0,-9,-1
1511884282014467,0,5,-8,-7,-7,0,-3,0
1511884282026495,-5,-1,1,-1,-10,-4,3,-6
1511884282026495,-2,-2,0,-1,-13,-4,-1,3
1511884282035519,-3,-9,7,-2,-3,0,2,3
1511884282035519,-11,-8,17,0,-6,3,2,-3
1511884282049586,8,-7,7,0,6,2,-2,7
1511884282049586,4,-9,8,3,11,3,-1,-3
1511884282058612,1,-2,-11,-4,9,5,-1,-1
1511884282058612,0,10,11,3,11,6,0,2
1511884282071708,-1,11,6,-6,3,8,4,-1
1511884282071708,2,1,-16,-9,2,7,5,7
1511884282080702,2,1,4,4,-3,3,-2,7
1511884282080702,2,0,4,0,-1,1,-6,2
1511884282086745,-5,-13,5,-2,-5,8,-9,0
1511884282086745,1,15,-7,-6,-8,4,-1,1
1511884282095743,-2,11,1,4,-2,-6,-9,-6
1511884282095743,-6,10,-3,2,5,-11,1,-2
1511884282108777,2,-2,-13,0,11,-9,11,6
1511884282108777,-7,0,5,0,11,-10,0,-5
1511884282117828,7,-7,-12,-3,7,-4,2,1
1511884282117828,10,-8,-6,2,-2,-3,-2,-4
1511884282131839,-1,6,3,-1,-4,0,5,-1
1511884282131839,-5,-7,4,3,0,-5,1,-1
1511884282140863,-10,-5,7,-7,-1,-8,-3,-10
1511884282140863,2,-1,12,-2,-2,-9,-8,0
1511884282146878,0,1,0,-4,-11,-6,-2,1
1511884282146878,9,-6,-3,-2,-10,-4,-3,-2
1511884282155905,1,8,-8,-3,-3,1,2,-7
1511884282155905,1,3,-19,-1,1,3,7,5
1511884282169472,-6,-2,-3,6,-2,1,-2,-14
1511884282169472,-12,-8,7,3,-7,-1,-3,-9
1511884282178495,-1,-1,7,0,-5,0,0,-10
1511884282178495,11,7,-1,-5,-2,-4,-2,7
1511884282191531,1,-2,-5,0,-1,-5,-4,-7
1511884282191531,1,-6,24,2,1,-5,-1,3
1511884282200553,2,-5,11,-5,-1,-3,4,0
1511884282200553,-2,13,1,-2,1,-1,3,-3
1511884282206596,7,-8,-46,4,6,1,1,9
1511884282206596,3,-2,-64,2,-3,2,0,6
1511884282215595,-4,-12,-39,2,-2,5,0,6
1511884282215595,-9,0,-8,-5,0,2,-9,1
1511884282229632,-4,6,9,-12,-1,-2,-7,2
1511884282229632,-1,3,21,-3,-2,-5,-6,-7
1511884282237683,6,6,18,6,-9,-4,7,4
1511884282237683,-5,-11,12,0,-9,1,3,-8
1511884282251719,-5,-9,14,11,-3,-1,3,2
1511884282251719,4,0,21,3,5,0,5,10
1511884282260716,0,3,4,-1,10,2,0,6
1511884282260716,0,-14,7,-3,8,0,-8,1
1511884282266757,-4,5,14,-8,5,5,-4,-5
1511884282266757,-3,-4,6,-4,5,5,-1,-1
1511884282275758,-2,7,-17,-13,-4,-1,2,4
1511884282275758,-9,-6,0,0,-10,-4,-2,-11
1511884282288818,7,3,11,-2,-15,-4,2,7
1511884282288818,4,2,0,1,-16,-6,1,-2
1511884282297828,16,11,-23,-6,-11,0,3,8
1511884282297828,0,10,16,11,-12,-3,-3,-2
1511884282311880,1,1,-13,-2,-4,4,-2,4
1511884282311880,-2,3,-6,3,-3,5,-2,-2
1511884282320878,-1,-8,4,1,-2,0,-1,-2
1511884282320878,2,-1,-5,-3,-11,-2,4,8
1511884282326923,-10,-11,-9,-3,-8,-3,-11,-9
1511884282326923,-9,0,11,-1,1,1,-4,-2
1511884282335944,-13,-4,1,-2,2,4,-1,-9
1511884282335944,-6,-3,-12,-4,6,3,2,-3
1511884282348952,3,6,-4,-2,5,-5,3,1
1511884282348952,-3,-8,0,2,3,-6,-4,-5
1511884282358506,4,-2,13,0,4,0,-2,3
1511884282358506,4,2,7,-1,-1,3,2,1
1511884282372063,-3,-2,1,-6,-3,0,0,-1
1511884282372063,1,4,-3,3,1,-2,1,-1
1511884282380061,2,12,-11,4,1,-6,-5,-2
1511884282380061,6,5,-11,3,9,2,4,7
1511884282387079,4,10,-8,0,6,4,17,11
1511884282387079,-1,-14,0,0,-1,-6,-6,0
1511884282396104,-3,7,3,-3,4,-13,-12,-19
1511884282396104,4,-21,5,-2,2,-4,-8,1
1511884282409139,-10,-6,13,0,-2,-4,-4,-8
1511884282409139,4,-4,8,-2,2,0,10,10
1511884282418174,1,-1,11,4,-1,1,6,2
1511884282418174,-4,-8,-9,6,6,-2,1,-1
1511884282432199,3,2,5,2,4,4,2,5
1511884282432199,-2,-5,-5,0,-3,3,-4,-2
1511884282439248,-5,3,3,1,1,3,-7,-1
1511884282439248,-7,15,5,-2,1,0,-2,-5
1511884282455825,2,2,-6,-3,5,0,-4,4
1511884282455825,-1,6,-4,-3,2,1,4,-2
1511884282457329,0,-11,-6,-4,-5,2,5,4
1511884282457329,-9,-5,0,-3,-8,0,2,-6
1511884282468926,-7,-8,-4,2,-7,-7,-6,-6
1511884282468926,7,17,-28,-6,5,6,-6,2
1511884282477951,3,-11,-2,4,1,1,-2,-3
1511884282477951,4,3,-10,4,0,0,2,-4
1511884282491990,8,4,-4,-1,6,-3,-1,-5
1511884282491990,10,-10,-4,-1,1,-6,3,7
1511884282499030,-8,-8,0,0,-3,0,-1,-6
1511884282499030,-2,0,-6,0,-7,0,1,3
1511884282515049,-5,5,6,7,-2,1,2,-1
1511884282515049,-9,-3,6,-4,-3,2,4,-2
1511884282517055,8,-2,-2,-5,6,1,3,15
1511884282517055,-1,0,2,-1,14,-7,-8,-5
1511884282529113,1,-6,-17,-1,13,-1,-2,3
1511884282529113,-1,7,2,2,9,1,2,0
1511884282538110,-3,8,7,5,5,-4,-2,3
1511884282538110,-3,9,6,-7,0,-1,-7,-1
1511884282552650,1,-1,2,-4,-5,4,-2,0
1511884282552650,8,3,-1,-2,-3,1,4,-5
1511884282559167,-2,3,-6,1,4,0,13,-2
1511884282559167,-4,-7,-3,2,2,0,11,1
1511884282575213,-10,-11,4,-5,-2,-2,2,-4
1511884282575213,-2,-6,11,-7,-6,0,3,-1
1511884282577217,5,-6,6,-1,-7,5,0,0
1511884282577217,4,-8,5,-2,-11,1,0,5
1511884282589249,8,0,5,-1,-9,-2,-5,-2
1511884282589249,-1,-4,2,2,-3,-10,-7,-2
1511884282598273,-3,-3,-4,1,-5,-7,-6,2
1511884282598273,-5,5,-7,1,-4,-3,-6,0
1511884282611335,-4,6,-3,3,-3,1,-2,-3
1511884282611335,-5,-1,-1,1,-4,0,-2,2
1511884282620366,-8,-6,-1,-6,4,0,-2,3
1511884282620366,3,-2,5,-3,3,2,-1,-2
1511884282635375,6,-6,3,-5,-6,-2,-2,-1
1511884282635375,-3,-2,-1,-1,1,0,-3,-4
1511884282637377,2,4,2,-2,-11,0,-4,1
1511884282637377,0,1,-7,2,-2,5,0,-5
1511884282649412,1,-2,-1,5,5,3,6,3
1511884282649412,-3,-2,-3,4,-5,0,-2,-8
1511884282658441,-2,0,-2,-4,1,1,1,1
1511884282658441,0,1,2,-5,-1,1,3,2
1511884282672300,-4,1,6,-6,0,0,-5,-6
1511884282672300,-4,2,-1,-1,-7,2,-5,-2
1511884282679329,-1,-12,-4,0,-3,1,-4,-5
1511884282679329,-3,-9,4,1,-1,-3,-2,-3
1511884282695306,-3,-1,-6,2,0,-2,3,3
1511884282695306,-1,6,-1,3,3,-3,1,7
1511884282697185,0,10,-5,3,1,-7,-3,0
1511884282697185,0,8,-8,-2,-3,-6,-3,-3
1511884282709224,-1,1,4,-3,0,-3,3,-2
1511884282709224,-3,-5,3,-2,4,-1,6,-1
1511884282718237,-2,-5,-2,1,-2,2,2,1
1511884282718237,-2,4,-8,-4,-1,4,-3,-3
1511884282731276,-1,7,-6,1,-1,3,0,-2
1511884282731276,0,-1,12,9,-5,2,-2,-4
1511884282740386,1,-2,1,-6,-1,2,1,2
1511884282740386,1,-8,-1,-3,-3,-3,-3,7
1511884282755979,0,-4,5,-2,2,-2,-4,1
1511884282755979,4,-38,-9,-3,5,-1,-2,3
1511884282757370,1,-25,-4,2,1,-7,-6,-7
1511884282757370,-2,-8,4,1,-4,-5,0,1
1511884282769077,-15,-11,-8,-1,-4,-3,-2,-4
1511884282769077,-2,22,-2,-2,-5,-2,-3,-1
1511884282778100,-8,13,-4,2,-3,2,-2,-12
1511884282778100,12,8,-14,-5,4,2,2,6
1511884282791162,5,20,0,0,-1,-2,-3,-5
1511884282791162,-4,12,-4,1,-5,1,4,-5
1511884282800160,3,7,1,3,-6,-1,0,6
1511884282800160,-6,4,2,1,-6,3,2,0
1511884282815225,-3,-8,-2,-3,3,5,4,4
1511884282815225,-1,-6,-2,-6,7,-1,-2,-2
1511884282817205,-3,1,-2,-6,0,-3,4,-4
1511884282817205,-2,1,-2,0,-1,-6,4,1
1511884282829429,6,1,0,-1,-8,-8,3,1
1511884282829429,8,8,-9,-3,-5,-3,0,1
1511884282838262,-3,-6,9,4,4,1,-4,0
1511884282838262,-3,-1,0,-3,8,0,-7,-7
1511884282851806,0,-1,1,-3,3,-1,-5,1
1511884282851806,-5,4,-4,-3,1,2,-2,-1
1511884282860827,4,0,-1,-1,-5,5,-2,3
1511884282860827,0,-6,3,0,-7,5,-6,-7
1511884282875368,-2,-9,16,5,-5,0,-2,-6
1511884282875368,-5,-1,2,1,-3,-1,0,1
1511884282877374,0,-2,-6,2,3,2,4,3
1511884282877374,-2,-6,-4,3,1,-1,5,-2
1511884282889405,3,2,-10,-10,-3,0,0,4
1511884282889405,-2,10,-9,-12,-2,0,-4,-5
1511884282898456,-7,-20,-3,-5,-3,-2,0,-2
1511884282898456,6,17,2,-1,-7,-2,0,3
1511884282911463,-5,-4,-2,3,-7,-2,-4,2
1511884282911463,-5,-6,6,3,-7,-2,-5,-1
1511884282920486,3,12,2,0,-6,-5,-5,-1
1511884282920486,1,-7,3,4,6,2,-1,-1
1511884282935527,10,-4,-6,2,5,0,-3,-5
1511884282935527,-11,-5,-1,0,6,-2,-3,-8
1511884282936530,15,7,-3,-3,11,2,-2,6
1511884282936530,3,-7,-5,-2,6,-3,7,-4
1511884282949564,-1,11,-1,-1,4,-2,9,1
1511884282949564,-8,-3,-2,4,2,-1,3,-2
1511884282958591,1,1,-2,-4,-1,-2,5,-2
1511884282958591,-1,6,-1,-2,6,1,-1,12
1511884282971646,-2,-7,-3,4,6,-2,-6,6
1511884282971646,1,-3,1,1,2,-2,-2,5
1511884282980670,-3,-6,-6,-1,0,-1,-5,3
1511884282980670,-2,1,-2,1,-6,0,-2,-2
1511884282995710,-6,-4,4,-2,-2,4,0,-4
1511884282995710,2,-4,4,-2,0,4,2,0
1511884282996720,-3,-4,6,2,4,2,3,6
1511884282996720,-19,-7,4,-1,3,-2,-9,-27
1511884283008771,0,5,-5,-1,-4,-5,0,-1
1511884283008771,5,8,-4,-1,-5,2,-4,-13
1511884283017781,15,3,-6,2,-5,5,6,3
1511884283017781,-2,-8,-2,-1,-7,2,1,0
1511884283031806,3,1,0,-2,0,5,0,7
1511884283031806,-1,-5,-2,-7,6,0,-2,-4
1511884283040830,-4,8,6,-1,4,-4,-7,-1
1511884283040830,1,7,0,-1,0,0,-3,11
1511884283055873,-4,-5,-1,4,-5,-5,-7,-2
1511884283055873,4,-1,2,1,-5,-7,1,6
1511884283057377,-5,-7,-5,1,0,-9,-1,-11
1511884283057377,8,6,-7,-2,4,-7,2,-7
1511884283068916,-5,-15,5,-5,7,1,-1,-6
1511884283068916,9,-6,-2,-3,3,6,2,8
1511884283077934,-10,-12,6,0,-1,2,-1,-11
1511884283077934,2,2,3,3,-3,0,1,11
1511884283091970,-2,7,-6,4,-2,-3,5,7
1511884283091970,-8,8,7,8,0,-7,2,10
1511884283100995,-10,6,-2,-1,-1,-2,1,8
1511884283100995,-4,-1,-3,-3,-1,1,-1,6
1511884283115031,18,-1,-6,0,2,-2,-4,12
1511884283115031,-3,-14,-9,-4,3,0,-6,-4
1511884283117037,4,3,-4,-1,-1,1,-3,-4
1511884283117037,-3,-2,-1,-5,-3,1,-3,-14
1511884283129069,7,8,3,-6,-10,4,-2,-20
1511884283129069,4,5,0,-3,-10,-1,1,-9
1511884283138094,-5,4,-2,-4,-3,-4,6,-9
1511884283138094,-2,-4,-4,5,2,-4,4,-1
1511884283152635,-4,-5,-11,5,-1,-2,4,11
1511884283152635,2,3,0,2,-4,5,-2,6
1511884283159153,-3,-14,-5,2,-5,4,-6,2
1511884283159153,7,-5,3,2,-6,5,0,-2
1511884283175224,3,-3,1,-9,2,1,-2,-7
1511884283175224,6,0,6,1,-2,-2,-9,4
1511884283177228,0,2,1,-2,-6,-1,-10,-10
1511884283177228,0,6,10,-4,0,-3,3,6
1511884283189259,-2,5,-4,-3,6,-1,4,-2
1511884283189259,-10,2,3,-1,4,-2,6,-5
1511884283198284,-1,10,0,3,-4,-3,11,8
1511884283198284,-5,4,-5,0,-12,-1,0,-1
1511884283212348,5,4,9,3,-16,-2,-3,1
1511884283212348,4,-3,-1,-4,-9,-7,1,1
1511884283219368,2,-9,0,-2,-5,-6,-5,7
1511884283219368,-4,0,6,-1,2,-2,-2,-3
1511884283234404,-15,-13,-3,-6,2,3,-5,-13
1511884283234404,2,1,-4,-6,4,4,-1,-3
1511884283241425,1,-5,-3,2,5,5,-1,-5
1511884283241425,4,-10,-2,1,9,6,-3,5
1511884283249420,-5,1,-3,2,2,3,-2,0
1511884283249420,6,-4,0,2,-1,1,1,0
1511884283258471,5,-1,-3,-3,-2,-1,2,3
1511884283258471,-5,4,-1,-2,-6,-7,-1,-5
1511884283272587,-6,-1,1,4,-4,0,-5,-3
1511884283272587,-9,4,-1,2,1,2,-6,-8
1511884283278603,-5,8,1,-2,3,2,1,-4
1511884283278603,3,-4,-6,0,4,-4,-4,0
1511884283294646,-17,-1,-5,-6,0,-5,10,7
1511884283294646,-3,-6,-4,-7,-3,-7,0,2
1511884283301684,1,19,7,-7,1,-22,4,5
1511884283301684,10,-11,-4,-2,1,-17,-2,0
1511884283308684,2,0,1,2,4,-10,-1,4
1511884283308684,0,-6,4,8,-1,1,1,2
1511884283317727,2,-6,-1,4,-1,9,-4,2
1511884283317727,9,6,-1,3,-1,9,2,4
1511884283331744,6,2,0,3,3,9,3,2
1511884283331744,4,2,-7,-2,2,9,4,-6
1511884283338783,3,1,-21,-8,6,5,-5,-11
1511884283338783,1,-3,-14,-6,3,1,-1,1
1511884283354806,13,-6,0,-6,-4,1,1,-2
1511884283354806,-7,-4,4,-2,-8,-1,-3,-11
1511884283361825,-9,-4,16,3,-5,2,-1,1
1511884283361825,-3,5,2,2,-5,4,-1,1
1511884283369370,-6,1,-7,6,1,1,-2,-1
1511884283369370,2,3,-3,11,4,-3,-3,2
1511884283378425,-4,2,2,11,-2,-3,2,-3
1511884283378425,-3,0,-5,4,-2,4,6,1
1511884283392432,0,1,5,2,-1,-3,4,2
1511884283392432,-1,5,2,0,-5,-6,1,2
1511884283399452,7,-5,1,-4,-2,-3,-5,1
1511884283399452,15,-4,9,-6,2,-6,-5,-1
1511884283414490,19,-5,-2,-7,-2,-4,-7,-5
1511884283414490,14,-8,-3,-1,3,-5,1,-10
1511884283421509,9,-6,-5,1,1,-2,3,1
1511884283421509,4,-1,2,-5,0,3,3,4
1511884283437573,-6,-1,-5,1,1,4,-3,-1
1511884283437573,-1,1,-1,-2,-1,4,-5,6
1511884283439557,-6,6,9,-2,-5,0,4,-4
1511884283439557,-19,-3,0,-3,-8,-3,1,-6
1511884283452647,-8,2,1,1,-3,3,2,2
1511884283452647,-1,-6,-5,-3,0,2,3,3
1511884283459138,-3,5,-3,-2,0,-1,5,7
1511884283459138,-1,2,1,4,2,-4,-9,-5
1511884283474738,-22,-12,-9,1,5,-1,-12,-21
1511884283474738,-8,-3,-5,-3,3,-3,-2,3
1511884283481756,-9,-2,0,-4,3,1,-4,-1
1511884283481756,-5,-6,-4,-3,2,4,5,9
1511884283497767,0,5,1,-2,0,5,4,4
1511884283497767,3,12,-2,-1,-3,0,3,-1
1511884283499774,-6,-8,-6,-2,-3,-4,0,-4
1511884283499774,-13,-1,7,-4,-2,-3,-4,0
1511884283511841,-2,2,10,-3,-4,-3,0,11
1511884283511841,-9,-5,5,-2,0,3,0,9
1511884283518855,0,-7,2,-2,0,-3,-1,9
1511884283518855,6,14,2,2,2,-3,-2,11
1511884283534903,-1,2,-4,-1,2,-3,-5,2
1511884283534903,2,-9,-4,0,1,3,0,8
1511884283541886,-4,-4,-3,0,5,5,-4,-1
1511884283541886,-1,-10,-5,0,1,-3,-2,-8
1511884283557984,3,-1,-5,-4,-1,-6,3,-4
1511884283557984,-3,-2,1,-3,-4,-3,6,-6
1511884283559990,-6,-6,3,1,-8,2,4,-12
1511884283559990,11,0,0,0,-5,1,4,-3
1511884283571548,3,6,0,1,-1,-3,0,-4
1511884283571548,-16,-5,-8,-2,-5,1,-5,-11
1511884283580544,13,6,-5,-5,-3,-3,-12,-3
1511884283580544,-11,-6,-7,-8,-6,0,-4,-4
1511884283594582,-9,1,1,1,-7,1,-5,-17
1511884283594582,5,-1,-1,-4,6,-2,-1,-8
1511884283601600,-1,-1,5,0,0,-3,0,-18
1511884283601600,0,-4,0,-3,1,1,5,-14
1511884283617645,11,3,-1,-4,0,0,6,3
1511884283617645,-9,-3,-4,3,1,3,3,-1
1511884283619650,-1,-1,-6,-2,3,2,5,6
1511884283619650,-3,3,-5,1,5,-1,-3,0
1511884283631713,-7,-5,0,-2,2,3,-3,0
1511884283631713,3,0,4,-1,-1,3,-4,-6
1511884283640705,1,-4,-1,-3,0,6,0,7
1511884283640705,2,2,-2,-1,-2,0,4,8
1511884283655332,13,9,0,-1,-5,-12,-1,14
1511884283655332,-9,1,-3,2,-4,-14,-5,-1
1511884283661844,-9,-3,-2,-1,-4,-9,-2,-10
1511884283661844,4,-6,3,-2,3,-3,-4,7
1511884283678452,-2,-6,6,1,5,0,2,-6
1511884283678452,9,5,0,1,2,3,8,2
1511884283679374,-9,3,2,3,2,2,2,-6
1511884283679374,-9,-8,-6,1,-6,8,-4,-7
1511884283691503,5,1,-1,1,3,5,-2,2
1511884283691503,6,1,2,-3,4,2,-2,4
1511884283700423,-2,0,-4,0,1,0,0,7
1511884283700423,-2,1,2,1,-5,-3,-1,-2
1511884283714461,-1,1,2,-2,-5,-1,1,3
1511884283714461,-14,-10,-8,-3,-3,-2,-1,0
1511884283721510,15,8,-1,1,1,-4,1,10
1511884283721510,-5,6,3,1,2,-4,-2,-11
1511884283738533,-4,4,1,3,-1,-2,5,5
1511884283738533,4,-3,1,3,-3,-4,-1,-3
1511884283739528,4,0,-4,0,1,0,-10,2
1511884283739528,-1,-5,-6,1,2,-3,-7,-4
1511884283752146,-1,-4,0,2,-4,5,-4,-9
1511884283752146,-1,4,6,3,-6,4,4,3
1511884283761112,-2,-2,1,2,-9,3,1,2
1511884283761112,-7,4,0,-1,1,-3,-1,1
1511884283775286,-1,-9,-4,-4,6,-4,-1,1
1511884283775286,9,11,4,-2,-1,-4,2,5
1511884283781315,-1,-4,-4,-2,-3,-4,0,-4
1511884283781315,0,-1,-6,2,3,-1,1,-1
1511884283798315,-3,-3,-5,3,4,-3,0,11
1511884283798315,-9,5,7,3,2,-4,-5,-11
1511884283799313,-6,-1,6,-3,0,-4,2,5
1511884283799313,-3,7,7,-5,-8,1,-2,1
1511884283811465,-5,3,-5,-1,-5,2,-7,-2
1511884283811465,19,-6,-7,1,1,2,1,2
1511884283820408,-7,-8,4,0,3,2,3,-3
1511884283820408,9,-13,0,-1,1,1,2,-10
1511884283834409,8,-4,-4,3,-6,1,-3,1
1511884283834409,-1,-1,-8,-2,-7,2,-4,5
1511884283841588,-5,-5,-10,1,-2,-2,-6,-4
1511884283841588,-7,-3,-1,-2,0,0,1,1
1511884283857977,-8,-1,1,-6,-2,-2,-2,-8
1511884283857977,2,0,3,-4,0,0,-2,-5
1511884283859979,5,7,6,4,4,7,-2,1
1511884283859979,1,-7,-1,1,0,1,2,8
1511884283872079,0,3,7,-5,-2,-4,3,-2
1511884283872079,1,5,0,-9,1,-15,0,6
1511884283881099,0,-6,-5,-7,-3,-7,5,-2
1511884283881099,3,4,-7,2,-3,-5,-3,2
1511884283895111,-7,0,-2,3,-2,-1,2,-5
1511884283895111,0,0,-2,5,-8,6,-7,-1
1511884283901148,-1,6,1,1,-6,4,-8,10
1511884283901148,-8,4,-2,0,-1,3,2,12
1511884283918173,-7,-5,0,1,1,-1,0,8
1511884283918173,0,-1,2,0,3,0,0,7
1511884283919196,-3,-3,-7,-2,-7,1,-5,-4
1511884283919196,4,-2,-1,-6,-3,6,-4,-2
1511884283931207,1,1,-6,-7,2,1,-1,-2
1511884283931207,-3,-6,-3,4,7,1,-1,-10
1511884283940231,2,3,1,2,6,-4,-3,-7
1511884283940231,3,-4,0,1,4,-5,5,-1
1511884283954771,11,-1,2,-1,-1,-5,5,5
1511884283954771,-4,2,7,-1,-1,-7,2,1
1511884283961817,2,-9,6,-1,3,-3,0,-4
1511884283961817,1,-6,-2,-6,1,2,1,-9
1511884283977581,13,13,23,-1,4,7,-1,-3
1511884283977581,-3,-17,-11,-2,-1,12,1,2
1511884283979558,4,5,-3,4,-6,2,-2,-8
1511884283979558,-7,6,-1,5,1,-9,0,1
1511884283991592,-3,2,-6,6,4,-13,-2,-3
1511884283991592,-9,-2,-3,-2,3,-8,4,-12
1511884284000615,0,-3,-3,-7,2,1,6,-5
1511884284000615,3,-3,-4,-2,1,5,1,-4
1511884284014679,-11,-8,-7,-2,1,4,-2,-7
1511884284014679,4,1,1,2,3,2,-5,1
1511884284021697,2,-6,-3,0,-1,-2,-2,6
1511884284021697,5,3,6,5,-4,0,-9,0
1511884284037745,-1,-1,-7,-3,2,2,-3,0
1511884284037745,-1,5,-2,-2,3,-4,-1,1
1511884284039719,-1,5,-3,0,5,-5,-1,0
1511884284039719,-5,4,0,-1,3,-5,1,-8
1511884284051802,-3,3,4,3,-3,1,1,1
1511884284051802,3,-6,-4,1,-6,3,3,8
1511884284060801,-5,-5,3,2,-4,1,2,0
1511884284060801,-5,-1,1,0,-4,1,-1,-2
1511884284074776,-4,-6,-2,-5,-2,-4,-1,-5
1511884284074776,0,1,1,-4,-4,-5,3,-2
1511884284081817,-3,3,2,-3,-4,-2,2,-4
1511884284081817,13,-5,-3,-2,-5,0,-1,7
1511884284097857,5,1,1,-2,-1,1,-1,-1
1511884284097857,9,3,1,-1,0,-2,-4,3
1511884284099862,-4,4,-1,1,0,-2,-8,1
1511884284099862,-7,-7,-5,2,2,3,-3,1
1511884284111901,1,-5,-2,7,1,1,-3,1
1511884284111901,-10,-3,4,-2,1,-3,-6,-6
1511884284120926,-4,-8,-4,-1,1,2,4,-2
1511884284120926,-4,1,0,-7,-4,4,-1,-1
1511884284134958,-3,-2,0,-4,-4,-1,-8,1
1511884284134958,-7,-2,-3,1,-8,1,-3,6
1511884284141952,9,-4,5,1,-6,-2,-1,-3
1511884284141952,5,2,4,7,-6,-2,4,-1
1511884284158054,7,-3,-6,4,-4,-4,4,-3
1511884284158054,6,7,-4,-3,3,0,4,4
1511884284159531,-15,8,-1,-6,6,4,-3,-14
1511884284159531,10,0,-4,-6,3,6,4,5
1511884284171630,8,0,2,-6,-3,2,0,-5
1511884284171630,-2,-8,0,-4,-3,4,3,8
1511884284180627,0,-3,-5,3,-1,0,-1,12
1511884284180627,-9,-4,-7,-3,1,-9,-3,-6
1511884284194663,-5,6,0,0,-2,-4,-3,5
1511884284194663,1,-2,-2,6,-2,-6,-1,-4
1511884284201710,-5,-5,-3,5,-2,-2,3,-7
1511884284201710,3,4,1,13,4,1,4,0
1511884284217725,-3,8,1,14,2,1,-1,-7
1511884284217725,-9,-3,1,7,1,4,-3,-3
1511884284223768,0,4,3,0,-4,0,-1,6
1511884284223768,-4,2,6,1,0,-5,-3,-2
1511884284231786,4,-6,-4,-3,2,0,2,5
1511884284231786,4,-1,-2,0,4,-1,-3,-2
1511884284240815,1,-1,-1,0,1,-8,-1,-2
1511884284240815,0,-4,0,-6,2,-3,2,3
1511884284254825,-3,-11,-2,-9,-2,-1,3,-6
1511884284254825,1,1,-2,-12,-5,-2,2,-5
1511884284261844,3,-5,-6,-9,-4,-2,-2,1
1511884284261844,-4,0,2,-8,-7,-3,-2,-1
1511884284277416,-1,-2,-1,-4,-7,-4,-3,6
1511884284277416,-10,-10,1,-4,-4,-2,-3,4
1511884284284429,2,-1,-1,-1,0,2,-4,-3
1511884284284429,-12,-2,0,1,-2,1,-1,-17
1511884284291442,-4,12,3,-3,4,6,-1,-7
1511884284291442,-4,3,1,-7,1,4,-2,-6
1511884284300448,9,-1,-3,-4,2,-1,0,11
1511884284300448,3,11,-3,-3,1,-3,-3,9
1511884284314513,5,1,-3,-7,-2,-5,2,7
1511884284314513,2,3,0,-8,0,-5,-2,-12
1511884284321531,-8,-1,1,-9,1,2,3,-1
1511884284321531,2,-6,-3,-7,-3,10,0,4
1511884284337547,-8,-12,-2,-1,-1,7,1,3
1511884284337547,0,1,-1,-2,0,6,-1,6
1511884284344567,-7,6,2,-2,-4,0,-6,-6
1511884284344567,0,-2,-5,-4,-5,-5,-6,0
1511884284351611,-6,11,3,0,2,-6,-3,-4
1511884284351611,6,3,-5,1,1,-3,4,3
1511884284360639,3,-4,0,2,-3,-7,-1,-5
1511884284360639,0,-1,-4,4,3,-4,1,-2
1511884284374727,-10,-10,-10,0,1,1,-4,-3
1511884284374727,12,-1,4,1,1,1,3,8
1511884284381742,3,8,9,6,-1,3,1,-6
1511884284381742,2,-11,2,1,-4,-5,-1,6
1511884284396789,-2,-6,8,-1,-6,-5,-2,-3
1511884284396789,-2,2,5,4,0,-8,-6,0
1511884284403805,-5,5,5,2,-1,-4,6,0
1511884284403805,-1,0,-7,3,-4,-3,6,-5
1511884284420846,-2,-5,-13,0,-3,6,4,-10
1511884284420846,-6,1,0,-2,0,5,-3,-2
1511884284421834,3,-2,-6,1,4,3,-4,1
1511884284421834,2,9,1,0,5,0,-6,-4
1511884284434859,10,-2,-3,-1,3,0,0,4
1511884284434859,5,0,3,2,1,3,-2,-1
1511884284441880,1,0,3,3,-2,1,-7,2
1511884284441880,-9,-5,1,1,-5,0,-4,-1
1511884284457451,-7,4,2,-2,-8,-5,-1,-1
1511884284457451,-10,3,-4,-3,-6,-6,4,-3
1511884284464470,2,-7,-5,-2,-1,-3,8,0
1511884284464470,5,0,4,4,1,-1,5,0
1511884284480049,-4,-4,0,6,7,3,-5,-6
1511884284480049,-1,2,-2,4,5,3,-4,0
1511884284482015,-4,-4,-4,-3,-5,1,-6,-1
1511884284482015,4,6,6,-8,-1,-1,-5,0
1511884284495080,8,4,-3,-4,0,-1,1,10
1511884284495080,10,-2,0,2,5,-3,-2,-4
1511884284501066,0,-1,-6,2,6,0,0,6
1511884284501066,-6,-7,-6,1,4,1,-1,-2
1511884284517135,-9,5,0,0,1,0,3,-4
1511884284517135,-2,-2,-3,-2,-4,0,6,-4
1511884284524154,1,-2,0,0,-3,-2,4,0
1511884284524154,-5,-7,-4,-2,-3,-2,-3,-3
1511884284540170,-6,-5,-8,1,-3,-3,0,0
1511884284540170,-2,0,-8,-3,-4,-4,3,2
1511884284542176,3,3,11,-2,-4,-4,-1,-4
1511884284542176,2,3,-2,-1,-8,-5,3,-2
1511884284555214,-1,-6,-7,-2,-3,-6,-5,-11
1511884284555214,-7,-2,14,5,-3,1,-4,2
1511884284561759,-4,-2,-7,-8,1,2,-6,5
1511884284561759,3,9,4,7,-1,-2,-8,8
1511884284577274,4,3,1,1,-1,-3,-2,5
1511884284577274,-6,-1,0,-2,-1,-1,4,0
1511884284584292,11,-2,-13,-4,1,-4,6,2
1511884284584292,-5,-17,-5,-5,3,-1,6,-2
1511884284600336,-1,-7,1,2,-5,-3,4,-1
1511884284600336,-4,-6,-4,3,-4,0,-5,-7
1511884284602341,-1,-5,4,1,-2,4,-2,-10
1511884284602341,0,2,-3,-2,-2,8,-8,-7
1511884284614373,5,8,-2,-2,1,4,0,1
1511884284614373,-5,-4,-2,-4,-2,0,4,2
1511884284621421,0,5,1,-1,0,-4,5,2
1511884284621421,-1,5,6,4,4,-4,7,3
1511884284637553,-4,-7,1,5,7,-4,1,-3
1511884284637553,5,-1,-1,0,4,-2,1,3
1511884284644585,-3,-2,-5,-4,1,-1,2,0
1511884284644585,-4,4,3,-3,-2,-2,-3,-13
1511884284661036,-8,-9,-8,-9,1,-3,-6,-3
1511884284661036,7,4,1,-9,0,-4,-6,5
1511884284662525,-5,-5,5,-7,-4,-4,0,4
1511884284662525,-9,-11,8,-3,-5,-1,1,-4
1511884284674133,12,16,-12,-7,0,7,6,4
1511884284674133,1,2,3,17,0,1,-6,-6
1511884284683101,-10,-5,9,16,-4,2,-5,-7
1511884284683101,-3,-1,-3,4,-5,-4,-9,0
1511884284697182,-2,-4,-7,1,-4,-8,-3,2
1511884284697182,5,8,-17,-11,-2,-2,-4,3
1511884284704207,6,5,-4,-5,0,-1,-49,1
1511884284704207,-8,-5,14,4,2,0,-56,-9
1511884284720250,4,-7,21,9,-2,3,-38,1
1511884284720250,-7,-12,-2,2,-5,3,-14,-7
1511884284722244,4,-2,2,5,-6,0,15,3
1511884284722244,0,-2,-4,-5,-5,1,22,4
1511884284734362,-4,2,5,-6,-1,-1,16,2
1511884284734362,-7,-4,5,-1,0,-4,9,-1
1511884284743264,3,-2,-3,0,0,-1,11,-2
1511884284743264,17,8,-7,-5,0,1,16,13
1511884284757517,1,-4,2,0,-6,-3,19,-8
1511884284757517,-7,-6,-2,1,0,-4,12,-6
1511884284764429,5,2,-2,1,3,-4,8,-5
1511884284764429,-3,6,1,2,4,-3,16,-5
1511884284780285,-8,0,0,-1,1,-4,0,-9
1511884284780285,-1,10,4,-2,1,5,1,0
1511884284782171,-7,7,6,4,0,6,4,5
1511884284782171,0,2,-15,-6,3,7,4,3
1511884284794318,-7,-12,-8,-3,-4,0,1,-3
1511884284794318,10,10,-4,-7,-3,-1,3,6
1511884284803227,-3,-7,1,-3,-1,-1,2,1
1511884284803227,6,-5,-1,-6,-1,0,7,5
1511884284817297,0,-3,15,10,-2,-1,0,-2
1511884284817297,-3,-14,-13,0,-5,0,-6,-17
1511884284824403,4,-5,-3,5,4,1,7,-2
1511884284824403,2,-10,-3,7,3,5,0,0
1511884284840436,-9,-2,2,-2,-2,6,-4,6
1511884284840436,14,4,14,-2,0,-1,-2,10
1511884284842325,-1,0,0,-6,0,-4,0,10
1511884284842325,-11,9,-4,2,-2,-10,3,-1
1511884284854366,14,6,-3,4,0,-3,1,1
1511884284854366,-9,4,-9,0,-2,-4,-4,7
1511884284863387,-4,-2,-6,-1,-1,0,-3,-3
1511884284863387,-1,4,0,-5,-2,4,-4,-7
1511884284877015,-5,-1,4,-4,-4,5,-5,-13
1511884284877015,-8,-1,3,-4,-2,-1,-7,-7
1511884284884032,6,1,-4,-5,1,-3,-6,0
1511884284884032,-2,-3,4,0,0,-7,3,4
1511884284900071,8,7,1,-3,0,-8,5,2
1511884284900071,1,-10,6,2,2,-8,8,-4
1511884284902053,-13,-7,8,1,5,-3,12,-5
1511884284902053,-7,-17,7,3,3,-2,10,-2
1511884284914085,3,2,2,0,-2,1,6,7
1511884284914085,6,3,-7,2,-5,0,1,4
1511884284923108,3,5,-2,1,-4,-3,6,-3
1511884284923108,15,0,-1,-1,-3,-5,13,5
1511884284937146,1,-16,-6,2,-1,-3,10,0
1511884284937146,-4,6,-7,-9,-4,0,9,-3
1511884284944166,-5,8,1,-2,-5,2,2,-4
1511884284944166,-3,8,0,-1,2,1,-7,3
1511884284960208,-3,-4,-14,1,0,1,-5,0
1511884284960208,-4,7,0,2,-2,1,-10,-3
1511884284966726,-2,1,-4,-5,-3,2,-15,-2
1511884284966726,-3,6,-7,-7,-3,1,-18,-10
1511884284974275,2,0,2,-1,1,5,-11,0
1511884284974275,-2,-12,-3,0,4,3,-8,0
1511884284983277,-3,-12,-8,-5,2,-1,-8,-3
1511884284983277,3,0,2,1,3,4,-3,6
1511884284997313,-4,-8,-4,-5,1,-2,-1,4
1511884284997313,4,-3,-3,-2,-2,0,-4,0
1511884285004333,11,-2,-4,2,3,3,-8,2
1511884285004333,14,-1,4,10,3,-3,-14,-4
1511884285020376,17,6,6,-1,5,0,-9,-2
1511884285020376,4,-5,6,0,5,-3,-2,-3
1511884285022380,5,7,2,-1,-3,-2,1,-3
1511884285022380,-2,-8,-6,1,-3,4,5,-4
1511884285034412,-6,-6,12,10,1,6,2,-1
1511884285034412,0,-5,2,3,-2,3,3,-4
1511884285043467,-3,-5,-3,2,2,1,0,-6
1511884285043467,-5,-4,-3,-5,-2,0,-3,-3
1511884285057531,-4,-3,-4,-4,-3,-1,2,6
1511884285057531,-8,-1,0,-1,-7,-1,1,5
1511884285064041,-6,-4,-15,-3,-9,-4,0,4
1511884285064041,-5,-1,-10,-7,3,-7,-2,5
1511884285080595,-6,11,-4,-13,4,-6,2,3
1511884285080595,-7,2,3,12,7,-3,5,4
1511884285081625,-3,9,16,8,-3,-1,3,-4
1511884285081625,-4,5,-8,-5,-8,-4,-2,-11
1511884285093657,-1,2,-5,-10,-5,-1,-7,-8
1511884285093657,-5,-4,1,-1,-5,1,-4,-1
1511884285102681,-12,1,9,1,0,1,-1,2
1511884285102681,-10,-9,6,2,-3,1,2,4
1511884285117719,-11,14,-19,-2,3,-3,3,1
1511884285117719,-4,9,-2,-1,4,-4,1,-2
1511884285123736,-2,1,-8,-3,7,-6,3,-6
1511884285123736,1,1,3,-9,-2,-4,4,0
1511884285139753,7,7,-8,-11,-4,-2,4,3
1511884285139753,-2,-11,5,4,-6,-1,1,-3
1511884285146771,4,2,-1,-7,-5,4,-1,6
1511884285146771,3,-3,0,7,2,0,-4,2
1511884285154350,1,0,7,8,-2,-6,-8,-2
1511884285154350,0,-2,-9,-6,-1,-5,-6,0
1511884285163348,-5,-8,-1,2,-3,0,-1,-3
1511884285163348,0,0,2,0,-1,3,-1,-4
1511884285177410,7,5,0,-8,-4,9,3,-2
1511884285177410,3,-10,-6,-4,-2,2,1,-5
1511884285184429,7,-3,-11,-1,1,1,3,3
1511884285184429,-2,5,12,13,0,-1,0,1
1511884285199469,-7,-14,-1,-10,9,-7,-2,2
1511884285199469,-1,-5,1,-2,-11,-11,-5,-1
1511884285206487,6,10,18,-28,3,-5,-3,5
1511884285206487,11,8,-5,16,-4,-6,-3,2
1511884285214508,5,-18,16,14,-2,0,-2,-1
1511884285214508,-3,-1,8,11,5,2,-2,-6
1511884285223560,-10,-3,-3,-10,-14,-9,-6,-6
1511884285223560,-12,1,-7,-19,-3,0,0,-4
1511884285237600,-7,4,-3,2,-5,-1,-1,-2
1511884285237600,2,6,-6,-2,3,7,4,1
1511884285243617,-2,-7,-7,15,4,6,-1,3
1511884285243617,-2,8,0,-5,4,3,-2,1
1511884285260193,1,-8,-10,6,0,-4,-4,-2
1511884285260193,16,5,2,-4,0,2,-3,6
1511884285266706,15,-3,4,3,0,2,-3,5
1511884285266706,8,-2,7,-3,-3,4,-4,-2
1511884285273767,-7,3,19,1,0,2,-2,-4
1511884285273767,-9,7,8,-7,4,0,3,-3
1511884285282758,-16,0,-15,-5,4,0,-1,-9
1511884285282758,1,-9,-10,2,3,0,1,-7
1511884285296795,0,-4,11,6,0,-2,0,4
1511884285296795,3,11,0,2,3,-2,0,6
1511884285303814,-8,4,-10,6,2,0,2,2
1511884285303814,-4,-11,5,1,-6,-3,-1,-1
1511884285319885,0,-7,-4,-2,-12,-6,4,-5
1511884285319885,-5,-3,1,-3,-9,-1,3,-3
1511884285326901,0,4,-23,-6,-3,-1,4,-2
1511884285326901,-6,0,-1,-4,-6,-1,-1,-3
1511884285342944,8,-2,2,-1,-5,3,-6,0
1511884285342944,-3,-17,-6,-2,-2,0,-1,5
1511884285344950,-13,-4,2,2,4,4,-3,-8
1511884285344950,0,7,-16,-10,8,11,4,11
1511884285357484,-7,4,-2,-3,7,3,-10,-11
1511884285357484,7,5,-3,-4,-1,-1,-5,-4
1511884285364504,8,-5,7,6,-2,-5,5,10
1511884285364504,-11,-21,2,1,-3,-7,6,1
1511884285380037,-7,5,-2,-6,7,-1,6,4
1511884285380037,6,-2,2,-3,6,-5,2,5
1511884285387068,4,3,16,2,-3,-4,0,-2
1511884285387068,22,4,1,1,0,-3,2,0
1511884285403111,6,13,-15,-3,-3,0,-3,0
1511884285403111,-11,-11,-6,-1,-4,3,-3,-13
1511884285404114,1,3,-2,1,-2,-1,-7,1
1511884285404114,-14,-9,4,-2,-5,-1,-7,-3
1511884285417144,-10,-12,15,7,2,1,1,-5
1511884285417144,-3,0,-4,-3,-2,-1,2,-2
1511884285424166,-6,-5,4,4,-3,7,4,1
1511884285424166,-7,3,5,-1,0,1,-4,-15
1511884285440180,3,-4,-3,3,0,-1,-1,7
1511884285440180,2,6,7,2,-2,5,6,11
1511884285446196,1,-3,4,4,0,-2,-1,-3
1511884285446196,-5,12,5,0,5,0,0,-6
1511884285463244,-2,-4,-4,1,-1,-6,-5,-6
1511884285463244,8,-4,3,1,3,-6,-1,-1
1511884285464749,2,-3,-8,-3,-6,-7,0,-3
1511884285464749,7,11,-4,4,-4,-7,1,4
1511884285476307,-5,5,-8,2,-4,-3,-1,-5
1511884285476307,-5,12,-7,3,1,0,-3,2
1511884285485311,5,3,6,4,1,-4,4,3
1511884285485311,-10,-28,2,3,-4,-6,2,4
1511884285499368,0,5,0,-16,-4,-2,4,5
1511884285499368,-7,-16,-8,-3,3,-5,-8,-6
1511884285506396,6,15,13,-4,6,3,-2,10
1511884285506396,-4,10,0,1,4,4,-5,-3
1511884285523406,4,-2,-6,-6,-4,7,0,1
1511884285523406,-3,-13,19,-5,-6,2,0,2
1511884285524409,3,-12,0,0,-1,3,-1,-5
1511884285524409,9,2,-10,-5,0,-1,2,-3
1511884285536471,-12,-4,8,9,2,-1,3,-1
1511884285536471,1,4,-7,3,-1,-3,-2,4
1511884285545464,-8,-2,-5,-2,-6,-3,-6,-5
1511884285545464,-2,1,1,-4,-2,0,-3,2
1511884285560004,4,3,-1,6,0,3,-6,-9
1511884285560004,7,-2,-37,-7,0,2,3,-1
1511884285566521,1,6,13,2,-5,-5,0,-7
1511884285566521,4,-8,-6,-1,0,-2,0,3
1511884285582619,10,7,-14,-6,-2,-3,-1,5
1511884285582619,-5,3,1,-4,1,3,-3,1
1511884285584598,7,1,-18,-5,5,5,-1,-6
1511884285584598,8,-1,2,-2,3,2,0,6
1511884285596661,0,-2,0,-2,3,1,-4,6
1511884285596661,-7,7,11,1,3,5,-4,-9
1511884285605654,-10,-9,12,5,5,-1,-7,-3
1511884285605654,-6,4,-2,0,5,-2,3,-3
1511884285619691,8,-3,-4,-7,1,-4,6,2
1511884285619691,3,-6,3,-3,-2,-10,2,1
1511884285626709,-1,-4,1,-4,-3,-10,5,-1
1511884285626709,-3,3,-7,-8,-6,0,1,3
1511884285642784,-11,5,3,7,-6,0,-3,-4
1511884285642784,-2,17,-22,3,-5,4,-2,-3
1511884285644757,5,4,-11,4,-6,4,-2,10
1511884285644757,3,-3,2,2,-6,-5,-6,-8
1511884285656831,-1,-10,1,-3,-1,-4,2,-1
1511884285656831,4,3,3,-6,4,-6,4,-4
1511884285665836,2,5,-8,-2,1,0,11,8
1511884285665836,1,5,-7,2,-4,2,9,5
1511884285680112,-2,-5,-11,-1,-8,-4,-4,0
1511884285680112,-2,8,4,2,0,-4,-5,-4
1511884285687113,0,-5,-1,-4,2,3,-1,-3
1511884285687113,-1,2,2,1,4,4,-1,-4
1511884285703209,2,2,-1,-6,4,-1,2,-1
1511884285703209,-3,-15,19,-1,3,-3,-3,-2
1511884285704158,-7,-6,-1,-2,3,-2,-2,-6
1511884285704158,5,6,-18,-2,0,2,-2,9
1511884285717193,1,-5,-11,3,1,2,-5,3
1511884285717193,2,5,5,1,-6,6,3,2
1511884285725218,0,-6,-2,-6,-5,1,-6,-3
1511884285725218,-8,-1,12,-1,-5,2,-4,-2
1511884285740310,-6,7,0,3,-4,-1,-4,6
1511884285740310,-2,2,-9,-1,-7,1,-2,-1
1511884285746271,7,0,4,5,1,0,5,3
1511884285746271,9,-3,3,-3,2,-4,2,1
1511884285763486,0,-1,8,-4,4,-3,3,-3
1511884285763486,1,2,-1,0,3,1,1,1
1511884285764947,-11,-13,-12,-7,6,-2,2,-8
1511884285764947,7,-7,7,2,2,-3,0,1
1511884285777131,0,-11,6,2,0,-3,-1,-5
1511884285777131,-6,-8,0,5,-4,1,-6,-3
1511884285785133,-6,2,-8,1,-5,1,-2,4
1511884285785133,-3,-2,0,2,-3,4,-1,-3
1511884285800287,4,4,0,4,-9,7,4,-2
1511884285800287,2,7,-9,-1,-5,1,8,-5
1511884285806301,6,-4,-1,-8,1,-6,-3,-4
1511884285806301,-4,-4,-1,-8,8,-4,-8,-8
1511884285823359,-2,-9,-8,-6,13,-2,0,6
1511884285823359,2,-1,-7,-2,8,-3,1,5
1511884285824239,-8,3,2,5,5,0,2,0
1511884285824239,-2,-5,-1,-2,5,-2,1,1
1511884285836395,-7,1,2,1,4,-3,-2,-2
1511884285836395,-8,-1,15,1,2,-9,-5,-11
1511884285845335,4,4,0,3,-2,-7,2,6
1511884285845335,1,8,2,1,-4,-8,0,0
1511884285859885,-3,0,3,-1,-10,-2,-4,-8
1511884285859885,-4,-16,1,3,-7,7,-1,-7
1511884285866931,-4,-3,1,1,-11,9,2,-2
1511884285866931,-7,-2,-5,2,-5,8,1,-2
1511884285883069,4,2,9,1,-3,4,7,1
1511884285883069,5,0,0,-5,1,-1,-2,4
1511884285885069,-2,0,5,0,3,1,-8,-7
1511884285885069,0,1,2,-2,-3,0,1,3
1511884285896099,-2,-10,-7,-2,2,-1,1,2
1511884285896099,3,4,0,3,1,-5,1,9
1511884285905120,2,-7,3,-2,-3,-4,-1,8
1511884285905120,0,0,0,-7,-5,-3,1,-1
1511884285920161,-2,-5,-3,-7,-3,-1,-1,3
1511884285920161,-3,-2,-6,-7,-1,5,-6,-1
1511884285926178,-6,4,-1,2,-3,1,-2,-7
1511884285926178,16,4,4,6,-3,-5,-12,-7
1511884285943222,2,6,2,3,-8,-4,-4,-7
1511884285943222,0,-5,-4,0,-6,-6,0,0
1511884285944225,-1,2,-2,-1,-1,-6,-3,-2
1511884285944225,-12,-1,-1,2,-4,-6,0,-6
1511884285956792,2,6,-2,-3,0,-3,1,7
1511884285956792,-3,2,1,-2,4,-6,0,3
1511884285965815,-1,-12,-4,-3,6,-2,3,-2
1511884285965815,5,-8,-5,0,3,2,8,-1
1511884285979866,6,6,4,4,-4,2,1,1
1511884285979866,-2,-3,2,-3,-12,4,-1,1
1511884285986884,-3,-16,2,-1,-6,3,0,-1
1511884285986884,-9,-11,-1,1,6,2,2,1
1511884286002927,-11,-1,-3,3,8,-3,-1,-3
1511884286002927,-2,7,-5,0,8,0,-3,0
1511884286004932,8,11,0,1,3,0,-4,5
1511884286004932,0,4,-2,-3,-8,-2,-7,-2
1511884286016964,2,9,-1,-2,-7,-5,3,0
1511884286016964,10,8,3,4,-5,-5,2,2
1511884286025988,-3,-2,-3,-4,-4,-6,-7,-14
1511884286025988,-5,0,0,-4,2,-3,-2,-5
1511884286040025,-7,-8,4,-5,7,-3,1,-3
1511884286040025,6,-8,0,0,3,-1,4,6
1511884286047044,1,2,0,-2,0,2,5,8
1511884286047044,1,0,-3,-2,-5,5,3,2
1511884286062588,1,0,3,4,-3,6,2,-5
1511884286062588,-6,-7,3,0,0,1,3,-5
1511884286069105,5,-1,-5,2,3,2,-2,0
1511884286069105,-6,-2,-6,3,1,-2,-5,3
1511884286076217,3,12,3,1,0,2,-3,0
1511884286076217,-3,-4,-4,-2,-6,-1,-5,-6
1511884286085244,4,5,1,-5,-5,-3,0,-1
1511884286085244,0,-7,2,2,-3,-4,3,-2
1511884286099279,0,-5,-3,-12,-1,-4,3,-1
1511884286099279,-2,-2,1,2,1,-1,-1,-7
1511884286106298,-4,5,-4,-9,0,0,-4,-5
1511884286106298,4,6,-6,8,4,-1,-5,7
1511884286122339,2,-1,-7,-29,-2,2,-4,3
1511884286122339,-6,-5,-3,11,4,-4,0,1
1511884286129359,-1,-2,-4,-10,4,2,6,2
1511884286129359,-5,-5,5,-3,-2,-14,4,-4
1511884286136376,3,-4,0,0,3,-1,1,-1
1511884286136376,1,0,2,-3,0,5,5,3
1511884286145401,-1,4,3,14,3,-6,-1,-2
1511884286145401,-2,4,2,1,-6,-2,-7,-5
1511884286159942,-4,-2,0,10,-9,-3,-7,-3
1511884286159942,-3,-4,-2,-5,-4,5,-3,3
1511884286166961,3,3,3,3,-1,6,5,2
1511884286166961,3,-3,0,-1,7,-1,-2,-4
1511884286182105,3,-3,-3,8,0,-5,-3,-2
1511884286182105,1,3,-5,1,0,-4,-5,-2
1511884286189124,-4,-1,-1,-5,-5,-4,-3,1
1511884286189124,-6,-2,-3,-10,-2,0,-2,-1
1511884286196142,0,4,1,4,-2,-2,-3,-9
1511884286196142,4,3,-1,-4,-3,-2,1,4
1511884286205167,0,5,-11,-2,-4,1,5,3
1511884286205167,3,0,3,9,1,4,5,5
1511884286220206,-6,-2,0,2,5,-2,1,0
1511884286220206,-3,6,-2,-35,0,-5,0,-8
1511884286226222,-6,2,6,21,0,-7,-6,-8
1511884286226222,-4,-4,-3,-14,-9,1,-6,0
1511884286242266,-1,-6,-5,24,4,6,-2,6
1511884286242266,0,-7,-7,-17,-10,3,-5,2
1511884286249283,0,-9,1,-13,-4,0,-7,-1
1511884286249283,-1,1,-1,-6,4,3,-1,2
1511884286265829,-2,-1,-3,-7,1,3,0,-1
1511884286265829,2,2,-1,0,4,5,2,0
1511884286267333,3,2,-11,-1,0,-1,0,2
1511884286267333,2,0,5,7,-3,-3,1,-3
1511884286279368,-3,-10,17,3,-8,-9,-1,-4
1511884286279368,-2,1,-1,12,1,-5,-1,-10
1511884286286386,0,9,-4,1,1,-2,1,-3
1511884286286386,-7,1,-7,0,3,3,2,-4
1511884286302429,9,14,-2,-6,0,6,4,10
1511884286302429,-9,-8,5,4,-4,1,-2,2
1511884286309447,10,-6,3,0,1,2,-2,4
1511884286309447,-4,0,2,4,4,5,1,-4
1511884286325490,5,-3,-12,-3,2,6,0,1
1511884286325490,9,0,-3,8,2,2,1,0
1511884286327496,-1,0,-4,-4,0,-1,0,-1
1511884286327496,0,-4,-2,-1,-3,-2,-1,1
1511884286339528,-4,-3,-2,-3,-2,-3,-3,-2
1511884286339528,0,2,9,3,-1,-2,-2,-2
1511884286346547,-1,1,6,-4,-6,-6,0,-6
1511884286346547,1,-1,2,-3,2,-7,2,-6
1511884286362592,-3,-1,4,-2,-3,-7,1,1
1511884286362592,-7,-4,-5,1,3,-1,4,-1
1511884286369109,-3,-3,4,2,0,2,1,4
1511884286369109,-2,-4,-5,2,-3,1,-2,3
1511884286385656,0,6,-6,1,-4,-2,-5,-1
1511884286385656,7,4,7,9,-1,2,2,2
1511884286386658,-7,-17,-13,3,2,3,1,-5
1511884286386658,-2,3,0,-1,-2,2,4,4
1511884286399691,0,1,-3,-6,2,4,2,0
1511884286399691,-3,-3,16,5,-4,-5,-6,-6
1511884286408716,-6,1,5,3,0,-2,1,-1
1511884286408716,1,-7,-7,-3,-3,-1,-1,1
1511884286421751,-6,-8,2,3,-3,0,1,4
1511884286421751,-6,-6,-10,-3,-5,3,1,-4
1511884286428770,-2,1,1,-2,-5,1,0,-4
1511884286428770,7,5,-7,-3,4,-1,-3,-4
1511884286445814,6,7,-4,-3,5,-6,-6,-7
1511884286445814,4,3,3,-1,1,-5,-9,-3
1511884286446817,2,-3,6,6,-1,-4,-10,3
1511884286446817,8,2,4,7,-3,0,-3,3
1511884286459353,-6,-6,6,5,-2,0,5,1
1511884286459353,-7,-9,-12,-4,3,4,9,4
1511884286468378,-5,14,3,-5,-2,3,6,0
1511884286468378,-5,5,1,0,-1,-5,-7,-10
1511884286482433,6,5,-3,-1,2,-5,2,10
1511884286482433,-4,-3,-10,-2,2,-4,2,-6
1511884286489451,-11,-21,-1,-1,-2,-1,18,7
1511884286489451,2,0,-2,0,-6,0,14,2
1511884286505494,9,2,-4,0,-7,1,4,1
1511884286505494,7,7,1,2,0,0,0,-2
1511884286507500,-3,5,3,0,5,1,-8,-9
1511884286507500,-6,1,4,2,5,-1,-10,-5
1511884286519533,-12,-12,-6,-2,-1,1,-8,-9
1511884286519533,3,5,3,-1,-3,0,-3,0
1511884286527553,1,-4,-2,-2,-8,0,-1,2
1511884286527553,-6,-6,2,-7,-8,0,1,15
1511884286542593,-7,-1,-3,-1,-3,-1,-4,1
1511884286542593,-2,6,-18,-6,-1,-1,-5,-1
1511884286548609,4,5,-3,3,-1,-7,-2,-10
1511884286548609,1,-7,8,6,1,0,2,0
1511884286565658,-1,-9,-5,-2,4,1,3,-2
1511884286565658,-10,-6,9,-3,-1,1,-6,-4
1511884286567161,-5,-4,-1,-1,-1,3,-8,0
1511884286567161,9,5,0,-3,3,4,1,2
1511884286578936,1,6,-1,-5,2,-1,-1,-5
1511884286578936,6,-3,-2,2,8,-1,2,-1
1511884286587959,5,-2,-7,-8,2,-2,-2,0
1511884286587959,4,-3,-7,0,2,-1,-3,1
1511884286601998,-4,-2,-1,-4,-3,-3,0,1
1511884286601998,-15,-2,-4,-7,-6,-1,3,-1
1511884286609016,19,11,14,3,0,2,-1,9
1511884286609016,0,1,3,0,-4,2,6,8
1511884286625057,-6,4,7,9,-4,2,4,-3
1511884286625057,2,0,4,7,-3,0,0,-1
1511884286627063,-1,2,-9,-3,1,4,-7,-5
1511884286627063,-11,-6,-2,-4,6,-1,-11,-11
1511884286640098,-2,1,2,0,2,1,-5,-3
1511884286640098,0,7,-8,-4,2,3,0,1
1511884286646113,0,-2,-3,-3,2,-3,0,-4
1511884286646113,2,-4,-4,-10,-6,-6,-7,-4
1511884286662659,-1,-2,2,-6,-4,-4,-4,3
1511884286662659,0,-9,4,6,-2,-4,-3,8
1511884286669178,-6,-3,-5,4,-6,-1,1,-2
1511884286669178,-3,-1,-6,1,-1,3,6,2
1511884286685221,-6,0,-5,-2,3,3,0,-8
1511884286685221,-5,0,-1,-2,0,7,2,1
1511884286687226,0,-1,4,-3,-1,2,-6,-10
1511884286687226,5,-11,4,2,-1,2,3,3
1511884286699259,-2,10,0,1,0,-1,-3,-9
1511884286699259,2,-2,1,2,-2,0,2,5
1511884286706278,-1,1,-6,-2,-3,-6,0,4
1511884286706278,-5,3,-3,-3,-2,-7,-4,2
1511884286722319,5,-7,3,0,-3,-4,1,12
1511884286722319,-2,-1,4,-1,-1,-5,-1,-1
1511884286729338,-10,-4,-2,-1,0,0,0,-6
1511884286729338,0,19,0,-2,1,1,-3,-3
1511884286745381,-3,-8,0,-3,-1,1,-4,3
1511884286745381,-1,-4,5,2,4,-2,-8,-4
1511884286747386,-2,-5,0,0,0,2,0,3
1511884286747386,-2,-2,-12,3,-1,1,-1,-11
1511884286759420,4,10,-4,-2,-3,1,6,-3
1511884286759420,6,-5,-11,1,-5,-2,5,1
1511884286768444,0,-2,-1,-1,6,-2,0,2
1511884286768444,-7,-7,0,-3,2,-1,2,0
1511884286782482,0,-5,1,-3,1,-2,-3,0
1511884286782482,4,8,-1,-7,-3,-4,-4,1
1511884286789500,3,-5,0,-1,-1,-3,-4,0
1511884286789500,-3,-1,-2,0,1,1,-5,-5
1511884286805543,3,1,-5,1,12,6,0,0
1511884286805543,0,-3,-8,2,5,0,0,-1
1511884286806547,3,8,10,6,0,-5,4,2
1511884286806547,-5,-3,1,-3,-8,-5,-1,-6
1511884286818578,12,-2,-3,-6,-5,-3,2,2
1511884286818578,-9,0,6,-2,50,-1,1,-5
1511884286827601,13,3,2,-4,38,1,0,1
1511884286827601,-6,-4,8,2,17,-2,-3,2
1511884286842642,-9,-9,-6,3,-9,7,-3,-2
1511884286842642,12,8,-9,-1,-34,6,-1,-1
1511884286848658,-7,-1,4,2,-24,1,2,-5
1511884286848658,2,7,-1,-2,-17,-1,2,-2
1511884286865706,-3,1,3,-4,-13,-3,-2,-4
1511884286865706,3,-5,-5,-7,-7,-4,-4,3
1511884286867210,-14,-8,-8,-6,-5,-3,-7,-2
1511884286867210,33,6,2,-4,-7,5,4,12
1511884286878743,-7,-8,-1,1,-8,1,4,1
1511884286878743,2,-10,0,4,-13,-2,4,14
1511884286887767,1,5,-1,3,-13,-11,1,-6
1511884286887767,-15,-3,-2,5,1,-4,0,-5
1511884286902807,-9,3,-4,5,4,-2,-9,-21
1511884286902807,16,6,10,2,-4,2,-1,8
1511884286908823,-9,-5,-1,-4,0,3,-2,-5
1511884286908823,4,0,-4,-6,6,2,1,1
1511884286924865,3,-5,0,-3,6,1,3,0
1511884286924865,-19,-6,-2,1,2,3,-1,-8
1511884286925869,-2,3,-1,1,-5,4,-2,0
1511884286925869,-6,-8,5,5,0,0,-1,-5
1511884286946925,-3,9,12,3,2,-3,-4,2
