timestamp,emg1,emg2,emg3,emg4,emg5,emg6,emg7,emg8
1511885738434807,0,-2,0,5,2,1,2,0
1511885738434807,-2,-1,-4,-2,-2,2,-2,-1
1511885738435810,-2,0,1,-8,-3,0,-2,-3
1511885738435810,-1,-2,0,0,0,0,-1,0
1511885738439820,-1,-1,-1,-1,-1,0,0,-1
1511885738439820,-1,-1,1,6,4,-1,0,-1
1511885738443831,0,-3,-2,0,0,1,0,3
1511885738443831,-1,0,-3,-4,-1,-1,-1,-1
1511885738445837,0,-1,-3,-1,-2,-2,-1,-1
1511885738445837,0,1,0,-1,-4,0,0,-1
1511885738456866,-1,-2,-1,0,-1,-4,-3,-4
1511885738456866,-1,1,1,0,-1,-1,-2,-1
1511885738460876,1,0,-2,-2,-2,2,1,-2
1511885738460876,-1,0,-1,-4,0,0,-2,-1
1511885738476919,0,-1,-2,-1,-1,-2,-3,-1
1511885738476919,-2,-3,-1,2,-1,2,-1,-2
1511885738483941,-1,0,0,-2,1,-1,0,1
1511885738483941,-1,0,-3,-1,-2,-1,1,-1
1511885738502038,0,0,-1,2,-1,-1,1,0
1511885738502038,0,-1,-1,-3,-3,-2,0,-2
1511885738505999,-2,-1,1,-3,-2,-1,0,-1
1511885738505999,0,-1,1,2,0,1,0,0
1511885738552346,0,-1,0,-14,-5,-4,0,1
1511885738552346,-1,0,1,0,0,-1,-1,1
1511885738553264,-2,-2,-1,0,0,1,-2,-1
1511885738553264,1,-1,-2,3,1,1,1,0
1511885738554264,-1,-1,-1,1,2,0,-1,-2
1511885738554264,-2,-1,-1,-2,-2,2,0,0
1511885738555261,-2,0,0,0,-1,1,-1,1
1511885738555261,0,-2,0,-1,-2,0,0,-1
1511885738565288,0,-1,1,1,-1,2,1,-3
1511885738565288,0,0,-1,-1,-2,-1,0,-1
1511885738573312,2,-1,1,1,0,1,-1,-2
1511885738573312,-1,0,-1,-3,0,-4,-3,-4
1511885738580330,0,-1,-1,2,1,-1,-2,-1
1511885738580330,0,2,1,3,2,-1,0,0
1511885738596370,-1,-1,0,-2,-1,-1,1,-1
1511885738596370,-1,0,1,-3,0,-1,2,-1
1511885738602386,0,-2,0,0,-1,0,0,0
1511885738602386,0,0,0,-2,-1,2,-1,-1
1511885738610410,1,1,-2,-1,0,-2,1,0
1511885738610410,0,0,-1,-2,-2,-3,-3,-1
1511885738625717,-2,-2,0,-2,1,0,-4,-4
1511885738625717,-1,-3,-2,-1,0,0,1,0
1511885738633639,1,-2,-1,-1,-1,-1,1,-2
1511885738633639,-1,-2,-1,3,1,0,0,1
1511885738640849,-2,-2,-1,2,1,-2,-2,0
1511885738640849,0,-1,-1,-13,-7,-5,-4,-3
1511885738656741,-1,0,0,-3,-2,-2,-1,0
1511885738656741,-1,0,-1,-2,1,-2,-1,-2
1511885738662762,0,1,-1,0,-3,-4,1,0
1511885738662762,0,-1,0,7,3,-2,0,-2
1511885738671006,-1,-1,0,-2,-3,1,0,-2
1511885738671006,0,-1,-1,-2,-2,2,-2,0
1511885738686078,-1,0,-1,1,1,0,3,0
1511885738686078,0,1,-3,1,0,-2,-2,-1
1511885738694129,-1,0,-1,-1,0,1,-3,-2
1511885738694129,-3,-2,-1,0,-1,-2,0,0
1511885738701027,-1,0,0,-2,0,0,0,-1
1511885738701027,-2,0,-2,-1,-2,-2,0,-2
1511885738716052,-1,-2,-1,-1,0,-1,-1,-1
1511885738716052,-1,-1,-2,-1,-1,-4,-2,-2
1511885738723076,0,-1,0,1,0,1,2,0
1511885738723076,-1,-2,0,-1,-1,-2,2,0
1511885738730093,-1,0,0,0,-2,-3,-2,-1
1511885738730093,0,1,0,-1,-1,1,-1,0
1511885738745208,-1,3,0,0,0,-6,0,-1
1511885738745208,-1,-2,0,2,0,-1,-1,-3
1511885738754163,0,-1,-1,0,0,-3,0,1
1511885738754163,-2,-2,1,-1,-1,-3,0,-2
1511885738760173,1,0,-3,0,-2,-1,-2,-2
1511885738760173,0,-1,0,-1,-1,0,-1,0
1511885738776215,-1,0,2,1,0,-3,-1,0
1511885738776215,-1,0,1,-1,-1,2,-2,0
1511885738783234,0,-1,-1,1,-1,-1,-2,2
1511885738783234,0,-2,-3,-1,0,-3,0,-1
1511885738790252,0,0,-2,-2,-1,-1,-3,-1
1511885738790252,-2,-1,-1,-1,-1,-3,0,-1
1511885738805292,0,-2,3,-1,0,-1,-1,-1
1511885738805292,-2,-2,-1,-3,0,-2,-2,0
1511885738813314,-1,-3,-1,-1,0,-1,0,0
1511885738813314,2,3,0,-1,0,-3,-2,-1
1511885738820483,-1,-1,-1,-3,-1,2,-2,-1
1511885738820483,0,1,1,0,1,1,-1,0
1511885738836373,-1,0,-2,1,1,-2,0,-1
1511885738836373,0,-2,-1,1,-2,0,0,0
1511885738843392,-2,-2,-2,-1,2,-3,1,-3
1511885738843392,-1,1,1,1,1,-1,-1,-1
1511885738850451,1,0,3,0,-1,2,1,-2
1511885738850451,-1,-2,-2,0,-1,-2,2,-1
1511885738865453,0,3,2,1,-1,0,-2,1
1511885738865453,2,0,2,1,1,-3,1,1
1511885738873474,-1,0,-2,-5,0,0,-1,0
1511885738873474,0,1,3,2,0,0,-1,-1
1511885738882510,-3,-5,-2,-3,-2,0,-2,-1
1511885738882510,0,-1,1,3,1,-1,1,0
1511885738896534,-3,-3,-2,-2,0,-4,-1,0
1511885738896534,0,1,-3,0,2,-1,-1,-1
1511885738902672,0,0,0,0,-1,-2,-1,0
1511885738902672,3,2,-5,-6,-9,6,0,2
1511885738910690,-2,-2,-5,-3,1,-7,0,-2
1511885738910690,-2,-2,-2,-1,0,-4,-1,-1
1511885738925628,0,0,1,7,5,-4,1,-1
1511885738925628,-1,-2,-2,-3,-1,-1,0,-2
1511885738933671,-2,0,0,0,-4,-1,-1,-1
1511885738933671,-1,-2,-1,-4,-1,-2,0,1
1511885738940650,1,0,-4,-3,-3,-2,-1,0
1511885738940650,-2,-1,-1,0,1,-4,1,0
1511885738956716,2,-1,2,1,1,-1,1,2
1511885738956716,0,0,1,0,-1,-1,1,0
1511885738962821,-3,-2,-3,0,-3,0,1,0
1511885738962821,-1,-2,-4,1,2,-2,-2,-2
1511885738970843,0,-1,-1,0,-1,0,-3,-1
1511885738970843,0,2,0,-2,-2,1,0,1
1511885738985959,2,-1,1,-2,-1,-4,0,-2
1511885738985959,-4,-7,-10,-4,-4,-5,-1,-3
1511885738993955,1,1,3,0,-2,3,2,0
1511885738993955,1,1,14,5,0,1,-2,-1
1511885739000986,0,1,3,-1,0,3,0,-1
1511885739000986,-2,-1,-7,5,0,-2,-2,-1
1511885739016127,1,-1,-5,0,1,-1,-1,-1
1511885739016127,-2,-2,-3,-2,-1,-5,-2,-2
1511885739022995,-1,1,9,1,1,2,0,-2
1511885739022995,0,1,5,-2,-1,-5,0,1
1511885739039036,-1,-2,-6,2,-2,-5,2,2
1511885739039036,1,2,-1,-1,-1,-4,0,1
1511885739045194,0,0,-2,-5,-2,-1,-2,0
1511885739045194,0,0,9,4,-1,3,-1,-3
1511885739054197,-2,-3,-15,-1,-2,4,-4,-3
1511885739054197,-2,-7,-9,-6,-1,-3,0,-1
1511885739060252,-2,-2,-2,-3,-2,1,-2,0
1511885739060252,0,1,7,0,3,4,-1,-1
1511885739076295,2,3,11,7,2,-1,-1,1
1511885739076295,-2,-1,1,-3,-3,-5,0,-2
1511885739083274,-1,-3,-11,10,0,-1,0,0
1511885739083274,-2,0,-15,-9,-1,-11,1,-1
1511885739098310,0,3,14,-1,0,0,5,-1
1511885739098310,0,-1,7,5,1,0,-1,2
1511885739105333,-1,0,-10,-2,0,-5,0,1
1511885739105333,0,1,11,6,-2,1,-3,0
1511885739113593,-2,-3,11,-1,-2,4,-3,-3
1511885739113593,-2,0,-30,-13,-2,4,1,-2
1511885739120728,-2,0,24,11,1,5,-1,0
1511885739120728,2,2,9,-4,0,3,-2,1
1511885739135690,2,-3,-43,-10,1,-6,0,-1
1511885739135690,1,-1,24,0,-2,6,2,-2
1511885739142793,-8,-13,-37,-8,0,-6,-1,-3
1511885739142793,3,4,19,4,-1,-9,-2,0
1511885739158890,1,7,-15,-4,-2,8,-1,1
1511885739158890,-3,-7,-9,-2,-1,-6,-2,0
1511885739165729,6,7,18,-6,-3,1,0,1
1511885739165729,-3,-2,-2,4,1,5,-1,-1
1511885739173753,-2,-1,27,4,2,-4,-1,-2
1511885739173753,4,11,2,9,0,5,1,1
1511885739180772,5,7,3,2,1,2,0,1
1511885739180772,-11,-17,-41,-21,2,-2,-2,-2
1511885739195812,-4,7,37,7,-3,0,-3,-3
1511885739195812,8,9,-14,0,-1,-5,0,0
1511885739202831,-1,-3,28,-2,0,1,3,2
1511885739202831,-9,-38,-86,3,-2,-16,-3,-6
1511885739218873,-4,-5,13,-14,0,-2,-5,-2
1511885739218873,-4,3,1,3,0,-6,-2,-2
1511885739225893,12,28,44,13,-1,2,1,5
1511885739225893,5,14,12,6,0,1,1,4
1511885739233913,-11,-12,-10,-7,-4,-4,2,-3
1511885739233913,-2,-3,6,-6,-4,-4,3,0
1511885739239926,-1,-8,-31,-5,3,-2,-2,-1
1511885739239926,11,30,27,8,0,-5,-1,3
1511885739255969,0,-14,21,7,1,13,-2,0
1511885739255969,-9,-5,-11,9,2,-4,4,-2
1511885739262991,-6,-11,-29,-17,-6,0,5,-6
1511885739262991,3,5,5,1,-1,2,5,1
1511885739279057,5,5,-6,2,-2,-16,-1,1
1511885739279057,-3,0,-8,-7,1,6,-3,-1
1511885739285073,-9,-25,-1,-1,-2,-16,-5,-3
1511885739285073,-1,7,49,7,-2,22,3,-3
1511885739293067,1,0,-53,-19,0,-7,3,3
1511885739293067,3,-3,-1,8,2,-8,1,0
1511885739308226,1,6,4,5,0,-1,-3,-1
1511885739308226,3,5,1,-11,-1,-11,-3,0
1511885739316132,-5,-5,1,0,-2,3,-3,-2
1511885739316132,-4,3,7,-1,-2,-5,2,1
1511885739323151,3,14,-3,-1,-1,-3,-5,-1
1511885739323151,-3,-20,3,-3,5,10,18,3
1511885739339196,2,8,-6,1,-2,-2,1,-3
1511885739339196,-1,-14,1,-1,1,-7,-6,-2
1511885739345209,-4,-4,6,2,1,2,-1,-3
1511885739345209,-4,-3,-27,-9,-1,-4,-2,-2
1511885739353227,5,5,1,4,0,-1,-1,2
1511885739353227,3,4,11,0,-5,-4,-4,1
1511885739368267,0,1,0,-3,0,6,-3,1
1511885739368267,-1,1,3,3,-1,5,-2,-2
1511885739376473,1,-2,0,0,-2,-8,-1,-1
1511885739376473,2,3,1,-1,1,1,-1,1
1511885739383307,-2,-5,-9,-3,-1,-2,-2,-1
1511885739383307,-3,1,-1,-1,1,-2,-7,-1
1511885739398351,0,2,5,4,2,6,2,2
1511885739398351,-2,-5,-2,-3,0,-2,3,-1
1511885739405369,-4,-6,-12,-4,-3,-12,-1,-4
1511885739405369,0,1,6,0,-3,0,-4,-2
1511885739413391,1,1,2,1,1,-3,-3,1
1511885739413391,2,-1,-3,1,1,19,2,-1
1511885739428428,0,-1,-4,-1,0,-7,1,0
1511885739428428,-2,1,0,-3,1,-7,-2,-1
1511885739436558,-1,-2,0,3,-5,1,-2,-2
1511885739436558,0,-1,-3,3,1,-11,-3,-2
1511885739442505,-2,-1,4,1,-3,-9,-4,-2
1511885739442505,0,1,2,-5,-1,13,11,1
1511885739458727,2,0,-2,-4,4,-3,4,1
1511885739458727,-1,-1,2,-12,-1,0,-1,-2
1511885739465566,-1,-1,-3,6,1,-1,1,0
1511885739465566,-2,-2,-1,-2,-1,-10,-5,-2
1511885739472614,-3,0,1,2,-1,-6,2,1
1511885739472614,0,2,-1,-3,-2,5,-2,-2
1511885739488626,-1,-3,-6,-4,-1,-4,1,1
1511885739488626,0,0,2,1,-1,0,-3,-2
1511885739495870,-2,-1,-3,-1,2,-6,0,-2
1511885739495870,-1,-1,1,0,0,2,-1,-2
1511885739503009,0,-1,0,-1,1,3,3,0
1511885739503009,0,-3,5,4,0,-1,-1,0
1511885739519048,-2,0,-4,-3,-7,3,-3,-1
1511885739519048,-2,-2,9,-3,-8,-2,-2,0
1511885739525999,-2,1,-15,6,-2,3,1,-2
1511885739525999,-1,0,-7,-9,-1,-5,-3,0
1511885739540994,-1,0,7,0,-1,-2,1,-2
1511885739540994,-1,0,0,-5,3,8,0,0
1511885739548110,2,-1,3,3,-2,1,1,0
1511885739548110,-1,-1,3,0,-2,-3,-3,0
1511885739564227,0,-2,-4,0,0,-3,1,-1
1511885739564227,-3,-2,-1,2,0,-1,0,0
1511885739566057,0,3,2,-3,1,2,-3,2
1511885739566057,-1,-2,-4,1,4,0,0,1
1511885739579097,0,-2,-2,-1,0,2,0,0
1511885739579097,-1,-2,-4,0,1,-2,-3,-1
1511885739585111,0,-1,-2,-4,0,1,1,0
1511885739585111,1,1,0,1,0,0,-3,0
1511885739600151,-2,0,0,1,-3,-3,0,0
1511885739600151,0,-1,-4,2,0,-3,0,-1
1511885739616190,-2,-3,-1,-2,1,-2,0,-2
1511885739616190,-1,1,4,0,0,9,1,-1
1511885739624241,-1,-3,-2,-2,-3,-4,-1,-2
1511885739624241,-1,1,-2,0,4,1,0,0
1511885739624241,0,0,3,2,-2,-1,-1,0
1511885739624241,0,0,-1,2,3,-4,-3,-1
1511885739639251,3,-1,-1,0,0,-4,0,-1
1511885739639251,2,0,-3,0,8,8,3,0
1511885739645386,1,1,15,-4,8,2,1,2
1511885739645386,-4,-4,-3,6,-12,-15,1,-2
1511885739662432,-2,-4,-33,-3,1,1,-1,0
1511885739662432,-2,-3,0,-13,-4,-7,1,1
1511885739667444,-1,0,5,7,-2,-1,0,0
1511885739667444,0,-1,2,-3,2,7,-4,-3
1511885739683614,-1,1,14,5,-2,7,-3,-1
1511885739683614,0,-2,-6,2,2,1,-5,-1
1511885739684613,-1,-1,-9,-7,0,6,0,-2
1511885739684613,0,1,4,4,-3,0,-2,1
1511885739699654,-1,-1,-2,0,5,-2,-2,-1
1511885739699654,0,0,3,-7,-9,-4,1,0
1511885739705669,-1,0,-2,-4,-5,-6,-1,-2
1511885739705669,-1,-1,-4,3,12,6,4,0
1511885739721834,-1,-1,4,-2,-7,-11,-3,-1
1511885739721834,-2,1,4,7,13,15,3,2
1511885739727853,-1,-1,-14,2,7,-1,0,-2
1511885739727853,0,0,-3,-1,0,1,-1,-1
1511885739744009,-1,-1,3,0,-6,-1,1,1
1511885739744009,-1,3,19,0,3,0,-1,-2
1511885739744009,1,0,16,5,8,26,2,0
1511885739744009,-3,-11,-44,-1,-1,-10,-1,-1
1511885739759029,-1,2,12,2,8,5,1,0
1511885739759029,0,-3,0,1,-10,-11,-3,0
1511885739765950,-1,3,6,-4,0,-3,0,1
1511885739765950,1,2,13,0,-1,2,1,-1
1511885739782033,-3,-2,-1,-1,-1,-3,-2,-1
1511885739782033,-1,-2,-10,0,2,-1,-2,-2
1511885739788049,-4,-3,-2,-1,-3,-8,-3,-3
1511885739788049,1,0,3,-2,6,13,-1,2
1511885739805094,-1,-2,-5,-3,-11,-15,-3,-2
1511885739805094,0,-1,-1,2,-4,-7,-1,-2
1511885739806097,0,-2,-8,-7,-9,-13,0,0
1511885739806097,-1,-1,5,-3,-3,-4,-4,-3
1511885739819132,0,1,0,1,10,6,2,-1
1511885739819132,-1,-1,-8,3,0,-5,-3,-2
1511885739825147,-3,-2,-5,-9,1,-7,2,1
1511885739825147,0,2,8,14,0,-5,1,0
1511885739842195,-1,0,2,-8,4,10,1,1
1511885739842195,-1,-3,-5,0,-8,-4,2,-1
1511885739848213,-3,0,-6,0,3,-2,-3,-1
1511885739848213,-1,1,4,-5,-10,-15,-3,-1
1511885739863252,1,-1,-1,3,0,6,1,-1
1511885739863252,-1,1,-3,4,10,9,1,2
1511885739864251,0,-2,-3,-3,-2,-3,-5,-2
1511885739864251,-2,0,3,-6,-6,-3,-1,0
1511885739879292,0,0,1,3,9,-2,1,-2
1511885739879292,-3,-4,-6,-7,2,-7,2,-1
1511885739885311,1,-2,1,4,-6,1,1,-3
1511885739885311,0,0,-1,0,6,9,2,1
1511885739902518,1,-2,-2,-2,1,9,0,1
1511885739902518,-1,0,0,0,13,-8,-4,-2
1511885739908461,1,-1,-6,0,-21,-9,-1,-1
1511885739908461,-1,1,1,-3,-2,2,-2,-2
1511885739923412,0,1,0,2,15,17,2,1
1511885739923412,-1,-1,-2,-2,-10,-7,-2,0
1511885739924412,-1,-3,1,-2,3,2,-1,1
1511885739924412,-1,0,-1,-2,-3,-1,-2,-3
1511885739946582,-1,-1,0,-1,0,-6,-2,-1
1511885739946582,1,1,0,0,4,2,0,-2
1511885739947473,2,0,0,1,0,-2,-1,-1
1511885739947473,0,0,0,-4,-6,-7,0,-1
1511885739961513,0,-2,0,0,-5,-8,-1,0
1511885739961513,1,0,-2,2,-3,-5,-1,0
1511885739967529,-1,-3,-2,-1,1,-6,-3,1
1511885739967529,-1,0,1,6,-1,10,-1,-1
1511885739983698,-1,0,-2,-7,-11,-6,0,-2
1511885739983698,-1,1,1,2,3,14,-1,0
1511885739984701,-2,-1,-1,2,5,5,1,-1
1511885739984701,-1,-2,0,-2,3,-4,-1,0
1511885740005757,-1,0,0,1,0,-8,-1,0
1511885740005757,-1,0,-1,-1,-11,-3,-2,-1
1511885740006760,-2,1,-2,-4,-4,-19,-5,-2
1511885740006760,0,-2,-2,-1,1,5,4,-1
1511885740021799,0,0,-2,-1,-11,-12,-2,-1
1511885740021799,-2,-1,0,-3,-12,-10,-5,0
1511885740027983,-1,-1,0,-1,-9,-17,0,-3
1511885740027983,0,1,1,-11,-14,-3,0,-1
1511885740044029,-1,-8,-16,8,8,-5,-3,-1
1511885740044029,1,0,5,1,-21,13,1,0
1511885740044029,-1,-4,-16,1,52,9,0,-1
1511885740044029,0,1,2,-1,1,-7,-3,0
1511885740058955,-2,1,3,-4,2,-3,-2,0
1511885740058955,0,0,2,-2,6,11,3,0
1511885740066031,0,2,3,0,-19,12,1,0
1511885740066031,-1,-1,-3,-4,-4,-7,-2,0
1511885740082039,0,0,4,-2,0,-1,-3,0
1511885740082039,1,-3,-3,1,-2,-19,-7,0
1511885740088054,-1,0,5,1,2,21,5,-1
1511885740088054,-2,-2,-4,1,-1,0,0,-2
1511885740103094,-1,2,3,0,-9,-1,1,-1
1511885740103094,-2,0,-1,-1,2,-10,1,-1
1511885740104108,-2,-1,0,-2,-6,8,2,0
1511885740104108,-3,1,-3,-1,3,0,0,1
1511885740126156,0,0,-1,-4,-16,-26,-5,-4
1511885740126156,-1,-2,-3,0,4,-9,-2,-2
1511885740127158,0,3,2,0,-3,4,0,-1
1511885740127158,-3,-2,1,1,-2,-6,-5,0
1511885740142197,-1,0,1,-4,-5,6,0,0
1511885740142197,-2,-1,2,1,8,9,0,0
1511885740148214,-2,-2,-6,-1,-9,-17,-2,0
1511885740148214,-1,2,1,-2,-3,-5,-2,0
1511885740163280,-2,-2,-1,0,7,6,0,-1
1511885740163280,1,3,16,4,-2,-7,0,-1
1511885740164257,-1,-2,-10,0,-4,-2,0,-1
1511885740164257,0,-4,1,0,4,0,1,0
1511885740186315,-3,-2,0,-5,-6,-3,3,0
1511885740186315,-2,1,-2,-3,-10,-12,-1,0
1511885740187436,1,3,8,1,23,33,1,-1
1511885740187436,-1,-1,-3,0,2,-4,-7,0
1511885740202362,-1,-2,1,2,1,-6,11,2
1511885740202362,-1,-2,-5,-3,1,-2,5,-2
1511885740208377,-1,-1,1,-4,-5,-23,-2,-1
1511885740208377,-2,-1,-3,-2,-3,-8,-3,-4
1511885740223578,-1,0,1,0,1,8,-5,-1
1511885740223578,-2,-1,-5,-3,0,-5,0,0
1511885740224417,-1,-2,7,-3,-3,-4,-1,1
1511885740224417,0,-2,-6,2,0,0,2,0
1511885740246485,1,2,-1,-5,-6,0,-3,-1
1511885740246485,0,-3,0,11,10,-3,2,1
1511885740246485,-1,0,3,0,-14,-6,-1,-2
1511885740246485,1,4,21,0,17,22,0,0
1511885740261558,1,-2,-25,-6,-3,22,1,-2
1511885740261558,-3,-7,-9,16,-22,2,-2,-2
1511885740267573,0,3,0,-7,-24,-7,-3,-2
1511885740267573,-2,-4,-3,0,-3,-6,0,-1
1511885740282614,1,3,10,-2,11,-3,-2,0
1511885740282614,-2,-1,-1,-11,-2,3,1,0
1511885740290595,-1,-2,-4,4,-2,-2,0,-2
1511885740290595,0,-1,-1,-3,2,-1,-4,-2
1511885740305754,0,-2,-2,-1,-13,-19,-12,-2
1511885740305754,1,1,-4,-3,7,22,12,1
1511885740306756,0,-1,3,4,9,-7,1,0
1511885740306756,0,-1,-6,-4,1,2,6,2
1511885740321796,0,-4,4,5,7,-2,-1,2
1511885740321796,-1,0,-1,-6,-2,-13,-6,0
1511885740327815,-2,-2,2,-1,15,15,0,1
1511885740327815,-2,-1,-2,-1,1,6,3,-3
1511885740343072,-1,-1,-1,5,6,11,0,-1
1511885740343072,1,2,0,-3,7,-2,-3,-1
1511885740350000,1,-1,-3,-1,-6,1,-1,1
1511885740350000,0,-1,-1,2,-5,-8,-1,0
1511885740366068,-1,1,-4,-5,4,5,1,0
1511885740366068,0,-4,-6,0,11,-1,-3,0
1511885740367045,-2,-5,-6,-2,1,-1,-6,-2
1511885740367045,-1,1,-1,1,-9,-4,0,0
1511885740382085,-2,0,4,1,4,-3,2,-2
1511885740382085,-1,1,2,-5,-8,0,-2,0
1511885740388105,2,-1,1,0,-1,-7,-2,0
1511885740388105,-2,-2,0,-4,5,-1,0,0
1511885740403144,-2,-4,-13,-8,-6,3,0,-1
1511885740403144,-2,-4,3,11,-15,-17,-4,-4
1511885740410166,0,-1,0,2,11,5,-1,-1
1511885740410166,1,1,3,0,2,5,2,1
1511885740426318,1,2,8,0,0,-8,-1,-1
1511885740426318,-2,1,-2,-5,2,9,1,1
1511885740427206,1,1,2,1,1,-14,2,1
1511885740427206,0,-1,-3,-1,-11,-17,-3,-2
1511885740442246,0,-3,0,4,1,1,-2,0
1511885740442246,-1,-1,-2,-5,-7,-12,-1,0
1511885740448265,-2,0,-1,0,5,17,0,0
1511885740448265,-1,-2,-3,-1,8,-1,-1,-2
1511885740463307,0,1,0,1,-24,11,10,3
1511885740463307,3,0,5,-1,12,-2,-15,-2
1511885740470359,0,2,4,1,9,8,2,-1
1511885740470359,-1,-2,-5,-2,2,-10,-1,-1
1511885740486368,-1,1,4,3,7,21,-13,0
1511885740486368,1,1,-2,-3,3,-1,9,1
1511885740487367,-3,-2,-2,-1,-15,5,-4,-6
1511885740487367,0,0,1,3,11,20,-21,0
1511885740502406,0,0,0,0,1,-14,55,1
1511885740502406,1,-2,-3,-2,0,1,-2,1
1511885740508423,-2,-1,-1,-3,-3,-6,-1,0
1511885740508423,1,-1,2,1,0,6,11,0
1511885740523528,-2,-2,-1,-4,-15,-18,-5,-2
1511885740523528,-1,-1,-1,-5,-20,-7,-14,-3
1511885740530552,0,-1,-1,2,11,7,8,-1
1511885740530552,-1,-2,-4,-2,-13,-13,-3,-3
1511885740546595,0,1,0,0,4,-9,-20,0
1511885740546595,4,1,0,-3,-7,-10,6,-3
1511885740546595,-16,-3,-2,-1,-16,-29,-16,-1
1511885740546595,3,0,0,-1,-3,-4,8,1
1511885740561635,-2,-1,-1,-4,-11,-29,-21,-6
1511885740561635,-3,0,0,0,7,12,16,-1
1511885740567650,7,1,0,-1,1,4,2,2
1511885740567650,-8,-1,-3,-2,0,-1,-2,-1
1511885740582918,-12,-2,-1,-3,-13,-2,2,-2
1511885740582918,4,-1,-1,3,29,-1,-6,0
1511885740590944,2,0,-3,-3,-13,-14,19,1
1511885740590944,4,0,-2,-5,-57,-67,-37,-2
1511885740605980,8,-1,0,0,6,2,-13,-2
1511885740605980,-18,0,1,1,1,4,2,2
1511885740606982,1,-2,-1,-2,-2,-8,8,0
1511885740606982,-3,1,3,0,17,17,-5,0
1511885740622021,2,0,-1,0,-7,-2,19,-1
1511885740622021,2,-2,-1,-3,4,-1,-9,-1
1511885740628273,0,1,-1,0,2,1,-1,-1
1511885740628273,0,1,1,0,3,10,10,1
1511885740643409,1,-1,-1,0,4,-1,-12,-1
1511885740643409,7,1,-1,-2,5,8,11,1
1511885740650334,-12,-1,-3,-6,-51,-49,-19,-5
1511885740650334,3,-4,-2,-2,6,2,3,-3
1511885740666377,-8,-1,0,0,7,12,2,0
1511885740666377,0,2,1,-1,-13,-17,-10,-3
1511885740667377,4,-1,-1,-1,2,12,-1,2
1511885740667377,-3,0,-1,2,4,15,24,1
1511885740682420,5,-3,-3,-2,-19,-8,-21,1
1511885740682420,-2,-1,-1,-1,5,-10,3,-1
1511885740687430,3,1,1,1,16,11,-3,1
1511885740687430,-4,0,-2,0,11,2,9,-1
1511885740703500,1,1,0,-1,4,6,5,1
1511885740703500,-5,-3,-2,-1,-6,5,4,-1
1511885740710495,3,0,3,6,27,25,-16,-2
1511885740710495,2,0,-2,1,-4,21,19,1
1511885740726537,-1,1,2,3,24,8,-9,-1
1511885740726537,1,1,3,2,-14,-5,-6,0
1511885740726537,-1,-2,-6,-6,7,-10,7,-2
1511885740726537,0,-2,-7,-3,-6,-2,-8,-1
1511885740741579,-4,0,-1,-3,18,-13,-3,-1
1511885740741579,4,1,1,-1,8,0,5,2
1511885740748595,1,3,9,-1,4,16,-2,-2
1511885740748595,3,1,3,-12,5,27,-2,1
1511885740785691,-3,1,9,20,7,0,2,1
1511885740785691,14,-10,-37,-12,-18,-25,-8,-8
1511885740794716,-14,0,5,-4,-17,-32,0,4
1511885740794716,-1,1,2,1,-9,-21,-10,-2
1511885740809755,-2,-1,6,-4,5,4,3,0
1511885740809755,-2,1,6,2,-3,12,4,0
1511885740810757,5,-2,-3,1,-10,3,-3,-1
1511885740810757,-4,-1,-1,-3,1,-6,15,-4
1511885740816773,-1,-1,0,-5,-21,2,-21,4
1511885740816773,-4,-1,5,4,13,21,1,-2
1511885740817776,0,-3,-6,-4,-13,16,5,-2
1511885740817776,0,0,1,3,14,20,4,2
1511885740822790,3,-2,-6,0,1,-12,0,-2
1511885740822790,-2,2,5,-1,-10,10,-4,-2
1511885740830814,-1,2,13,-2,-12,-4,0,-2
1511885740830814,1,-2,-15,2,-6,-6,-8,-1
1511885740845851,0,0,8,-1,20,9,11,0
1511885740845851,-5,0,4,5,-17,1,-11,-1
1511885740846854,3,1,-13,4,29,13,6,-1
1511885740846854,-1,3,43,10,-5,-12,-12,-1
1511885740861893,-3,-5,-43,-12,-2,0,4,-3
1511885740861893,-1,-2,14,-2,17,-5,9,5
1511885740867913,-1,3,16,3,9,-5,-8,-2
1511885740867913,-2,-2,-18,-3,-13,11,0,2
1511885740882953,-1,5,22,2,-10,-2,2,-2
1511885740882953,-3,-2,4,-1,-10,-17,-7,-3
1511885740890975,-5,-6,-15,-2,13,9,3,0
1511885740890975,1,1,3,0,11,0,-3,1
1511885740906011,0,-4,0,4,19,8,1,-1
1511885740906011,-2,0,-11,-2,-6,-19,-5,2
1511885740907014,0,3,8,-1,-10,-4,-4,0
1511885740907014,1,-4,-29,-3,-2,-17,2,3
1511885740922055,5,18,12,0,-1,0,3,2
1511885740922055,-8,-24,5,4,23,24,2,-1
1511885740928071,-7,-13,-35,-10,-15,-17,-5,-7
1511885740928071,-1,1,3,-5,-2,-16,-5,-3
1511885740943231,1,0,2,-4,-30,-6,2,0
1511885740943231,0,12,6,2,-10,20,1,0
1511885740950132,5,0,2,-3,10,4,7,4
1511885740950132,0,-4,-3,4,-4,5,-3,-2
1511885740966170,-2,-1,-2,-2,-2,10,3,0
1511885740966170,2,5,6,-1,-5,1,1,1
1511885740967173,1,-3,9,2,-1,8,-3,-1
1511885740967173,-1,0,-15,1,4,-9,-1,-5
1511885740982213,0,-5,-5,-8,-1,-1,2,0
1511885740982213,-1,-3,-6,2,14,13,2,0
1511885740988232,0,3,4,-2,-7,-3,-2,0
1511885740988232,-1,2,19,4,16,19,-3,1
1511885741003367,-1,-6,-18,2,8,-3,-3,-2
1511885741003367,0,0,-1,-2,-2,-7,1,-2
1511885741010417,0,4,1,-1,-18,-9,2,0
1511885741010417,-1,-1,6,-2,-7,11,2,-1
1511885741026464,-1,-2,0,0,-2,-9,-2,2
1511885741026464,1,0,-7,-3,15,-3,-4,0
1511885741027425,0,0,0,5,3,5,2,2
1511885741027425,0,0,5,-3,4,-6,0,0
1511885741042466,-1,-2,-2,1,6,5,7,0
1511885741042466,-4,3,-3,-4,-21,-14,-13,-4
1511885741048485,2,1,2,2,3,5,-2,0
1511885741048485,1,1,-6,-2,-20,-14,-2,0
1511885741062771,18,0,4,0,-10,-3,0,-2
1511885741062771,-39,-3,-4,-7,-7,-4,3,0
1511885741070671,-3,-2,-3,-2,0,-3,-3,-1
1511885741070671,-3,-2,-3,-3,-6,-11,0,0
1511885741085855,0,1,6,5,0,-1,-5,-1
1511885741085855,7,0,-3,-1,-4,-2,0,-1
1511885741086830,0,-1,-6,0,-5,-13,-2,0
1511885741086830,-6,-1,2,0,7,-3,4,0
1511885741101869,-6,-2,0,-1,-12,-4,-17,-1
1511885741101869,6,-1,-5,-5,0,2,2,-2
1511885741107889,-3,1,3,1,-11,-3,1,-2
1511885741107889,4,-2,-4,-2,-8,-15,-4,-1
1511885741123081,-5,-1,-1,0,5,4,0,-2
1511885741123081,3,0,-2,1,3,2,1,-1
1511885741130951,5,-1,-1,-2,-4,-8,-2,1
1511885741130951,-3,-3,0,0,10,-4,1,0
1511885741145990,-5,-3,-1,0,0,14,3,-2
1511885741145990,6,3,0,0,-4,-2,4,3
1511885741146989,5,0,-1,0,4,8,1,-1
1511885741146989,-3,1,-1,0,8,-3,-2,-1
1511885741162031,-3,0,-1,-3,-7,-6,1,-1
1511885741162031,6,0,0,-1,-2,-2,2,0
1511885741168049,-1,-2,-3,-1,10,6,1,-2
1511885741168049,3,1,-4,0,-9,-1,-4,-1
1511885741183089,-4,-1,4,2,5,1,3,0
1511885741183089,-2,0,-5,2,0,9,0,-2
1511885741191108,0,0,0,-4,10,2,0,0
1511885741191108,-2,0,1,0,-2,5,-2,-2
1511885741205180,-1,-2,-1,2,7,2,5,-2
1511885741205180,3,1,1,1,23,14,2,0
1511885741213214,-3,0,-2,0,-1,4,-5,-2
1511885741213214,2,-2,-1,0,3,6,1,0
1511885741228325,-2,-2,-1,-2,3,2,1,1
1511885741228325,1,1,3,-4,-10,-8,-3,0
1511885741229208,-3,-3,-14,-1,-5,-7,1,-2
1511885741229208,0,0,1,-2,-3,4,1,0
1511885741243352,0,-1,-1,1,1,0,-3,-2
1511885741243352,-1,0,-4,-6,-3,-6,-1,-1
1511885741250387,-2,-3,0,2,-8,-5,-2,-1
1511885741250387,-2,-3,-4,-8,-18,-31,-8,-3
1511885741265307,-2,-1,1,3,-6,-3,0,-1
1511885741265307,3,-2,1,-1,-1,-3,2,1
1511885741273507,-1,1,8,-5,-6,-10,0,-3
1511885741273507,0,-2,-5,8,37,29,6,0
1511885741282353,1,1,12,-1,-1,5,1,-1
1511885741282353,0,-1,-14,2,-14,-7,1,1
1511885741288369,1,1,9,3,-1,1,-2,2
1511885741288369,-1,-2,-1,-2,5,-2,0,1
1511885741302636,-2,0,-3,-1,5,-7,1,1
1511885741302636,2,-1,6,0,-3,0,-1,-2
1511885741310632,1,-1,-4,0,12,9,1,0
1511885741310632,-3,0,0,2,-8,-13,-2,-4
1511885741325664,0,0,-4,-5,-5,-1,-2,0
1511885741325664,-2,-1,-1,0,-3,0,-1,-2
1511885741332683,0,0,-4,0,1,-5,2,-1
1511885741332683,-2,0,2,-3,-4,-1,-1,-1
1511885741341691,0,-2,-7,0,6,7,3,-1
1511885741341691,-3,-3,-2,-1,2,-10,0,-2
1511885741347679,-2,-2,-2,-3,-4,3,1,-1
1511885741347679,1,0,2,2,-4,2,-4,0
1511885741362722,0,0,-3,-2,-9,-4,-2,-2
1511885741362722,0,0,-1,-1,7,-1,1,-1
1511885741370943,-1,1,4,-4,-5,1,1,1
1511885741370943,-1,-3,-13,-3,-4,1,0,-1
1511885741385134,0,-1,-1,0,-4,-15,-1,1
1511885741385134,-1,-3,-2,-1,-13,-12,-4,-3
1511885741393265,-2,-2,-6,-5,-3,-6,-1,0
1511885741393265,2,2,9,2,6,5,-2,0
1511885741408206,-2,-2,-12,-7,-16,-3,-1,-3
1511885741408206,-1,1,-3,-1,-5,-3,2,0
1511885741409205,-1,0,-3,0,18,16,1,1
1511885741409205,0,0,1,-5,-5,2,2,0
1511885741423419,-2,-2,-1,0,4,-2,0,0
1511885741423419,-3,-1,4,0,6,2,0,-2
1511885741430304,-1,-2,-2,-1,1,3,-3,0
1511885741430304,0,0,-1,0,-5,-1,-1,0
1511885741445306,0,0,-2,-2,-2,-12,-3,-1
1511885741445306,0,2,-1,0,1,4,0,-1
1511885741453324,-1,-1,1,-1,-9,-10,-3,-1
1511885741453324,-2,0,-2,-1,-1,-1,1,-1
1511885741468491,1,-1,0,-1,3,-1,2,-1
1511885741468491,0,1,4,-3,-5,-8,-5,-2
1511885741469367,-1,-2,-11,4,-11,-14,-1,-2
1511885741469367,-2,-1,6,-2,-5,-2,-3,0
1511885741483404,-2,1,3,5,19,13,3,1
1511885741483404,0,-2,0,1,7,1,-3,0
1511885741490572,-2,1,6,1,-3,-4,-2,-2
1511885741490572,0,-4,-8,-5,1,-3,0,0
1511885741505461,1,0,-1,-1,1,6,0,0
1511885741505461,-1,0,3,1,-2,1,-1,-2
1511885741512484,1,0,-1,-16,-4,-1,0,0
1511885741512484,-5,-2,-2,22,1,-12,-1,-1
1511885741528548,-1,-3,-1,-3,-7,-12,-3,-1
1511885741528548,0,-2,-2,-3,-4,1,-2,0
1511885741529526,1,-1,1,-2,-7,3,1,-2
1511885741529526,1,4,2,-8,9,6,6,1
1511885741542797,-1,-1,-1,-2,-5,2,-2,0
1511885741542797,-1,-1,-3,1,6,3,0,2
1511885741550704,-2,0,-1,-1,-12,-23,-3,-1
1511885741550704,-1,-2,0,-2,-2,8,0,0
1511885741565741,1,1,-6,5,-1,-7,1,-2
1511885741565741,0,0,1,-5,-3,-2,0,0
1511885741572759,-1,-1,0,6,10,5,0,0
1511885741572759,-1,-2,-3,1,2,2,0,-2
1511885741588802,-1,-2,0,-2,-4,-3,-3,-3
1511885741588802,0,-1,2,2,-3,-2,1,0
1511885741589965,0,-1,-4,2,17,10,1,1
1511885741589965,-4,-2,-3,-5,-15,-1,-1,-5
1511885741602839,0,1,2,-2,-7,2,0,-1
1511885741602839,0,-2,-5,-1,0,1,1,-1
1511885741610864,0,1,2,4,23,20,4,1
1511885741610864,-1,-1,2,-2,1,-3,-7,-1
1511885741625022,-1,-1,4,-2,5,0,0,0
1511885741625022,-1,-3,-12,0,-9,-4,-4,-2
1511885741633043,1,-3,-5,-1,-8,-7,-1,-2
1511885741633043,2,3,4,-3,3,-3,2,1
1511885741649083,-1,0,1,2,-7,-3,-2,-3
1511885741649083,2,0,1,2,13,6,0,1
1511885741649083,-1,-1,-3,-2,-4,2,-2,0
1511885741649083,0,-1,0,0,4,-4,0,-1
1511885741664135,-1,-3,-2,-3,2,-2,1,0
1511885741664135,1,1,-3,-5,-2,-5,0,1
1511885741670306,-1,0,2,-1,-7,-4,-2,-3
1511885741670306,-1,-1,1,3,3,0,-1,1
1511885741685182,-2,1,4,3,13,14,1,0
1511885741685182,-1,-2,3,2,2,-6,-3,-2
1511885741693328,-1,-1,-1,-6,5,-4,-1,-1
1511885741693328,2,1,-1,5,0,13,3,1
1511885741708463,-1,0,-7,-6,-9,-6,-1,0
1511885741708463,0,0,12,8,2,0,1,-1
1511885741709375,-2,0,-10,1,-12,-12,-4,0
1511885741709375,1,0,1,-9,-1,-5,-1,-1
1511885741723409,0,-2,-1,0,-5,-4,2,0
1511885741723409,-2,-1,1,-3,-4,3,-1,-2
1511885741730626,1,1,4,2,-7,-6,-1,-3
1511885741730626,1,-1,-1,-2,-2,3,1,0
1511885741745467,-1,-1,-2,2,-3,-2,-4,1
1511885741745467,-1,2,-1,0,0,-2,-3,-2
1511885741752608,-2,-1,2,0,1,3,0,2
1511885741752608,1,-2,-9,1,1,-1,1,-3
1511885741768777,-2,-1,-1,0,3,-15,-2,-3
1511885741768777,-3,-1,2,-5,-12,-3,-1,1
1511885741769666,-1,-4,-1,1,-3,7,3,-1
1511885741769666,0,0,2,-2,2,3,-1,1
1511885741782704,-1,-1,8,-2,4,1,-3,0
1511885741782704,1,-4,-16,-1,1,-8,-1,0
1511885741790882,1,-1,2,-1,-5,-3,0,0
1511885741790882,0,-1,0,1,1,-5,-2,-1
1511885741805041,0,0,0,2,-3,-4,-2,0
1511885741805041,-1,-1,1,-1,-2,1,1,1
1511885741812946,0,-2,-2,-1,1,5,0,-1
1511885741812946,-3,-1,-1,0,-3,-8,-3,-1
1511885741828990,-1,1,-5,0,17,13,4,0
1511885741828990,0,2,3,-4,-13,-3,-3,-1
1511885741828990,-2,0,2,4,-1,-3,-1,-2
1511885741828990,0,-1,-11,-9,-8,0,1,0
1511885741843124,0,-1,-1,0,-7,-3,-1,-1
1511885741843124,-1,0,3,-1,6,0,1,-1
1511885741850042,0,-1,1,-3,3,5,0,-1
1511885741850042,-1,0,4,1,-6,-12,-2,-1
1511885741865085,0,0,-1,-2,-4,2,0,0
1511885741865085,-2,0,2,-3,2,3,-3,-1
1511885741873106,0,-2,-6,1,2,-3,-2,0
1511885741873106,-1,0,3,-10,-12,-12,-3,-3
1511885741888146,-1,-2,-1,14,0,0,0,1
1511885741888146,-1,0,-2,2,1,1,2,0
1511885741889145,-1,1,1,-2,-2,-6,0,-2
1511885741889145,0,0,-2,0,9,4,1,-1
1511885741903344,1,-1,1,-8,-16,-12,-3,-1
1511885741903344,1,0,-3,2,3,2,0,0
1511885741910452,0,-2,-3,4,1,-1,0,-1
1511885741910452,-1,-1,-1,-2,-3,-4,1,0
1511885741925373,0,-2,0,-3,-3,0,-2,-2
1511885741925373,-2,-2,-3,0,3,-1,-1,0
1511885741933388,0,1,3,0,-5,-3,0,0
1511885741933388,-1,-1,2,-1,-2,2,2,0
1511885741948426,-1,0,0,2,1,-2,0,0
1511885741948426,0,0,0,1,-1,-7,1,0
1511885741949429,0,-2,-4,-3,2,10,-1,-1
1511885741949429,-1,0,-1,2,1,3,-1,2
1511885741963526,-2,-1,-8,-2,-3,-2,1,-2
1511885741963526,0,-2,4,-1,7,1,0,1
1511885741970598,-1,0,-9,-2,1,-2,-2,0
1511885741970598,2,0,-1,3,0,5,1,-1
1511885741985529,0,2,2,-3,2,-3,1,0
1511885741985529,-1,-1,-2,-6,1,7,0,-2
1511885741992547,0,-1,6,8,2,0,0,-1
1511885741992547,-1,1,-1,2,1,0,-4,-1
1511885742008590,0,-1,-3,-4,2,3,1,0
1511885742008590,0,2,2,3,-2,0,-2,-1
1511885742009594,-2,-2,1,-6,8,4,-1,0
1511885742009594,-1,-1,-3,2,0,0,-1,-1
1511885742022624,-2,-2,-1,-1,-3,-3,1,0
1511885742022624,-1,-3,-7,-5,-8,1,-1,-1
1511885742030648,0,1,10,6,-3,-5,1,-2
1511885742030648,-1,-1,-15,2,0,-4,0,-2
1511885742045810,-2,0,4,-4,-2,-2,-5,-3
1511885742045810,0,1,-1,0,7,0,1,-1
1511885742052740,-1,2,3,2,-4,5,2,1
1511885742052740,-2,0,5,-1,-3,-4,-3,-2
1511885742068789,0,-1,-2,0,0,-1,-1,0
1511885742068789,-2,-5,-9,-2,2,-7,-1,0
1511885742069751,-1,-2,2,0,-3,-6,-2,0
1511885742069751,0,-1,-7,-1,10,15,3,2
1511885742082828,-1,-2,-3,-6,-8,-6,-1,-1
1511885742082828,0,-1,6,6,3,1,-2,-1
1511885742090849,-1,1,-4,-2,0,-2,0,-1
1511885742090849,0,-1,5,-2,-1,-5,-1,0
1511885742105879,-1,-2,-1,2,2,-2,0,-1
1511885742105879,1,2,2,-1,-5,-4,-2,-1
1511885742112878,0,-1,-2,-4,-2,-3,-2,-2
1511885742112878,-1,1,-4,1,-1,-2,-2,0
1511885742127905,-1,-2,-5,2,3,3,-1,-1
1511885742127905,0,1,3,2,-6,-5,0,-2
1511885742135960,-3,-5,-6,-4,-3,-6,-1,-1
1511885742135960,1,-1,0,2,10,7,2,-1
1511885742142986,-1,0,0,-6,-7,-3,1,-2
1511885742142986,-1,-1,-2,-3,-4,-1,2,0
1511885742150970,1,1,3,2,13,10,1,0
1511885742150970,0,-2,3,0,4,3,-2,1
1511885742165006,-1,0,1,0,3,2,-3,0
1511885742165006,-2,-1,-6,-1,-7,-8,-2,-1
1511885742173027,3,0,1,-1,0,0,-1,0
1511885742173027,-3,-2,-6,-3,-10,-10,-2,-1
1511885742188255,0,-2,1,0,-2,0,1,0
1511885742188255,-1,0,6,-2,0,4,0,0
1511885742196086,0,-2,-7,2,-5,-5,-1,-2
1511885742196086,0,-4,3,-6,-9,-5,0,-1
1511885742203104,1,0,-4,-4,-1,-1,0,-1
1511885742203104,-1,-2,-1,11,0,-2,-1,0
1511885742210126,0,0,-3,-3,-3,0,0,-2
1511885742210126,1,0,1,-3,-6,-9,-1,1
1511885742225561,-2,-1,0,-3,4,-1,0,-1
1511885742225561,0,0,-3,-1,7,26,4,0
1511885742233410,-1,1,2,-1,-4,-9,-2,1
1511885742233410,-3,-1,-5,-2,-3,-2,2,-2
1511885742248450,0,-1,1,2,-8,-6,-2,-1
1511885742248450,0,0,4,-2,1,-3,-2,0
1511885742256717,-3,-3,-6,-2,3,-6,0,0
1511885742256717,-1,-1,3,-2,-9,-4,-1,-2
1511885742262643,0,2,3,4,0,5,2,1
1511885742262643,0,-2,-6,-4,-1,-1,0,-2
1511885742270751,0,-2,-1,-3,-2,-1,-1,0
1511885742270751,0,1,-1,-1,0,-2,-1,0
1511885742285764,-2,0,2,1,-1,-1,-2,-1
1511885742285764,-1,-2,-8,-6,-5,-8,-3,-3
1511885742292898,-2,0,-1,0,-3,2,-1,-1
1511885742292898,-1,1,4,0,-5,-3,-3,-1
1511885742308081,1,0,-4,-2,-3,4,-1,1
1511885742308081,-3,0,-4,-3,2,-4,-1,-1
1511885742316108,0,0,-1,3,5,8,2,0
1511885742316108,-2,-1,2,-3,1,-6,2,-2
1511885742331043,-1,0,10,5,-5,-2,-3,-2
1511885742331043,0,-1,-5,-2,0,-5,-1,0
1511885742332043,0,-2,-4,-3,12,1,0,0
1511885742332043,0,0,-1,-6,-1,8,-1,0
1511885742345078,-3,-1,2,9,3,-8,-2,-1
1511885742345078,-2,-2,-8,-3,-4,-7,0,0
1511885742353110,-1,-2,4,-3,-3,-2,1,-2
1511885742353110,0,-1,1,2,1,-1,0,-1
1511885742368257,0,0,-10,-7,-1,1,1,0
1511885742368257,-1,1,5,1,-1,-7,-2,-1
1511885742376392,-1,-1,-4,-2,-5,-4,-2,-1
1511885742376392,-2,-3,0,2,4,0,-1,-1
1511885742391443,3,-1,-1,-3,-4,3,0,0
1511885742391443,0,0,3,4,3,4,3,0
1511885742392334,-1,1,0,-2,-3,-4,-1,-2
1511885742392334,-1,-1,-6,-2,1,0,-1,0
1511885742405385,-1,-3,2,3,3,-4,-2,-1
1511885742405385,1,0,2,-2,-2,2,0,-2
1511885742413383,-1,0,-2,0,-6,-3,-4,1
1511885742413383,-1,-2,-1,1,-2,-3,1,0
1511885742428465,-3,0,3,-2,-1,1,0,-2
1511885742428465,0,-2,-13,0,-1,-3,1,0
1511885742436445,1,2,3,-3,-1,-1,-2,-1
1511885742436445,0,0,2,7,2,-4,0,0
1511885742451664,0,-1,-3,-3,0,-1,0,1
1511885742451664,-1,-2,6,2,16,13,0,-1
1511885742451664,-3,0,-6,-3,-4,-10,-4,-1
1511885742451664,-1,-3,-7,-4,-13,8,0,-1
1511885742465634,-1,-1,-2,1,4,-1,0,0
1511885742465634,0,-1,2,0,5,4,1,-1
1511885742472541,1,2,16,3,1,2,1,-1
1511885742472541,0,0,-12,-1,3,-2,0,-2
1511885742487667,-1,-3,-3,-3,-1,-1,-1,-2
1511885742487667,-3,-2,0,-7,-9,-7,-2,-2
1511885742496687,2,-3,2,4,1,2,0,0
1511885742496687,1,0,5,3,-2,-7,0,0
1511885742510897,-1,1,-2,-4,1,2,0,0
1511885742510897,0,0,-1,-2,-4,-4,0,-1
1511885742511728,-3,-1,-4,-1,-6,-6,-3,-2
1511885742511728,0,1,1,-3,5,-3,-1,0
1511885742525964,-1,-2,-2,5,2,-2,-1,-1
1511885742525964,-3,-4,-4,-5,0,-5,0,0
1511885742532787,1,1,-3,0,-5,-2,-1,0
1511885742532787,0,-1,-2,-3,2,-2,-1,-1
1511885742547827,0,1,-2,-3,-12,0,0,-1
1511885742547827,3,2,4,-1,-6,0,-1,1
1511885742555845,-2,0,-6,7,2,-2,0,-2
1511885742555845,-2,-1,-7,-13,1,-1,0,1
1511885742571072,1,2,8,4,6,6,1,0
1511885742571072,1,0,-3,1,2,3,0,0
1511885742571887,1,-1,3,-3,5,5,-1,1
1511885742571887,-1,0,8,8,1,-10,-1,0
1511885742585163,-1,0,-2,-3,-9,0,-2,0
1511885742585163,-1,0,1,4,-7,4,-2,1
1511885742593509,1,-2,-3,-4,4,-2,1,0
1511885742593509,1,0,-3,0,-1,5,0,0
1511885742607423,-1,-1,3,-4,7,-1,-1,-2
1511885742607423,-3,-3,-8,-2,-7,-7,-2,0
1511885742616452,0,2,5,1,-7,-6,0,0
1511885742616452,9,23,16,6,0,0,0,0
1511885742631487,-16,-36,-19,-10,-2,-2,-1,-4
1511885742631487,-8,-8,-12,0,3,-4,-1,-5
1511885742631487,1,-1,1,-3,-3,-5,-3,-2
1511885742631487,0,-1,-1,-1,1,0,-2,0
1511885742645746,8,20,5,3,6,0,0,4
1511885742645746,1,-4,15,0,1,-1,-1,0
1511885742652780,-4,-3,4,5,-58,-9,-1,-1
1511885742652780,1,-1,-18,-7,35,3,-1,0
1511885742667808,-1,5,4,-1,10,1,0,1
1511885742667808,-2,0,-9,-5,-1,-3,-1,0
1511885742676020,0,3,8,-1,-12,-5,0,-2
1511885742676020,-2,-5,9,5,3,1,-3,-1
1511885742690869,-2,-5,-12,-15,-13,-5,1,-2
1511885742690869,1,5,13,19,3,-2,-2,-2
1511885742691869,-2,-2,-11,-8,23,3,1,0
1511885742691869,-5,-6,0,3,-23,-3,0,-2
1511885742705090,5,2,4,5,8,2,2,1
1511885742705090,4,4,-1,-9,-11,-3,-1,3
1511885742712928,-1,1,-3,-7,12,2,-1,-2
1511885742712928,-7,-8,2,7,-9,-7,-2,-3
1511885742728001,-2,2,-4,-1,-12,0,-2,-1
1511885742728001,4,6,0,-6,4,0,-1,1
1511885742735114,2,-1,-5,4,5,-4,2,2
1511885742735114,-7,-4,2,-9,-4,4,-1,-4
1511885742751065,0,0,12,1,6,-3,-2,-1
1511885742751065,-5,-15,-41,-12,-27,-20,-3,-4
1511885742752064,1,2,-9,4,42,16,-2,0
1511885742752064,2,4,36,13,29,6,0,-2
1511885742765100,1,1,-23,-3,-10,-2,0,1
1511885742765100,1,4,1,-2,-13,-7,1,1
1511885742773124,8,30,15,2,4,1,-1,2
1511885742773124,-7,-47,-11,-5,-33,-5,-1,-1
1511885742788164,-11,-2,10,6,66,1,-2,-7
1511885742788164,0,1,-7,-6,-25,-8,-3,-3
1511885742795182,2,3,-3,-1,-10,14,1,0
1511885742795182,10,23,1,2,-8,0,1,6
1511885742811407,-6,-14,-5,-9,-7,-8,-4,0
1511885742811407,-6,-9,-3,5,9,3,-3,-3
1511885742812225,-3,-6,-4,2,-23,-13,3,-2
1511885742812225,4,4,-7,-4,-16,0,-3,1
1511885742825262,8,10,-1,9,0,-4,-1,3
1511885742825262,3,22,22,2,34,5,1,0
1511885742833283,-8,-37,-8,-9,2,-10,-1,0
1511885742833283,-5,-12,-20,-2,-12,2,0,-2
1511885742848325,-1,0,-5,-3,-16,1,3,-1
1511885742848325,2,7,24,2,-9,-4,-2,0
1511885742855338,6,12,1,-1,9,-3,-2,1
1511885742855338,-10,-9,-10,-4,7,-12,0,-4
1511885742871381,5,4,12,6,-23,7,-1,0
1511885742871381,2,0,11,-4,27,1,0,1
1511885742871381,-5,-7,-31,1,-23,-4,-3,-1
1511885742871381,3,8,0,-4,1,-7,0,1
1511885742885461,-2,-1,6,2,-5,-4,-1,1
1511885742885461,-1,-6,8,3,-11,6,2,0
1511885742893475,4,10,8,-8,-14,-8,-1,2
1511885742893475,0,-3,-7,3,57,0,-1,-2
1511885742907480,-4,-3,-6,-4,-31,-3,0,-3
1511885742907480,1,-4,-10,-3,-2,-2,2,1
1511885742915502,-7,-3,5,-1,7,4,-1,-3
1511885742915502,4,12,1,-1,-18,-2,2,-1
1511885742931612,7,28,10,1,13,3,1,1
1511885742931612,-2,-30,-6,2,8,1,-2,-1
1511885742931612,-19,-35,-11,-6,-11,-2,-3,-6
1511885742931612,0,9,5,-4,-6,-6,-4,-3
1511885742945621,2,-3,-26,-2,4,-5,-2,0
1511885742945621,3,19,18,0,-14,-5,0,2
1511885742952600,4,10,11,6,12,0,-1,1
1511885742952600,-7,-14,-13,2,5,-2,0,-1
1511885742967638,2,-3,-7,0,0,3,1,1
1511885742967638,-2,-1,-10,-7,8,4,0,1
1511885742975659,3,-1,17,11,7,0,-7,-1
1511885742975659,0,5,1,-6,-10,8,4,0
1511885742990884,-1,-4,-8,-4,-15,2,9,-1
1511885742990884,-4,-5,-4,8,53,16,0,-2
1511885742991703,0,0,0,-3,3,-10,-2,0
1511885742991703,3,8,8,0,-9,-1,-4,0
1511885743005740,-1,-4,0,-2,-3,-4,-5,-2
1511885743005740,-1,-5,-8,-4,-21,-4,-2,-1
1511885743012886,1,6,-4,-2,-1,-3,2,-1
1511885743012886,-2,0,-7,-2,6,8,1,-2
1511885743028016,-1,-7,4,1,0,0,2,1
1511885743028016,-5,-1,-7,1,-5,-6,-1,-3
1511885743035127,2,1,3,1,1,0,2,-1
1511885743035127,0,0,0,-2,-12,2,-2,0
1511885743067122,0,-2,3,2,7,-7,-5,-1
1511885743067122,1,5,3,0,-7,4,-1,1
1511885743068122,-1,-1,-9,-5,-1,6,2,0
1511885743068122,0,-2,-2,2,-8,-10,-1,-1
1511885743074265,1,0,2,-2,4,-3,-2,0
1511885743074265,-2,-1,10,7,-1,-8,2,-2
1511885743074265,-2,-1,-13,-2,5,9,1,0
1511885743074265,0,1,-5,-6,-5,-4,0,2
1511885743088385,0,-1,5,3,7,-9,-4,-2
1511885743088385,3,0,-3,0,28,5,-1,0
1511885743095322,0,1,10,-1,-32,-2,-2,0
1511885743095322,-4,0,0,3,1,5,6,-2
1511885743110528,-2,-4,-9,-3,12,-1,-3,-3
1511885743110528,-2,0,-2,-4,-15,-9,-2,-1
1511885743118549,0,1,-4,-4,1,-4,-1,-1
1511885743118549,-1,2,4,0,3,-5,-1,0
1511885743125566,-2,0,3,-3,-14,3,3,-1
1511885743125566,2,1,0,4,-4,1,-2,0
1511885743132672,-2,-4,-1,-1,5,1,-3,-1
1511885743132672,-3,-2,0,-4,-15,-6,0,-2
1511885743147721,0,-2,-5,1,9,-3,-2,0
1511885743147721,-2,1,10,2,-21,0,1,0
1511885743155705,2,1,-14,0,12,3,-2,1
1511885743155705,0,-3,4,0,11,-4,-3,1
1511885743170744,-1,1,9,0,-15,-1,1,-1
1511885743170744,-1,-5,-25,-6,-1,0,-2,-3
1511885743178804,0,2,15,-2,-17,-7,1,0
1511885743178804,0,0,0,-1,28,1,-2,-2
1511885743185831,-2,1,14,8,-9,6,1,2
1511885743185831,-1,-2,-11,-3,-30,-5,1,0
1511885743192842,-1,-2,-1,0,14,-13,1,-3
1511885743192842,0,-3,-9,-6,-2,13,-1,-1
1511885743207842,2,3,4,-2,-4,-3,-2,0
1511885743207842,-1,-2,0,-4,0,-2,1,-1
1511885743215864,1,0,6,4,5,12,0,-1
1511885743215864,1,1,6,7,33,-1,0,1
1511885743230904,-1,-3,-7,-2,0,-2,2,-1
1511885743230904,-1,-1,1,1,8,0,0,1
1511885743238950,1,-1,-4,0,8,2,1,1
1511885743238950,-1,-1,3,-1,-18,-3,0,-2
1511885743254077,-5,-7,-7,-4,-3,-5,1,-2
1511885743254077,0,1,13,0,14,2,-2,-2
1511885743254077,-2,-4,-4,-5,-25,-4,-1,-2
1511885743254077,0,1,-12,-6,-25,-12,-3,0
1511885743268000,0,-3,-2,2,13,-1,-4,-1
1511885743268000,-1,1,8,0,-14,0,2,-2
1511885743275130,-1,0,5,1,22,-11,-4,0
1511885743275130,-2,-1,-2,1,5,4,-1,-2
1511885743290066,-2,0,-17,-5,-49,-18,-2,-1
1511885743290066,1,1,-4,-1,36,0,-3,0
1511885743299122,-1,0,2,-1,-14,-18,-3,-1
1511885743299122,0,0,15,2,-14,-3,-2,-1
1511885743314126,0,1,-9,1,38,2,0,1
1511885743314126,0,-3,-4,1,-7,6,0,1
1511885743314126,-2,-1,2,-1,2,8,1,-1
1511885743314126,-3,-1,-2,-8,-18,-1,4,-1
1511885743328161,-1,0,14,9,-21,-2,-2,0
1511885743328161,-1,-1,-11,0,-8,-2,-1,-2
1511885743335306,-1,-1,-13,-8,13,9,-1,-1
1511885743335306,-1,1,5,10,-7,-10,0,-1
1511885743350242,-1,0,11,0,25,16,2,-2
1511885743350242,-2,-1,-13,-10,-12,0,-8,-1
1511885743358358,0,2,4,3,-13,5,11,1
1511885743358358,-1,1,0,-1,-3,7,-2,1
1511885743373391,2,2,0,0,14,-5,-1,1
1511885743373391,-3,-7,-11,-7,-4,-7,-1,-2
1511885743374281,-1,1,18,5,-5,-8,-5,-1
1511885743374281,-1,-5,-26,-11,0,10,2,0
1511885743396340,-1,-5,-29,1,6,1,0,-3
1511885743396340,1,4,19,4,-18,-1,2,1
1511885743397343,0,-1,-7,-18,14,9,-3,-1
1511885743397343,0,-5,11,22,79,-5,1,0
1511885743410489,0,2,13,1,-17,13,0,0
1511885743410489,-1,-1,-5,1,-3,-4,1,-2
1511885743418486,0,2,7,0,-8,-11,-3,0
1511885743418486,1,2,3,-6,-19,0,-4,1
1511885743433556,-1,-2,-9,-8,1,-9,1,-2
1511885743433556,-1,-1,6,6,8,4,-1,-1
1511885743434442,-1,-1,-3,-2,-6,2,0,-1
1511885743434442,0,-2,-7,-5,-9,-6,-4,-1
1511885743447479,-2,-4,-4,-4,-3,-3,-2,1
1511885743447479,-1,2,18,13,-1,4,2,-3
1511885743455582,0,3,16,3,-16,-16,-2,-2
1511885743455582,-2,-10,-41,-6,-25,-11,-2,-3
1511885743470804,0,5,-1,-10,12,3,3,2
1511885743470804,0,-1,-4,-7,-1,-10,2,0
1511885743478790,0,-1,14,8,21,7,0,0
1511885743478790,-1,2,8,-7,-66,-19,-2,0
1511885743494003,-1,0,13,6,31,3,-4,-1
1511885743494003,-1,-1,-10,-7,-17,-1,-2,-1
1511885743494834,-2,-1,-10,5,9,1,0,0
1511885743494834,2,5,16,1,-13,30,4,2
1511885743508049,0,-4,-3,-1,-9,-10,0,-3
1511885743508049,-1,0,-2,0,-8,-2,-1,0
1511885743515961,-2,-5,-8,-3,5,7,0,-1
1511885743515961,0,2,1,2,5,-3,-1,-1
1511885743530929,-1,0,1,2,-7,1,0,0
1511885743530929,0,1,1,-1,13,5,0,1
1511885743539017,-1,-1,-9,0,-8,-2,1,1
1511885743539017,-1,-1,3,3,17,-2,-1,-2
1511885743554060,-1,0,16,2,-4,0,-1,-1
1511885743554060,-1,-2,-13,1,6,-5,-1,0
1511885743554060,0,-2,-7,0,-1,3,0,-1
1511885743554060,2,1,12,-2,5,-3,-1,2
1511885743568097,-1,-3,-14,-14,2,-1,2,1
1511885743568097,-1,-2,6,18,-2,-4,-1,-1
1511885743575425,1,-2,-5,-1,-9,1,-3,0
1511885743575425,-2,0,7,-2,24,-2,0,-2
1511885743590283,-1,-2,-1,-2,-45,-30,-3,-1
1511885743590283,0,-2,-6,-6,26,11,1,2
1511885743598307,-2,0,-9,-1,-7,1,1,0
1511885743598307,0,0,5,-2,-31,-5,3,0
1511885743613348,-2,-1,-1,-3,12,-5,-4,-2
1511885743613348,2,0,2,-3,6,1,2,1
1511885743614346,-2,-2,-4,-7,-14,-14,-1,-3
1511885743614346,-2,0,1,3,19,-1,1,-3
1511885743627384,-2,-2,-13,6,-14,2,-1,1
1511885743627384,0,0,6,-1,53,2,-3,-1
1511885743635583,-3,2,1,0,5,10,3,0
1511885743635583,-1,-1,-1,-1,-17,-3,-3,0
1511885743650445,1,0,2,-3,4,5,-2,-1
1511885743650445,0,-2,0,-4,-35,-25,-2,-1
1511885743658500,0,0,-3,-1,0,6,-2,-1
1511885743658500,-1,-1,9,7,15,4,1,0
1511885743673612,0,-2,7,10,10,14,0,0
1511885743673612,-2,-1,-4,-8,-44,-15,-2,-2
1511885743674506,0,-2,-1,-2,6,-3,0,0
1511885743674506,-3,0,-5,-1,1,-2,-1,-1
1511885743687858,0,1,5,-1,8,-4,0,1
1511885743687858,-4,-2,-17,-7,-10,-6,-1,-1
1511885743695734,0,-3,1,2,-5,-17,-2,-2
1511885743695734,1,-1,-11,0,6,3,-2,1
1511885743710783,0,-3,-3,2,17,-2,1,0
1511885743710783,0,1,6,0,4,7,-1,-2
1511885743718920,0,0,-4,-2,-34,-27,-5,-2
1511885743718920,1,0,1,-3,-11,-14,-1,-1
1511885743733836,0,1,2,-5,8,6,1,0
1511885743733836,2,0,1,2,2,-2,-1,0
1511885743734888,0,-1,-1,6,11,18,3,0
1511885743734888,-1,-1,1,-1,-5,2,-1,-1
1511885743747872,-2,1,-1,0,14,-5,-1,1
1511885743747872,0,-1,1,-4,-36,4,3,1
1511885743755001,1,-2,-1,-1,7,-2,-3,-1
1511885743755001,-1,-1,-2,0,9,21,2,1
1511885743770090,-2,-1,0,-2,-13,6,-2,-1
1511885743770090,-1,2,-4,-4,6,6,-2,-1
1511885743779112,-1,-2,0,2,4,14,0,0
1511885743779112,0,1,4,13,-15,-5,0,0
1511885743793229,1,-1,2,2,54,9,-1,-3
1511885743793229,-2,-1,-5,-7,2,-7,2,-1
1511885743794230,-1,2,7,3,-17,7,0,-1
1511885743794230,-1,-1,-9,-2,-5,0,-1,0
1511885743808308,-1,-2,1,-4,-20,-27,-2,-3
1511885743808308,0,-3,-10,-1,12,6,-2,-1
1511885743815326,1,0,0,-7,3,-5,1,-1
1511885743815326,-2,-1,-2,-5,13,-4,-1,-1
1511885743830328,0,-3,-6,4,-9,-2,0,-1
1511885743830328,1,0,2,4,21,47,7,1
1511885743838389,-2,-1,-3,-3,9,-10,-5,0
1511885743838389,-1,1,2,0,-8,7,2,-2
1511885743853387,3,2,4,0,-14,1,-1,-1
1511885743853387,-1,-2,-6,-3,10,-1,-3,0
1511885743854389,1,1,2,11,15,1,1,0
1511885743854389,-2,-1,-4,-5,7,1,-1,0
1511885743868481,-1,1,0,-3,-6,10,2,0
1511885743868481,2,1,3,0,-5,-10,-3,0
1511885743875634,-1,-1,-2,-4,4,-9,-2,1
1511885743875634,-1,-3,-2,-4,2,-16,-3,-2
1511885743890644,-2,-1,-2,-3,-26,-8,2,0
1511885743890644,0,0,4,1,5,1,0,-1
1511885743898509,-2,1,-3,0,-12,15,2,0
1511885743898509,-2,0,1,1,29,30,3,-1
1511885743913549,-1,-1,-4,-10,-32,-6,7,0
1511885743913549,-1,0,7,10,11,-6,-5,-1
1511885743914552,-1,-1,-2,-7,7,9,1,-1
1511885743914552,1,0,1,10,-11,-6,-2,1
1511885743927756,-1,2,-1,-1,0,-2,0,-1
1511885743927756,-3,-1,-2,-2,-2,-9,2,0
1511885743935608,-1,-2,1,-5,0,-4,0,0
1511885743935608,-1,-1,-1,-4,4,-11,-4,0
1511885743950770,-4,-2,-3,1,3,-2,0,0
1511885743950770,-2,2,6,-4,-6,-6,-2,-1
1511885743958791,0,-2,-4,2,27,-1,-1,-2
1511885743958791,2,2,3,-2,14,34,6,1
1511885743974009,0,2,1,0,14,18,-9,0
1511885743974009,0,-4,0,1,-7,-1,11,-3
1511885743974942,0,-3,-1,-3,-5,-7,-1,0
1511885743974942,0,-3,-4,-1,12,3,1,-1
1511885743988106,-1,-1,-1,0,-29,-3,1,0
1511885743988106,0,2,-1,1,-3,-6,-4,1
1511885743995089,0,-1,-1,-6,-4,0,5,-2
1511885743995089,-1,-2,-3,0,-29,-23,-8,0
1511885744011051,0,-2,-1,-2,6,-8,-2,-1
1511885744011051,0,0,3,-7,-28,1,-1,2
1511885744019076,-3,0,0,8,-15,-15,-4,-2
1511885744019076,-2,0,-1,-10,1,-5,-1,1
1511885744033133,-1,-1,-4,-3,-23,-34,-5,-3
1511885744033133,0,1,2,0,2,6,-4,0
1511885744041154,-1,0,-2,-4,-1,2,1,-1
1511885744041154,0,-2,0,-4,-9,-12,2,-4
1511885744048192,-2,-1,0,-1,4,4,-3,0
1511885744048192,-1,-1,-2,1,5,-8,-9,-1
1511885744055191,0,0,-3,0,-4,0,9,0
1511885744055191,-2,-1,-2,2,6,-11,-6,1
1511885744070212,2,-1,0,-1,12,3,-5,3
1511885744070212,-1,0,-1,-1,-16,-2,1,-7
1511885744078271,0,1,1,2,4,0,-5,1
1511885744078271,0,-1,-1,-1,0,4,7,-4
1511885744093407,-1,0,-1,4,6,10,-1,2
1511885744093407,0,0,0,6,15,10,4,2
1511885744101334,-2,-1,-2,-4,-22,-19,-5,-3
1511885744101334,0,1,1,-1,-4,-2,-2,0
1511885744108347,0,-2,0,-3,-1,4,4,-1
1511885744108347,1,0,0,4,12,-2,-1,1
1511885744115332,0,0,1,2,-2,8,-1,-2
1511885744115332,-1,0,-3,-2,2,-2,5,1
1511885744130375,0,1,0,3,-5,-1,-10,-2
1511885744130375,0,0,-1,-13,-2,-6,5,-3
1511885744138424,-2,-4,0,7,-9,-10,-3,-1
1511885744138424,0,2,2,6,-5,-4,-4,0
1511885744152430,-1,-2,1,0,7,2,3,-3
1511885744152430,-2,-3,-2,-5,-4,-9,-1,-1
1511885744161452,1,-2,-4,-19,2,5,-7,0
1511885744161452,0,0,4,14,1,-5,4,-2
1511885744167763,-1,-1,0,1,1,1,2,-2
1511885744167763,0,-1,-1,-4,-3,4,-5,1
1511885744175774,-2,-2,-2,7,1,-5,-1,-1
1511885744175774,0,0,-1,-11,-6,0,0,-1
1511885744190744,1,-1,0,0,8,4,0,-1
1511885744190744,-1,-1,-2,1,-2,-14,-1,-2
1511885744206706,1,-1,0,-7,-8,1,-2,0
1511885744206706,-1,-3,-2,-3,-2,1,-5,-2
1511885744212734,-1,0,-1,4,-1,-3,2,-1
1511885744212734,-1,0,0,0,2,2,2,0
1511885744220824,0,0,4,6,12,3,5,0
1511885744220824,-1,0,-1,-3,-7,-3,-5,-2
1511885744235754,-2,-1,-1,-2,-4,13,16,1
1511885744235754,-2,0,-2,2,-4,-3,-2,0
1511885744236756,-1,2,-2,-7,12,7,-1,-1
1511885744236756,-1,-2,1,8,7,9,12,1
1511885744250796,0,0,-2,0,15,7,-8,-2
1511885744250796,1,-1,0,3,10,31,2,-1
1511885744258818,1,-1,0,3,12,3,-2,2
1511885744258818,-6,0,-1,-8,-7,-4,6,6
1511885744272852,1,1,0,-3,-7,-5,-20,-7
1511885744272852,-1,-2,-3,1,0,-4,6,-5
1511885744281878,-1,-3,-1,0,-7,8,2,-5
1511885744281878,2,-2,-4,-2,5,-3,-38,2
1511885744295916,-2,-2,1,3,4,-5,4,0
1511885744295916,-2,-1,-1,-1,-6,-4,-8,2
1511885744296915,0,1,-1,-4,-12,5,34,0
1511885744296915,5,0,1,-3,5,0,-18,-2
1511885744310149,8,0,-1,-3,-13,-4,0,-4
1511885744310149,-23,-4,1,-1,3,-1,3,-2
1511885744319066,-5,-2,-1,1,-2,-13,-13,0
1511885744319066,1,-1,-1,-5,-19,-2,3,1
1511885744333011,3,-2,1,-1,0,-1,15,1
1511885744333011,24,2,1,0,-3,14,-7,-16
1511885744349054,-17,-2,0,1,9,-7,-4,29
1511885744349054,-5,-2,-3,-1,-1,-7,9,-3
1511885744356073,-3,0,-3,-2,16,19,10,-1
1511885744356073,0,0,1,1,-6,-20,-2,4
1511885744357075,5,1,0,1,18,-3,-3,-7
1511885744357075,5,-2,-1,-2,-12,-2,6,-1
1511885744370265,-7,-1,-1,-1,-9,-8,-4,4
1511885744370265,1,-1,0,0,3,-12,-11,2
1511885744379198,5,-2,-2,1,10,12,-25,3
1511885744379198,-3,1,-1,-1,5,5,29,-20
1511885744393174,1,-1,-1,2,-9,-4,4,-5
1511885744393174,-3,0,1,1,11,11,-33,10
1511885744401196,2,-1,-4,-3,-14,-28,-3,-7
1511885744401196,-1,-1,-2,0,4,23,-6,3
1511885744416237,-3,0,-2,-8,-15,-15,7,-2
1511885744416237,1,1,0,-4,-23,-5,-3,2
1511885744417239,-1,0,2,4,2,16,-4,1
1511885744417239,1,1,-2,-3,9,-2,9,-1
1511885744430531,-3,1,-3,0,6,-7,-28,3
1511885744430531,-4,-2,-1,-2,5,-14,19,0
1511885744438740,0,1,0,-2,-17,0,-1,-12
1511885744438740,0,0,0,3,-2,-12,-2,1
1511885744452586,-3,-2,1,-1,6,-3,-8,-3
1511885744452586,1,-1,-2,-1,-8,-16,20,2
1511885744461620,1,0,-1,0,-5,-27,5,2
1511885744461620,-1,0,-2,1,-16,3,-12,-7
1511885744476700,-2,-3,-2,-3,-22,7,2,3
1511885744476700,-1,-3,-6,-4,-33,-41,13,-3
1511885744476700,0,-1,-1,-1,-1,19,10,-3
1511885744476700,-2,-1,0,-1,1,-8,-35,4
1511885744490713,1,-2,-1,-3,7,-3,19,-1
1511885744490713,-3,-1,-1,0,7,16,15,-13
1511885744498787,2,-1,-2,-1,20,20,-23,8
1511885744498787,0,1,-1,-2,-8,-10,3,4
1511885744512828,-2,-2,-1,-2,21,-2,-4,-1
1511885744512828,-1,0,2,-2,-15,-15,-12,0
1511885744521031,-2,-1,-3,1,-10,-11,6,-7
1511885744521031,-3,-2,2,0,8,-6,6,-1
1511885744536110,0,1,-1,-3,-4,-4,5,2
1511885744536110,-1,2,-4,3,16,3,0,4
1511885744537111,2,-3,2,0,-14,-6,0,-4
1511885744537111,-1,-1,-2,-3,-11,-23,0,3
1511885744582268,-2,-2,-1,4,0,-9,-15,-1
1511885744582268,-2,0,4,-6,-5,3,-3,0
1511885744585238,0,0,-1,-2,-4,2,5,-3
1511885744585238,-8,0,-1,1,12,8,1,-2
1511885744596261,6,0,1,0,9,-26,-14,-2
1511885744596261,0,-2,-3,0,6,21,2,1
1511885744597264,0,4,5,0,5,8,-4,-2
1511885744597264,7,-2,-5,-5,-40,-21,8,0
1511885744610430,-23,-2,6,10,11,-25,2,-2
1511885744610430,1,1,3,3,-4,15,-7,2
1511885744619325,0,-2,-8,2,14,-1,5,-2
1511885744619325,-2,-2,2,-5,-3,34,0,1
1511885744634476,8,-2,-4,-5,-4,29,4,3
1511885744634476,0,2,18,-9,0,4,-8,0
1511885744635484,-6,-5,-11,31,-3,7,4,2
1511885744635484,3,6,14,-2,36,7,-1,0
1511885744641500,3,-3,-18,-7,-33,-18,-1,0
1511885744641500,0,1,-5,-2,-5,19,6,-1
1511885744642384,7,3,6,-6,-20,9,-2,-3
1511885744642384,-2,0,14,10,26,12,1,-1
1511885744656526,3,7,19,1,22,10,0,0
1511885744656526,-1,-4,-15,-6,-29,-12,-2,-1
1511885744657424,-1,-3,13,6,-25,-24,-2,1
1511885744657424,2,1,-7,11,0,-8,0,2
1511885744670461,-2,2,7,-9,-25,-21,3,0
1511885744670461,1,-5,-10,0,15,-5,-1,-1
1511885744677477,0,2,-1,-8,17,8,-1,-2
1511885744677477,-3,-2,-4,-1,7,-7,1,0
1511885744692926,3,-1,-3,-2,9,15,1,1
1511885744692926,-2,-3,-4,2,-10,-11,-3,-2
1511885744700866,-2,-1,-8,-9,-16,-23,-1,-3
1511885744700866,0,0,3,-3,9,6,3,1
1511885744715952,2,1,0,2,2,22,4,0
1511885744715952,0,2,-1,1,11,9,-1,3
1511885744716951,0,0,-4,1,21,2,2,-1
1511885744716951,0,0,-3,-4,-3,2,-5,0
1511885744729989,0,-1,-6,-8,-16,4,0,-2
1511885744729989,0,3,31,17,28,-1,-2,2
1511885744738193,-1,0,-35,-11,2,5,0,0
1511885744738193,-3,-6,-9,-3,-26,-12,-1,-2
1511885744753261,-1,-2,2,7,0,3,2,1
1511885744753261,0,4,8,-3,-14,-9,-2,0
1511885744761285,1,0,15,3,1,1,-5,-3
1511885744761285,0,1,-10,-1,10,2,-2,-4
1511885744776513,-2,-5,-7,-1,8,-1,2,-1
1511885744776513,-2,0,3,1,-13,-4,-3,-2
1511885744777459,-1,-2,-1,-8,14,14,2,2
1511885744777459,2,-2,1,9,4,-1,-1,2
1511885744790382,-1,0,1,-1,3,-6,-1,0
1511885744790382,0,0,-5,-2,8,-5,0,-2
1511885744798385,0,1,4,4,-8,2,0,0
1511885744798385,-1,-2,-9,-9,-5,-14,0,1
1511885744812418,-1,2,2,6,14,24,1,1
1511885744812418,-2,-4,-11,1,14,-4,-1,0
1511885744821445,-1,0,0,-10,-7,-4,1,-2
1511885744821445,2,0,5,-3,-5,1,2,0
1511885744836485,0,0,-1,3,7,3,1,1
1511885744836485,-1,-2,-8,-7,3,-1,-1,-5
1511885744837520,-1,0,4,-3,-7,-4,-3,-2
1511885744837520,-1,-1,6,10,18,18,1,-1
1511885744850768,0,-1,-3,0,3,-4,4,0
1511885744850768,-3,-5,-7,-3,-3,-12,-10,-1
1511885744857896,5,1,4,0,19,29,3,-1
1511885744857896,-5,-1,4,-4,5,-5,-2,-1
1511885744872826,0,0,-10,-3,-23,5,1,2
1511885744872826,0,2,5,2,-1,-3,5,1
1511885744880850,-2,0,1,7,19,3,0,-1
1511885744880850,0,-3,-3,-8,-9,-5,-3,-1
1511885744895892,0,1,5,3,-18,-15,-5,0
1511885744895892,0,-1,-3,-1,1,6,-1,1
1511885744896891,-1,-2,1,-4,-11,-13,-3,-2
1511885744896891,-1,1,-6,-4,-2,6,0,0
1511885744910096,-3,0,3,0,-2,-7,-5,-2
1511885744910096,-1,-1,-2,-1,-9,-21,0,-1
1511885744917949,-3,-2,0,-3,-4,0,2,1
1511885744917949,-1,-1,-2,0,-18,-25,-2,0
1511885744932990,-1,-1,-2,-2,-4,-1,-3,-2
1511885744932990,-1,-1,-7,-4,1,-4,0,0
1511885744941175,-4,-1,1,-2,-3,-6,-4,-1
1511885744941175,2,-1,2,5,-4,14,2,0
1511885744955150,0,-1,0,1,4,4,-4,0
1511885744955150,0,-1,-1,-4,-9,-3,0,1
1511885744964105,-3,0,0,-7,-17,-14,-1,0
1511885744964105,-1,2,0,12,15,4,1,0
1511885744970086,0,-1,-2,-9,3,0,1,-1
1511885744970086,-1,-2,-6,0,-15,-14,-5,-1
1511885744978106,-2,-5,-13,-4,6,-5,2,-2
1511885744978106,-1,-1,-3,-7,-7,-4,-3,-2
1511885744993317,1,1,7,3,3,2,-1,-2
1511885744993317,2,0,5,0,15,8,1,0
1511885745001249,0,-1,4,1,-6,1,-3,-1
1511885745001249,0,-2,-2,-2,-8,-10,-1,-1
1511885745015208,-1,-2,-3,-1,-6,-1,0,-1
1511885745015208,-2,-1,-4,1,6,-4,-1,-2
1511885745023358,1,1,1,2,1,-1,-1,1
1511885745023358,-1,-2,-2,-6,2,-4,1,-1
1511885745030248,-1,0,3,-1,-6,3,1,-2
1511885745030248,-1,-2,-3,1,10,9,4,0
1511885745038269,-2,0,1,2,5,-5,-2,-1
1511885745038269,0,0,0,-4,7,1,-3,1
1511885745053433,1,1,3,-3,-15,-17,-1,-1
1511885745053433,-3,-1,-12,3,1,11,3,0
1511885745061455,0,0,4,-3,6,-3,0,0
1511885745061455,-3,-1,1,-2,-23,-5,1,-2
1511885745075598,-1,-2,-1,3,23,7,-1,-3
1511885745075598,3,2,6,1,6,11,1,0
1511885745083635,-1,2,4,5,-5,-8,-1,1
1511885745083635,-1,-3,-7,-6,6,-5,-3,1
1511885745090691,-2,-1,-2,4,0,1,-1,2
1511885745090691,-1,1,1,0,-2,-3,0,1
1511885745097555,1,-2,-3,0,21,18,5,1
1511885745097555,-1,1,4,0,-1,1,0,-2
1511885745112592,0,-3,-7,-1,6,0,0,0
1511885745112592,-1,0,3,0,0,2,-1,0
1511885745121667,0,-2,-1,-2,-1,4,0,0
1511885745121667,0,1,3,3,-8,-9,0,-1
1511885745135860,0,0,-2,-10,-4,5,0,1
1511885745135860,-3,0,3,8,3,-11,-2,-2
1511885745144055,-1,-2,-16,-5,-19,-11,-3,-1
1511885745144055,-1,1,5,6,3,6,0,0
1511885745159005,-1,1,0,-6,-11,-9,-1,1
1511885745159005,1,1,7,3,-1,2,-2,0
1511885745159924,0,-2,-12,-4,7,-5,-1,-2
1511885745159924,-2,-2,-2,-4,-23,-12,-1,0
1511885745172965,0,-1,-4,3,37,12,-1,-1
1511885745172965,-2,0,1,-4,-8,-14,-2,0
1511885745180982,0,-1,5,-1,-7,-1,-1,1
1511885745180982,-2,0,-3,5,14,16,1,-1
1511885745195207,-1,0,-2,2,-5,-9,1,0
1511885745195207,-1,1,5,1,-13,9,-2,-2
1511885745204046,-1,0,-6,-5,2,-2,0,-1
1511885745204046,2,-3,-2,-1,4,1,0,0
1511885745218191,-2,-2,1,-1,-12,-4,-1,-3
1511885745218191,-2,-5,-5,-4,3,2,1,-1
1511885745219083,0,0,7,-7,-13,1,-1,-1
1511885745219083,-1,1,-5,0,-6,-11,-2,-2
1511885745233123,0,-1,-3,8,3,0,-1,-1
1511885745233123,-1,-1,-1,-7,-16,-8,-2,-1
1511885745241144,-3,-1,1,-2,4,-2,0,-1
1511885745241144,0,-1,6,3,7,1,-1,-1
1511885745255179,-1,-3,-4,-4,-9,-2,0,-2
1511885745255179,1,-2,-3,0,12,1,-3,-2
1511885745263332,0,-1,3,0,2,4,0,1
1511885745263332,-1,1,-6,-7,-46,-19,-1,-1
1511885745278487,0,1,2,2,4,1,0,-1
1511885745278487,1,-1,-7,-4,-5,10,3,0
1511885745279379,-3,-2,0,0,-4,-13,-2,-1
1511885745279379,0,-2,4,-1,1,1,3,1
1511885745293516,-2,0,-6,-1,-2,-3,-3,0
1511885745293516,-3,-2,2,-7,-23,-23,1,-4
1511885745301432,0,2,-2,4,-2,2,0,-1
1511885745301432,0,1,9,3,16,6,1,-2
1511885745315509,-1,-2,-9,-4,0,-7,-3,0
1511885745315509,-2,-3,-11,-3,17,-2,-2,-1
1511885745323513,-2,-2,-2,4,-17,2,1,-1
1511885745323513,-1,-1,-3,-9,1,-11,-3,-3
1511885745346553,1,-1,6,8,-13,-13,1,0
1511885745346553,0,-2,1,0,2,4,1,0
1511885745347555,-1,0,0,0,2,-4,-1,-1
1511885745347555,-2,-3,-8,-6,7,11,0,0
1511885745352592,1,0,5,10,10,10,3,1
1511885745352592,1,0,-2,-2,7,9,0,1
1511885745361634,2,1,10,3,-20,-23,-2,-2
1511885745361634,0,1,-14,1,13,5,0,1
1511885745375744,-1,-2,8,-5,-11,-8,-1,-1
1511885745375744,-1,-3,4,2,5,-1,1,1
1511885745383651,-1,-1,0,1,11,12,0,0
1511885745383651,1,1,4,2,6,7,1,0
1511885745398822,-2,-1,-1,-3,-4,0,-1,-1
1511885745398822,0,2,10,5,5,0,1,0
1511885745399826,-2,-3,-12,-6,10,4,1,0
1511885745399826,-2,-2,-4,6,-16,-9,-2,0
1511885745412859,-1,1,0,0,-7,0,-1,0
1511885745412859,-1,0,-6,-5,21,4,0,-1
1511885745421082,2,-1,4,4,17,9,-1,-1
1511885745421082,-1,-2,0,-2,-13,-1,0,-1
1511885745435958,1,-1,-4,-5,3,-4,-2,-1
1511885745435958,0,2,-2,3,-4,6,-1,-2
1511885745444039,0,0,1,-2,-10,-4,-1,-2
1511885745444039,-1,-1,-2,-1,10,-2,-2,0
1511885745459064,-1,-2,2,-5,2,3,1,-1
1511885745459064,0,-1,-11,1,-7,-4,0,-1
1511885745459064,-1,1,3,-2,6,-2,0,1
1511885745459064,1,2,4,-4,-6,-1,-1,0
1511885745473021,0,-1,-2,0,-1,-2,-1,-2
1511885745473021,0,0,-1,-2,-6,1,2,1
1511885745481041,-1,2,7,-3,3,0,-2,-1
1511885745481041,-2,-4,-10,8,3,-9,0,-2
1511885745495079,-1,-2,-7,-8,15,2,-1,0
1511885745495079,0,0,-2,-5,-13,4,0,-1
1511885745504109,-1,2,4,7,-4,-5,-1,-1
1511885745504109,-1,2,9,-4,-3,5,-2,-1
1511885745519147,-1,-1,-4,-2,0,-11,-3,-1
1511885745519147,-1,1,0,-2,-4,5,-1,1
1511885745519147,0,-2,0,-2,-8,-1,0,0
1511885745519147,1,1,-3,2,9,8,0,-1
1511885745533218,0,1,-4,3,-2,-6,0,0
1511885745533218,0,0,3,4,-5,-4,-3,-1
1511885745541236,0,0,-8,-3,-4,-8,-2,-1
1511885745541236,-1,-1,-1,0,-3,-8,0,0
1511885745555278,0,-2,1,-5,24,8,-1,-2
1511885745555278,-1,0,9,8,1,0,-1,-1
1511885745563301,-3,1,-5,2,-7,5,-1,-1
1511885745563301,1,1,-2,-4,9,1,-1,1
1511885745578417,-3,-6,-11,-4,9,9,1,-1
1511885745578417,2,0,-10,-12,-2,-2,1,0
1511885745579339,0,-2,5,10,5,-1,-1,-2
1511885745579339,1,1,8,-4,-2,1,0,1
1511885745593508,0,2,4,1,-9,-1,-2,-1
1511885745593508,-3,-2,-4,-5,3,-4,0,1
1511885745601361,-2,-1,0,-4,-4,-7,-2,0
1511885745601361,0,-2,6,2,-21,-4,-3,-2
1511885745615631,0,2,7,3,-6,2,0,1
1511885745615631,-2,0,12,12,-2,-8,-2,0
1511885745623538,0,-3,-16,-10,0,2,2,0
1511885745623538,-1,-4,-8,-2,7,-1,0,1
1511885745638753,1,3,6,4,0,4,0,1
1511885745638753,-1,1,5,-2,-9,-2,-1,-2
1511885745639577,-2,-1,3,3,3,6,0,-1
1511885745639577,-1,-1,-4,3,7,0,-1,0
1511885745652752,-1,-1,-1,0,-18,-17,1,-3
1511885745652752,-1,0,-3,0,7,10,0,1
1511885745660876,-1,-3,-6,-1,1,-2,1,-2
1511885745660876,-2,-1,-2,-10,5,-6,-3,-2
1511885745675990,1,-1,0,5,-4,-1,-2,0
1511885745675990,-1,-1,-1,-1,3,-4,1,-1
1511885745684048,-1,0,4,-2,-7,-6,0,-2
1511885745684048,-1,-1,-13,-11,4,9,0,-1
1511885745698165,-1,-5,-13,2,-7,-11,0,0
1511885745698165,-2,-6,-41,-10,-2,-6,0,0
1511885745699115,-1,-1,6,-6,1,1,0,0
1511885745699115,-1,2,16,2,-1,1,-1,1
1511885745713187,0,3,8,0,-18,8,3,1
1511885745713187,1,2,8,5,0,-4,0,-1
1511885745721285,1,-2,-6,-4,8,1,0,0
1511885745721285,-1,-2,-7,1,-1,-3,2,1
1511885745735439,-2,-1,9,8,3,-1,-1,1
1511885745735439,-1,-3,1,-4,-1,-1,0,-2
1511885745743495,1,0,0,-1,-4,2,0,0
1511885745743495,-2,0,7,4,0,-3,0,-2
1511885745758449,0,1,5,-12,6,3,-3,-3
1511885745758449,-1,-5,-35,5,1,-2,-1,-1
1511885745766464,1,6,30,6,-10,-8,-1,-2
1511885745766464,1,-3,-26,-1,4,-8,3,-1
1511885745773482,-1,-1,6,-10,-14,-4,-2,-2
1511885745773482,-1,1,15,5,1,0,-1,-1
1511885745781548,1,-1,-4,0,-18,-3,0,-1
1511885745781548,-2,0,2,0,3,7,0,-1
1511885745795583,2,7,42,6,0,-5,-2,-1
1511885745795583,0,-10,-51,-11,44,1,-2,-2
1511885745804564,-1,-1,-15,-1,-37,-2,3,2
1511885745804564,0,4,19,4,-2,-16,-4,-2
1511885745817797,0,-1,-17,-6,18,-1,0,0
1511885745817797,2,1,10,-7,-22,3,2,2
1511885745826623,-1,0,-2,0,4,2,1,-1
1511885745826623,0,-1,-3,0,-3,1,1,0
1511885745832642,0,2,15,6,-13,-3,0,-2
1511885745832642,-5,-2,1,-10,-10,-5,-3,-2
1511885745841663,-1,-3,-12,3,4,-4,-1,0
1511885745841663,-1,-2,8,2,-3,3,-1,-1
1511885745855700,-2,-2,-14,-1,8,1,-1,0
1511885745855700,2,4,9,-6,-9,4,0,0
1511885745864728,-4,-3,1,9,12,-4,-2,-3
1511885745864728,1,2,1,-2,6,4,1,-1
1511885745877760,-1,-4,-21,-6,-7,0,1,0
1511885745877760,-2,3,35,10,0,-1,-2,-1
1511885745886783,-1,-5,-34,-8,6,-2,-4,-2
1511885745886783,-1,2,1,-1,-15,-12,0,0
1511885745892989,-1,-3,-7,-2,-8,-2,-1,-1
1511885745892989,0,0,16,2,-2,7,1,0
1511885745901823,0,6,16,4,9,3,-1,0
1511885745901823,-1,-3,0,-3,-7,2,-4,-1
1511885745915094,1,-3,-12,-7,-14,-5,-1,1
1511885745915094,2,5,7,9,25,-4,-2,-1
1511885745924155,-4,-9,-16,-10,-52,5,1,-2
1511885745924155,-1,-1,12,5,24,1,-2,-4
1511885745938156,-2,2,-2,-3,4,-8,-2,-3
1511885745938156,1,0,0,0,-10,6,0,0
1511885745947201,0,2,9,3,12,0,-1,0
1511885745947201,-1,-3,-4,-2,-11,-3,1,-1
1511885745953192,0,-2,-5,-1,-4,7,0,1
1511885745953192,0,2,2,-4,-5,-10,-1,-2
1511885745962216,-1,-1,-8,-3,13,-3,-1,-2
1511885745962216,-2,-4,-9,-2,-2,4,0,-2
1511885745975371,0,-1,1,5,9,-2,-3,-1
1511885745975371,-1,-2,0,-3,-4,4,1,0
1511885745984311,0,1,5,1,16,1,-2,-1
1511885745984311,-1,1,-1,-1,-8,-4,-1,2
1511885745998318,-2,-3,-1,4,0,3,1,-1
1511885745998318,-2,-2,-8,1,1,-1,2,0
1511885746007341,3,5,15,-1,-5,-5,0,1
1511885746007341,0,0,-10,-7,3,6,-1,2
1511885746013357,-1,-6,-7,-2,7,-1,0,-2
1511885746013357,-3,-4,-6,-3,-7,-4,-1,-4
1511885746022383,1,1,6,1,27,-5,1,-1
1511885746022383,2,2,5,-6,-58,6,1,1
1511885746035456,-1,-1,-10,5,36,2,-2,0
1511885746035456,1,4,16,9,-6,2,2,1
1511885746044441,-1,-6,-13,-8,19,4,-2,-2
1511885746044441,-1,1,6,5,-23,-8,-1,-1
1511885746057505,-1,0,-9,-6,38,9,0,1
1511885746057505,-1,-1,7,0,-30,-10,-1,0
1511885746066638,0,-1,-3,-11,-17,-6,-3,-1
1511885746066638,-2,-1,11,13,12,1,0,-2
1511885746072657,1,4,-6,-11,-6,4,0,0
1511885746072657,4,2,-13,6,12,0,0,2
1511885746081678,-9,-14,-9,-17,-12,-3,0,-3
1511885746081678,-7,-7,1,12,9,-8,-2,-5
1511885746095756,2,2,6,0,25,9,1,-3
1511885746095756,-1,1,-4,1,-2,-1,-1,0
1511885746104739,6,5,5,2,-34,5,-1,2
1511885746104739,-2,-2,-3,1,58,3,0,0
1511885746117878,-2,0,6,-1,-32,-1,0,2
1511885746117878,-4,-5,-9,-6,-7,-6,-1,-2
1511885746126796,-1,-4,0,5,58,3,-3,-2
1511885746126796,-1,-2,-11,-8,-49,-18,-3,-1
1511885746141944,4,1,4,4,-20,0,1,0
1511885746141944,-2,-1,4,7,19,6,0,1
1511885746143840,-2,3,1,1,-9,-1,-2,1
1511885746143840,1,0,0,-10,-58,-14,1,2
1511885746154872,-1,0,5,12,33,4,0,-1
1511885746154872,-2,-4,-17,-11,-13,3,-2,-4
1511885746163893,-1,0,5,6,12,-7,2,0
1511885746163893,7,9,1,-3,9,9,1,2
1511885746177931,0,3,15,-5,-43,3,0,-1
1511885746177931,-12,-12,-19,0,49,-6,-5,-5
1511885746186955,-1,-2,2,-7,-52,-9,-1,-2
1511885746186955,3,3,-7,-2,44,8,-2,-2
1511885746202200,0,1,9,-2,-26,-15,3,0
1511885746202200,7,5,8,3,11,23,-2,1
1511885746204001,-5,0,10,8,1,-20,-1,2
1511885746204001,-3,-4,-22,-3,1,16,7,-4
1511885746215259,0,1,-3,-9,1,3,-1,-3
1511885746215259,-3,-1,3,1,-13,-19,-1,-2
1511885746224287,0,5,-4,7,-4,-9,1,0
1511885746224287,-5,-8,4,-6,-24,-4,-4,-1
1511885746238341,-4,-6,-7,4,50,3,-4,-2
1511885746238341,0,3,-3,-8,-29,7,-1,0
1511885746247409,2,1,5,-1,9,-3,-2,0
1511885746247409,-2,8,2,5,17,7,-1,0
1511885746261426,3,-19,-7,-6,-24,-5,0,0
1511885746261426,-5,-6,-2,-7,1,-12,-2,-1
1511885746263428,-6,-6,3,0,5,3,-1,-3
1511885746263428,4,-2,-20,-2,12,-1,-3,-1
1511885746275503,-2,4,-3,-2,5,-8,-2,-3
1511885746275503,7,9,31,6,6,4,-2,2
1511885746284486,-1,-4,-15,-1,-15,14,3,0
1511885746284486,-3,3,6,-6,-10,3,11,-1
1511885746297562,-2,5,-2,-1,-20,-8,-3,-1
1511885746297562,1,-5,-7,10,38,-12,-1,0
1511885746306578,-1,2,-1,-6,13,22,2,-3
1511885746306578,0,-2,4,2,-12,-5,-10,2
1511885746321617,0,3,3,3,-31,7,-3,-1
1511885746321617,-7,-4,-3,-6,-16,5,15,-1
1511885746327644,2,-3,0,0,15,-9,-5,1
1511885746327644,2,-4,-2,4,21,-8,0,1
1511885746367748,-4,-3,-9,-3,6,-11,-6,-3
1511885746367748,1,4,-8,-6,0,19,-2,-3
1511885746369714,4,3,0,-2,-5,4,2,1
1511885746369714,-3,-4,3,3,7,-6,1,1
1511885746380744,0,-1,1,-1,-38,-15,-5,-1
1511885746380744,1,0,8,1,59,17,5,-1
1511885746387760,3,1,-4,0,-7,5,1,-1
1511885746387760,-6,-5,-6,-3,-1,-4,-5,-1
1511885746403803,-4,-2,-5,-4,-11,3,1,-3
1511885746403803,-1,-5,1,-1,-17,-1,-8,-2
1511885746404807,0,1,7,-3,-21,17,5,0
1511885746404807,2,2,-9,-5,16,8,-2,-1
1511885746418996,-7,-10,-9,5,6,11,-1,0
1511885746418996,0,1,4,-10,-38,-5,-7,-4
1511885746420975,-1,-1,-1,-2,13,18,-6,-1
1511885746420975,1,0,9,3,-10,4,5,0
1511885746434012,1,5,2,0,18,17,0,1
1511885746434012,1,0,-5,1,-18,11,1,1
1511885746436014,-5,-7,-3,-4,-51,-2,-3,-3
1511885746436014,2,0,-1,0,24,16,-1,-2
1511885746449048,1,1,-7,-2,12,6,-3,0
1511885746449048,2,0,8,2,-1,12,-1,3
1511885746455067,-8,-6,-8,0,13,11,-7,-4
1511885746455067,-1,-3,-1,-7,-3,12,-3,-1
1511885746472152,-1,-1,4,2,-1,-6,4,-3
1511885746472152,1,1,2,-4,-1,26,1,0
1511885746473114,4,7,2,9,4,-3,5,3
1511885746473114,-2,-6,-14,-3,-1,5,-7,0
1511885746486171,1,4,11,3,-7,8,-1,0
1511885746486171,0,0,-2,-3,-26,-7,-3,-2
1511885746493285,-1,0,3,0,10,3,0,-1
1511885746493285,-2,0,6,-4,1,-2,-7,-3
1511885746509328,1,-3,-17,0,-8,24,-1,2
1511885746509328,-4,-1,11,1,1,3,5,-1
1511885746511223,1,-3,-9,-4,1,0,-2,1
1511885746511223,0,-1,-2,1,-8,5,1,-1
1511885746532272,1,-4,2,-3,1,0,-4,-3
1511885746532272,0,-2,-5,-1,-2,3,-5,-1
1511885746533277,0,-1,-1,-1,11,4,-1,-3
1511885746533277,-1,-2,-2,-3,-5,4,2,-1
1511885746546353,-2,-1,2,1,14,11,1,-1
1511885746546353,0,0,-3,3,-20,1,-1,0
1511885746553326,-1,0,-2,-3,0,3,-1,1
1511885746553326,0,1,8,3,5,5,-1,3
1511885746569406,-1,-2,-8,-9,-10,3,1,0
1511885746569406,3,-2,2,7,40,-1,4,1
1511885746571379,0,0,3,0,-13,5,2,1
1511885746571379,-3,1,6,0,-2,3,-3,0
1511885746591483,1,2,-4,-17,12,-2,1,1
1511885746591483,0,2,3,31,-4,-8,-1,0
1511885746593433,3,1,-4,-2,2,-6,-3,0
1511885746593433,2,2,14,2,7,2,3,-1
1511885746606471,-1,0,-20,-2,-13,-11,3,0
1511885746606471,2,2,11,-12,-1,-18,-6,1
1511885746612483,2,0,-3,-1,19,4,13,2
1511885746612483,0,0,-3,4,-19,-10,1,-2
1511885746629559,-1,3,8,2,11,-5,3,2
1511885746629559,-2,0,-3,-3,5,7,2,2
1511885746630532,-1,0,2,3,15,-20,-3,-1
1511885746630532,1,0,-2,-8,-9,1,6,2
1511885746651590,1,-2,8,6,-13,-22,-3,-1
1511885746651590,0,-2,-13,-8,0,-13,-1,0
1511885746653592,0,2,7,2,-1,-19,-1,-3
1511885746653592,-1,1,-3,-2,8,-16,-3,-2
1511885746665792,0,-1,2,3,5,-13,-1,-1
1511885746665792,-3,-3,0,-6,-12,-17,0,-1
1511885746672808,-3,-4,-7,-6,-7,-23,-6,-1
1511885746672808,-2,-2,-5,-4,-14,-27,-3,-4
1511885746688976,-3,1,3,2,-4,-6,0,-2
1511885746688976,-2,1,6,-8,-4,-11,-1,-1
1511885746690858,-2,0,-14,-2,2,-2,-1,-1
1511885746690858,-1,1,2,-5,8,-7,1,0
1511885746711916,0,0,7,14,-3,-7,-1,-1
1511885746711916,1,3,6,0,4,17,3,1
1511885746712918,-3,-6,-9,5,-6,-6,-2,-3
1511885746712918,-1,0,-3,-1,-6,-2,-2,0
1511885746725126,1,-2,1,-5,9,8,1,1
1511885746725126,0,-1,-8,0,23,-6,0,-1
1511885746733975,-2,2,6,-4,-8,10,-2,3
1511885746733975,-4,-2,-3,0,-4,-2,-2,-2
1511885746740990,-1,1,1,-2,-12,0,4,1
1511885746740990,0,0,-2,3,11,2,-3,-2
1511885746749011,1,0,4,-2,-9,5,-1,-1
1511885746749011,-2,-3,-2,2,-1,-6,1,-3
1511885746755030,-1,3,2,1,2,2,-2,-1
1511885746755030,-1,-3,-6,-3,-4,3,0,-2
1511885746764054,-2,1,5,5,-9,-1,-2,-3
1511885746764054,-2,-1,1,2,6,10,1,0
1511885746778087,0,-2,-2,2,15,6,1,0
1511885746778087,0,-2,-5,-7,-16,2,-1,-2
1511885746787112,-1,2,-3,0,7,2,-1,1
1511885746787112,0,0,2,3,13,7,-2,3
1511885746800191,-1,0,1,-1,0,1,-2,-2
1511885746800191,-1,0,-4,-4,-3,-9,-4,-2
1511885746809189,2,-1,2,0,2,-5,-4,-1
1511885746809189,-1,-1,-1,4,16,11,2,0
1511885746815188,0,0,-2,-2,-10,-5,-4,-2
1511885746815188,-1,-2,-3,-1,-9,4,1,-1
1511885746824216,0,-1,1,1,-9,-21,-2,0
1511885746824216,0,-2,-3,-3,10,6,-1,-1
1511885746838383,-1,-1,3,-5,-11,-4,-2,-1
1511885746838383,-3,1,-4,0,1,-5,0,-1
1511885746847279,-3,1,-4,1,15,24,0,0
1511885746847279,-4,-2,-2,2,6,-7,2,-1
1511885746860427,-3,-4,2,3,-3,-5,-1,-2
1511885746860427,-1,-1,2,-5,-15,-11,-2,-1
1511885746877352,2,1,1,-7,8,3,2,0
1511885746877352,2,-1,1,-3,-7,4,1,0
1511885746878355,1,3,-3,-5,-8,-8,0,0
1511885746878355,-1,0,-2,12,-3,-3,0,-1
1511885746884371,1,-3,5,0,8,3,-1,0
1511885746884371,2,1,0,-1,-7,-4,-3,-1
1511885746898443,1,-1,-5,0,25,17,1,0
1511885746898443,-2,-5,-5,-11,-7,-6,-1,-2
1511885746907460,0,-2,3,5,-13,-4,1,1
1511885746907460,-1,2,1,2,3,4,1,1
1511885746920500,-2,-2,-6,-3,-2,-24,-4,-2
1511885746920500,-1,6,12,-9,-10,4,-3,1
1511885746929521,-1,-4,-13,5,-4,-16,1,-2
1511885746929521,0,0,3,0,-1,1,-1,-2
1511885746935721,-1,-3,-2,3,-6,-1,1,2
1511885746935721,-1,1,0,-1,-7,-20,-2,-1
1511885746944789,-3,-1,0,-8,-6,-4,-5,-2
1511885746944789,-1,0,-2,-3,-9,-13,-3,-3
1511885746957993,0,0,4,-1,-11,-17,-1,0
1511885746957993,-1,-2,-5,-1,-6,-3,-1,-3
1511885746966846,-2,0,2,-3,-3,-1,0,-2
1511885746966846,0,-3,-2,1,34,-2,2,2
1511885746980887,-2,-1,0,-3,-38,10,0,0
1511885746980887,-1,-2,-3,-1,-18,-7,1,0
1511885746988933,-2,1,0,5,3,-4,0,-3
1511885746988933,2,0,2,1,-1,3,0,-1
1511885746994921,-2,-2,0,1,10,1,0,0
1511885746994921,1,-1,-3,1,5,0,-1,0
1511885747004055,2,2,17,-3,19,22,2,1
1511885747004055,-2,-10,-41,-12,-13,5,1,0
1511885747018089,-1,0,8,4,12,1,-1,0
1511885747018089,-1,-1,1,9,0,-27,-2,-1
1511885747027006,-2,-1,2,-1,-13,12,0,-1
1511885747027006,-3,3,9,-2,-5,3,1,0
1511885747041044,0,-1,-10,-10,4,-4,-1,-2
1511885747041044,-1,-1,-1,0,5,2,-2,0
1511885747049091,-1,-1,-2,-5,-13,-5,1,-1
1511885747049091,1,0,1,-1,-9,-1,-4,-1
1511885747064129,-2,-3,-4,1,18,16,3,0
1511885747064129,-2,-2,-1,-6,-44,-17,0,-2
1511885747066110,0,2,-2,2,56,21,0,0
1511885747066110,0,1,2,1,-56,1,1,-2
1511885747078261,0,-2,1,3,12,6,0,-2
1511885747078261,2,-1,-2,-12,4,10,1,1
1511885747087168,0,0,-1,12,11,-6,0,-1
1511885747087168,-2,0,9,9,-10,-13,-3,-2
1511885747100204,1,-1,0,-3,-3,-1,-2,0
1511885747100204,-1,-1,-3,-2,5,9,0,-2
1511885747109224,-3,-3,-5,-12,-31,-15,-1,-2
1511885747109224,-1,0,5,3,35,18,2,0
1511885747124378,-1,-1,-3,1,2,12,1,-1
1511885747124378,0,1,0,1,16,14,-2,-1
1511885747126270,0,-1,0,0,9,6,-1,0
1511885747126270,0,-1,0,-2,-18,2,1,-1
1511885747138395,-1,-1,-2,0,13,0,0,0
1511885747138395,-1,-1,-1,6,14,6,1,1
1511885747146681,-1,-1,-1,-2,-16,-2,-1,1
1511885747146681,-1,0,0,-2,9,-6,-1,0
1511885747160690,-3,-1,1,-4,-14,-14,-2,-1
1511885747160690,0,-2,0,0,-8,-18,-4,-1
1511885747167708,-1,-3,-9,-9,-21,-19,-2,-2
1511885747167708,0,-2,0,0,24,0,0,0
1511885747184753,-1,1,1,3,-9,-11,2,0
1511885747184753,0,0,0,4,13,7,-11,-1
1511885747185756,-1,0,-1,-3,-1,-6,-1,-1
1511885747185756,-1,0,-1,6,12,0,-4,-1
1511885747197791,0,-1,1,-4,3,0,0,-1
1511885747197791,-2,-3,-2,1,-6,-2,4,-1
1511885747206813,0,0,-3,-4,4,2,0,-1
1511885747206813,0,0,0,-7,-2,4,1,-2
1511885747220852,0,-1,-1,11,-5,-4,1,-1
1511885747220852,-1,0,1,-4,23,2,3,0
1511885747227871,0,-3,-2,0,-9,12,-1,-2
1511885747227871,0,1,2,5,15,-13,-4,-2
1511885747244090,1,0,0,-6,-24,0,-1,-1
1511885747244090,-2,-1,-2,1,-7,3,4,-1
1511885747245916,-1,-1,1,1,9,1,-1,1
1511885747245916,-2,0,-5,-1,-9,-9,-2,-1
1511885747257951,-2,-1,-2,-6,-9,-44,-4,-2
1511885747257951,-1,0,-2,-3,-17,-17,-3,-1
1511885747266972,-2,0,0,-2,4,13,1,-1
1511885747266972,-1,-1,-2,-5,-9,-3,19,-1
1511885747281012,-2,1,-1,0,4,3,-51,0
1511885747281012,-1,-3,-2,-1,-2,4,18,-2
1511885747288031,0,-1,-2,1,5,-8,0,-1
1511885747288031,-2,-1,2,0,-8,-2,0,-1
1511885747304074,-1,1,-3,0,-3,11,7,1
1511885747304074,-2,-2,-2,-2,-2,2,-6,-1
1511885747306076,1,1,1,1,-1,-7,-4,-1
1511885747306076,-1,-2,-2,-3,-6,-8,-4,-1
1511885747318415,-3,-4,-1,1,11,30,7,-2
1511885747318415,1,-1,1,-5,1,9,-5,1
1511885747327280,-2,-2,0,11,-17,-22,10,-2
1511885747327280,0,-1,-1,-5,-5,-16,-9,2
1511885747340363,2,0,-2,-2,7,-4,5,-2
1511885747340363,-1,0,0,-4,4,-6,-1,0
1511885747349309,-1,0,-2,-1,23,-7,-5,0
1511885747349309,1,-1,-2,-2,4,10,-3,-2
1511885747364456,-2,0,0,0,-14,-8,8,-1
1511885747364456,0,-2,1,4,1,3,1,2
1511885747366360,1,-1,-1,1,-6,-1,-5,0
1511885747366360,-2,-1,0,0,-7,-5,-1,0
1511885747378388,0,1,2,-2,12,0,15,-2
1511885747378388,1,1,-2,1,-18,-28,-18,2
1511885747386425,-1,-2,1,-3,-8,-1,2,0
1511885747386425,-1,-2,-2,-6,13,23,-3,-1
1511885747400488,-1,-1,1,5,-11,-23,5,-3
1511885747400488,-1,1,1,0,3,10,5,-1
1511885747409470,-2,-3,-3,-4,-2,-3,-8,-2
1511885747409470,0,-1,-3,-1,-2,0,9,1
1511885747424512,-1,-2,0,-2,7,4,0,1
1511885747424512,0,-1,-2,-2,-14,-1,-7,-2
1511885747425516,0,2,1,3,11,5,4,1
1511885747425516,-1,0,0,-4,-6,-5,-2,1
1511885747437766,1,0,-2,-3,10,11,-4,2
1511885747437766,-3,-3,-2,-1,0,-1,9,-3
1511885747446597,-1,0,0,-1,0,2,0,-1
1511885747446597,0,-1,-3,1,-2,-27,-7,-1
1511885747460799,-5,-1,-2,-1,-8,7,7,-1
1511885747460799,0,2,0,4,2,3,-32,-1
1511885747469658,0,-2,0,-2,6,0,64,1
1511885747469658,1,1,1,4,1,-6,-4,0
1511885747484706,1,0,-1,-2,10,5,-2,0
1511885747484706,0,-1,-2,-3,-1,1,8,1
1511885747485700,0,1,-2,-6,-7,-4,-20,-3
1511885747485700,-2,1,4,11,-1,8,4,0
1511885747497876,0,-3,-3,-2,3,-8,1,-2
1511885747497876,0,1,-2,2,5,15,-1,1
1511885747506897,0,0,2,4,12,19,-9,1
1511885747506897,-1,0,-1,-7,-19,-17,-10,-2
1511885747520964,-4,-2,0,3,33,10,-6,0
1511885747520964,0,-1,-2,3,8,5,12,0
1511885747528956,3,-1,1,-8,-26,-1,6,-2
1511885747528956,-2,-1,0,-3,2,5,-15,-2
1511885747544218,-5,-1,-1,0,-10,-8,10,0
1511885747544218,2,-2,-1,-3,3,-4,-20,0
1511885747546126,-1,-1,-1,1,3,-3,0,0
1511885747546126,0,-3,-1,-3,3,0,5,-1
1511885747590242,2,-2,-3,-5,-10,-5,2,0
1511885747590242,-2,1,0,1,3,0,11,0
1511885747592247,-3,-2,-2,-3,-21,-2,-16,-1
1511885747592247,0,-2,-3,-5,-9,-38,-4,-4
1511885747603392,1,0,-2,-1,-2,2,-6,-1
1511885747603392,-1,-1,0,-3,18,-4,3,-2
1511885747612306,0,2,1,2,-18,0,-10,-2
1511885747612306,-3,0,-1,-2,18,41,8,2
1511885747626576,0,-1,2,7,-3,-2,-1,-3
1511885747626576,-4,-3,-2,-2,-6,5,13,-2
1511885747628465,-2,0,-1,-1,4,-1,-8,0
1511885747628465,-1,1,1,2,12,20,11,4
1511885747641561,-1,-2,-1,-6,-5,11,18,3
1511885747641561,2,1,1,4,15,36,3,3
1511885747641561,0,-1,-2,3,22,29,-34,0
1511885747641561,-1,2,1,3,7,13,28,-3
1511885747656542,3,2,-1,-3,-9,-2,-7,0
1511885747656542,1,3,5,6,11,1,3,0
1511885747662556,4,1,3,0,2,1,5,-2
1511885747662556,4,1,1,2,49,6,-9,1
1511885747670577,1,-1,-2,0,-28,-2,-9,0
1511885747670577,2,1,1,-5,4,-5,3,0
1511885747679602,0,1,-1,-1,-14,-30,0,1
1511885747679602,0,-1,0,0,-1,-7,-4,2
1511885747694639,-2,-1,2,0,5,0,2,-2
1511885747694639,-1,0,-2,-1,-5,-8,1,-1
1511885747695641,0,-1,-2,-2,3,-20,2,0
1511885747695641,0,1,0,-2,-25,-17,7,-1
1511885747707862,3,2,2,0,13,-1,-21,2
1511885747707862,-1,-1,0,-4,-16,-25,-5,4
1511885747716697,0,1,2,1,14,-2,5,-1
1511885747716697,-1,-1,-3,-2,-35,-4,5,-1
1511885747731740,0,2,1,-2,-23,-28,1,-2
1511885747731740,-2,-1,2,0,3,-13,6,-1
1511885747733745,1,2,2,5,26,22,8,3
1511885747733745,4,-2,0,-5,-23,-28,-10,3
1511885747754827,-4,-1,0,1,13,-17,5,-3
1511885747754827,-1,1,-1,-3,-15,-33,-3,0
1511885747755804,-2,0,-2,-6,-15,-17,4,-1
1511885747755804,1,2,1,5,11,-9,-5,-1
1511885747767944,1,0,3,0,-13,-27,-4,2
1511885747767944,1,1,-3,0,13,-3,11,-1
1511885747776857,0,-3,3,6,-1,-5,-3,-2
1511885747776857,3,0,-6,-4,0,-26,-5,-2
1511885747792080,0,1,1,0,24,6,8,0
1511885747792080,0,3,-3,-2,-22,-26,-10,-2
1511885747793057,-2,-4,-4,-7,12,-23,-2,-4
1511885747793057,-4,-4,-3,-1,-12,3,9,0
1511885747813958,1,1,-2,-1,6,-2,5,1
1511885747813958,-5,-3,1,0,2,-22,-32,-5
1511885747815961,-2,0,-3,-6,5,-22,1,-1
1511885747815961,-3,-3,0,5,-3,-13,2,-2
1511885747827994,2,1,11,-4,13,-5,1,1
1511885747827994,-1,-6,-21,3,6,13,7,-1
1511885747837017,-6,0,-6,-11,-13,-20,-1,-2
1511885747837017,-1,2,8,14,-18,-3,-9,-2
1511885747844060,-1,4,20,8,14,8,5,2
1511885747844060,-1,-6,-31,-10,27,-7,1,-2
1511885747850055,-1,0,10,3,-14,2,2,-2
1511885747850055,0,2,-5,-7,11,11,2,1
1511885747858072,-1,-3,2,0,10,3,-4,-1
1511885747858072,0,1,14,4,-4,11,0,0
1511885747867101,1,-1,-7,1,-4,-4,-1,1
1511885747867101,0,-1,5,-4,-1,3,-6,-1
1511885747880139,-3,2,-4,-2,-13,-3,-7,-3
1511885747880139,-1,-1,3,3,-13,-3,3,0
1511885747889167,1,-1,-5,-4,19,6,5,0
1511885747889167,-1,1,5,-3,-43,-30,-7,-1
1511885747903199,-3,-4,-17,-8,-2,-8,-1,-3
1511885747903199,-3,0,3,-11,-17,0,3,-2
1511885747910335,-1,5,11,15,-3,2,-3,-1
1511885747910335,1,-2,-17,-6,29,9,0,0
1511885747918234,-3,-6,-5,-2,-40,-18,-2,-1
1511885747918234,-1,2,14,-4,-4,-2,-1,0
1511885747927258,-2,-6,-36,4,0,-6,3,2
1511885747927258,-1,0,11,-5,21,3,0,-1
1511885747940295,-3,-1,-3,0,-5,-6,0,-2
1511885747940295,1,-2,2,0,32,26,0,-1
1511885747949321,1,-2,6,-6,-24,1,-1,0
1511885747949321,0,1,-6,-3,14,-12,-3,-3
1511885747963395,1,0,4,3,-9,1,6,1
1511885747963395,2,1,5,6,5,2,1,-1
1511885747970375,-2,1,0,-2,14,14,1,1
1511885747970375,-1,-3,-4,0,-14,-3,-1,-1
1511885747986421,0,0,-1,-3,8,-4,-4,0
1511885747986421,-1,1,5,0,-15,-2,1,-1
1511885747988467,0,-2,-7,-8,-2,1,4,2
1511885747988467,-2,2,8,5,17,3,-2,1
1511885748000493,0,-1,-12,-12,0,9,1,0
1511885748000493,-1,0,9,19,-11,-3,3,-1
1511885748009481,0,-1,-13,-9,10,-2,-4,-2
1511885748009481,-2,-1,-1,0,-18,2,-2,-2
1511885748023521,0,-2,-6,-5,-6,2,-2,-2
1511885748023521,-1,1,1,-5,1,-6,-1,1
1511885748030536,-2,-2,14,4,11,9,7,0
1511885748030536,0,-1,-3,-4,-1,4,-3,-1
1511885748046576,0,0,2,6,13,8,-3,0
1511885748046576,-1,0,-3,-3,0,-2,2,-2
1511885748048596,-3,2,7,2,-16,-12,0,-3
1511885748048596,2,1,-3,1,7,2,2,2
1511885748060729,-2,0,1,2,6,-2,-1,-2
1511885748060729,-3,-2,-6,-4,-6,-14,-2,-1
1511885748069642,1,2,2,3,11,-4,-5,0
1511885748069642,0,0,3,-2,7,5,2,0
1511885748083715,1,-1,0,4,6,2,-4,0
1511885748083715,-1,-2,-9,-10,-7,5,1,2
1511885748090727,-2,0,5,9,-9,-15,-5,-1
1511885748090727,-1,-2,0,0,0,2,-1,-1
1511885748106850,1,-1,-2,-2,13,15,3,1
1511885748106850,0,-3,-4,-1,2,5,1,0
1511885748108739,-1,0,1,-4,-6,-2,-1,-1
1511885748108739,-1,-1,-1,-2,6,-4,13,0
1511885748120873,-1,-1,-5,-3,-24,-5,-27,-1
1511885748120873,0,-1,-3,-5,-2,-7,4,2
1511885748129799,1,-1,3,1,-7,-6,-1,-3
1511885748129799,0,-2,0,0,-2,4,1,0
1511885748143988,-1,0,-3,-1,-11,4,5,-2
1511885748143988,-1,0,4,0,-5,-9,-2,0
1511885748150936,-1,0,0,-2,16,22,1,1
1511885748150936,0,0,-8,-4,-13,-8,-4,-1
1511885748166897,0,-1,-2,0,4,-3,3,0
1511885748166897,1,-2,2,6,7,-13,-5,-1
1511885748167900,-1,-1,0,-10,-19,10,5,0
1511885748167900,0,-2,3,6,2,3,-3,0
1511885748179931,-2,0,-1,2,5,-6,2,-1
1511885748179931,0,1,-2,-1,-2,2,0,-1
1511885748194970,1,-1,0,3,-13,-11,-1,0
1511885748194970,-3,-2,-3,-2,-4,1,1,-2
1511885748203995,9,3,-1,-5,-6,-13,-11,4
1511885748203995,1,2,2,1,12,4,7,-1
1511885748210197,-1,0,-2,-2,-12,-16,-21,-2
1511885748210197,-2,0,0,0,-1,1,-3,-1
1511885748227057,0,-2,1,1,7,6,13,1
1511885748227057,1,-1,2,5,0,11,-5,0
1511885748228057,0,-1,-9,-2,-7,-1,1,0
1511885748228057,-1,-3,8,3,2,-7,1,1
1511885748240247,-3,-1,-1,-3,3,-5,-1,-2
1511885748240247,-1,1,0,0,-13,-4,-1,-2
1511885748249112,-1,-2,-6,0,-5,-4,4,-3
1511885748249112,-1,-2,-9,-6,2,-5,-3,-3
1511885748263153,-4,-2,6,0,-9,-5,2,-4
1511885748263153,-2,0,-7,-10,-19,-8,-2,-1
1511885748270172,2,1,7,0,16,3,3,1
1511885748270172,-2,-1,-2,-1,-16,2,-2,-1
1511885748287221,-1,0,-4,-6,-14,-23,-3,-1
1511885748287221,-1,-3,5,6,35,20,2,0
1511885748288218,-2,-1,-4,0,-3,-5,-1,1
1511885748288218,2,1,2,1,18,19,3,3
1511885748300259,-3,-1,0,1,15,3,3,-1
1511885748300259,1,0,-1,0,-4,3,0,1
1511885748309323,-1,-1,-7,-1,-1,-5,2,-1
1511885748309323,-1,-3,3,-3,-13,-4,-1,0
1511885748323318,-1,0,-1,-4,0,8,1,0
1511885748323318,-1,-2,-3,4,-1,-6,6,0
1511885748330464,1,1,3,0,10,3,-15,-2
1511885748330464,0,2,-4,-3,-11,-10,-3,-1
1511885748346430,-1,-1,-2,-2,1,-4,-2,-2
1511885748346430,-2,-3,-4,-4,-9,-1,-1,-1
1511885748348380,-2,-2,3,0,-7,-4,6,0
1511885748348380,-1,0,-2,-3,2,-6,-2,0
1511885748360529,0,-2,-3,0,-1,7,3,0
1511885748360529,0,0,-3,-10,12,1,-2,-1
1511885748369432,-3,-1,7,-3,-13,-15,-4,-3
1511885748369432,-2,0,3,32,10,2,-5,-1
1511885748383522,1,-2,4,4,9,0,7,1
1511885748383522,0,-2,-9,-2,-12,1,0,0
1511885748390647,1,0,-2,-10,2,-6,4,0
1511885748390647,1,0,6,-12,-1,-5,1,-2
1511885748406861,-2,-1,-8,3,-3,-4,-4,-3
1511885748406861,-1,1,7,-1,-6,-5,-4,-2
1511885748408721,-1,-4,-9,-2,1,0,0,1
1511885748408721,1,0,-1,-3,9,3,1,1
1511885748420873,-1,-1,0,2,-3,-3,-1,1
1511885748420873,0,-1,2,-5,-4,1,-2,0
1511885748428896,-2,-1,-2,0,-3,8,0,1
1511885748428896,-1,-1,-4,-8,8,9,4,1
1511885748444035,-2,0,-2,10,0,-8,-2,-1
1511885748444035,-2,-1,-2,-1,-1,1,-1,1
1511885748450072,-1,-1,7,5,0,-2,1,-2
1511885748450072,-1,-1,-3,-6,-8,-2,1,1
1511885748467000,0,-1,-3,-10,-5,-1,-4,-3
1511885748467000,0,1,3,3,-3,-5,-1,-2
1511885748468003,1,-1,3,4,9,10,11,-1
1511885748468003,0,-1,-4,-4,5,-7,-15,-4
1511885748480035,-2,-2,-3,-9,-12,-7,1,1
1511885748480035,-2,0,-3,1,-17,-6,-3,-3
1511885748489055,2,2,8,-6,5,1,0,0
1511885748489055,0,-3,-7,11,-5,-5,3,0
1511885748504327,-4,1,6,4,13,-3,1,-1
1511885748504327,-1,-1,0,-3,0,-2,-1,0
1511885748512395,-2,1,-3,-3,-13,-11,-2,0
1511885748512395,-2,-2,-3,-2,6,5,1,-1
1511885748526708,0,-2,-4,-6,-8,1,0,-1
1511885748526708,0,-1,2,1,3,-6,1,-1
1511885748528615,-1,0,2,4,5,4,-3,-2
1511885748528615,0,-2,0,-5,-20,-26,0,0
1511885748540725,1,0,-2,2,5,8,-2,-2
1511885748540725,-2,-1,-1,6,1,4,-1,-1
1511885748549674,-1,-1,0,-4,0,-3,0,0
1511885748549674,-1,0,0,0,1,-2,-1,-3
1511885748563711,0,-3,0,-2,8,2,0,0
1511885748563711,-1,-2,-5,-15,4,4,0,-1
1511885748570729,0,-5,-18,-13,3,2,-1,1
1511885748570729,-1,0,5,21,2,20,3,-1
1511885748586770,1,-1,-4,-9,-5,-9,4,-1
1511885748586770,0,-2,2,9,4,1,-1,0
1511885748588775,-1,-3,-5,-8,-7,-2,-2,-2
1511885748588775,1,0,-1,-11,-10,1,1,0
1511885748600810,-1,0,2,8,2,0,-3,-1
1511885748600810,-1,-3,-1,-5,-14,-13,-1,-2
1511885748609858,0,-2,-6,-6,-6,-2,-3,-3
1511885748609858,-3,-3,1,3,14,2,-1,-2
1511885748624070,0,3,1,3,-17,-1,-4,0
1511885748624070,0,1,2,0,6,-13,-1,0
1511885748630890,-1,-2,-1,2,5,1,-2,0
1511885748630890,-1,1,5,6,-12,-6,-3,-1
1511885748646932,-3,-3,-9,-2,-4,-3,-2,-2
1511885748646932,-2,0,1,-1,-1,-1,-3,0
1511885748647935,-1,2,4,7,9,16,3,1
1511885748647935,-2,1,-2,-5,10,2,-1,-2
1511885748660114,0,0,4,3,11,12,2,0
1511885748660114,1,-2,-5,0,-13,17,5,1
1511885748669996,-3,-2,3,7,29,2,-2,-1
1511885748669996,-1,0,-2,-15,-27,-4,-1,0
1511885748684031,0,-2,-1,-7,8,-7,1,0
1511885748684031,-1,2,1,10,15,8,-1,0
1511885748690047,0,2,2,-1,-20,-9,-2,-1
1511885748690047,0,0,-5,-3,5,0,0,0
1511885748707281,-1,-4,-1,-5,-11,0,0,-2
1511885748707281,0,-2,-8,-7,-1,-2,-1,-2
1511885748708121,-2,1,5,-1,-5,-7,-3,-1
1511885748708121,-1,0,-12,2,8,0,3,1
1511885748720317,-1,0,1,11,-5,-8,1,0
1511885748720317,1,-1,5,-4,0,-9,-2,0
1511885748729148,0,0,-1,4,-3,1,-1,-2
1511885748729148,-1,-4,-1,-6,2,11,0,-1
1511885748743294,1,3,0,-5,-7,4,2,0
1511885748743294,1,0,1,3,2,-1,0,-2
1511885748750204,-1,-1,-3,-2,0,0,-1,1
1511885748750204,2,1,2,-10,0,2,-1,0
1511885748766280,0,-2,1,1,8,-1,-1,-1
1511885748766280,-1,-1,2,5,-5,-7,-3,-4
1511885748773273,0,-1,-11,-3,-14,-9,0,-2
1511885748773273,-1,0,12,1,0,-4,-1,-1
1511885748780331,-2,-2,-8,0,1,-4,-1,-1
1511885748780331,1,-1,-1,2,8,-8,-2,1
1511885748789309,0,-2,3,1,-7,1,1,0
1511885748789309,0,-2,-4,-6,-17,-24,-1,-1
1511885748803380,0,1,9,4,-11,10,1,0
1511885748803380,-1,-2,-17,-3,20,14,1,1
1511885748810406,-3,2,-3,-4,-7,-5,-2,-1
1511885748810406,-1,1,2,5,-2,-2,-3,-3
1511885748826449,-3,0,5,-6,-3,-7,0,-2
1511885748826449,-1,1,6,4,-8,-4,0,-1
1511885748833425,1,-1,-1,-4,1,1,-1,0
1511885748833425,0,-1,-3,0,-16,-4,0,-1
1511885748840447,1,1,-2,4,3,2,-1,-2
1511885748840447,-2,0,2,-3,0,-5,-3,-1
1511885748849467,-2,-1,10,-4,1,2,0,-2
1511885748849467,-1,3,13,15,20,-3,3,4
1511885748863508,0,-7,-30,-9,12,-8,0,0
1511885748863508,0,1,7,-3,-14,-5,0,2
1511885748870526,1,0,5,3,9,3,-1,-1
1511885748870526,-2,-3,-2,-6,-2,-12,-5,-3
1511885748886570,0,2,9,4,14,0,-3,-2
1511885748886570,-3,-1,-5,-3,-8,-9,-1,-2
1511885748892585,-1,-2,0,1,2,-3,1,1
1511885748892585,0,0,1,-2,22,10,0,-1
1511885748900793,0,1,-8,5,-15,-3,-3,-1
1511885748900793,-2,-1,0,-4,-10,-14,-4,-2
1511885748909629,-1,-1,0,-2,13,14,2,-2
1511885748909629,0,-2,0,3,-2,0,2,-2
1511885748923853,-1,1,5,-5,-4,0,-2,-1
1511885748923853,1,0,-5,0,5,11,-1,0
1511885748930686,2,1,2,5,14,9,1,-1
1511885748930686,0,0,1,5,2,8,1,-2
1511885748945727,-1,-3,-1,-6,-5,-4,-4,-3
1511885748945727,-2,0,12,-4,-2,-2,0,-1
1511885748952746,1,-2,-23,3,-1,-5,-1,0
1511885748952746,-2,0,-2,-6,5,2,-2,-1
1511885748968906,0,1,4,2,-8,4,2,2
1511885748968906,2,-3,-4,0,0,0,0,-1
1511885748970791,-1,-1,4,-2,-13,-2,-1,-2
1511885748970791,0,2,1,3,18,7,2,1
1511885748983828,-2,-2,0,-4,-16,-4,-1,-3
1511885748983828,-3,-3,-2,8,2,-4,-1,-2
1511885748990850,0,0,-1,-4,-2,-1,0,-1
1511885748990850,0,-2,-9,-10,-11,2,-1,0
1511885749005885,1,2,11,9,7,0,-1,-1
1511885749005885,-1,0,-2,-2,-1,0,0,-1
1511885749012902,-1,1,18,3,1,3,-2,0
1511885749012902,-2,-1,-22,-7,-3,-3,-1,-1
1511885749028948,-1,-2,-3,-5,-1,-10,0,-1
1511885749028948,-1,-3,-4,-5,-7,-4,-2,-3
1511885749030950,2,1,4,2,2,-1,1,2
1511885749030950,4,4,19,5,-5,4,0,3
1511885749044083,0,-3,-5,-5,0,-3,-2,0
1511885749044083,-1,0,-5,2,-5,-5,0,-2
1511885749050093,-1,-1,-2,-6,2,-10,-3,-1
1511885749050093,-2,0,-8,-4,-13,-1,0,-3
1511885749066046,1,1,5,12,62,13,1,0
1511885749066046,0,2,13,-6,-1,7,2,3
1511885749073183,-2,-6,-19,6,-6,-5,0,-1
1511885749073183,-2,-2,-10,-4,3,-7,-1,-2
1511885749089106,-1,0,2,-2,-17,-4,-2,-2
1511885749089106,2,3,5,-6,0,-8,0,0
1511885749091112,-3,-3,7,4,6,6,-2,-1
1511885749091112,0,-2,5,5,6,3,2,-2
1511885749103142,-3,-3,-8,-7,-11,1,0,-3
1511885749103142,-2,-5,-15,-3,3,0,1,-1
1511885749110164,0,5,8,1,-14,-15,-3,-2
1511885749110164,-1,-6,-10,-4,-1,6,1,-1
1511885749126383,1,4,12,3,-1,6,0,2
1511885749126383,2,-2,9,2,-1,-1,-3,-1
1511885749133225,-2,-6,-32,0,3,-7,0,-2
1511885749133225,-3,0,15,0,9,-9,-3,-3
1511885749149267,0,0,-8,-6,-21,-4,0,0
1511885749149267,5,16,11,8,1,5,-3,2
1511885749151368,0,-6,9,0,2,3,1,1
1511885749151368,-10,-17,-11,1,5,-1,0,-3
1511885749163305,-2,0,-10,-7,-5,-5,-2,-4
1511885749163305,-1,-6,-10,-5,1,-16,-4,-4
1511885749170323,0,7,31,4,-4,-6,-2,-2
1511885749170323,5,4,-23,1,-7,15,4,2
1511885749186363,0,-2,8,-2,-5,0,2,1
1511885749186363,2,-1,0,1,-21,-6,-1,1
1511885749193382,0,0,0,0,0,-4,0,0
1511885749193382,1,-1,1,-1,7,-2,-4,1
1511885749209614,3,4,0,12,-17,-6,3,2
1511885749209614,-2,-5,-3,2,12,2,0,0
1511885749210595,-7,-12,-5,-3,-3,-3,-2,-4
1511885749210595,-3,0,-3,-4,-5,-8,-1,-4
1511885749222460,2,2,2,-3,7,0,-2,-1
1511885749222460,-1,2,-1,-2,0,-2,2,0
1511885749231486,0,-7,-8,-4,-3,-5,1,0
1511885749231486,-2,4,17,0,-2,15,1,2
1511885749246524,-2,-6,-15,-7,5,-8,-2,-2
1511885749246524,-2,-6,1,1,-1,-3,-2,-2
1511885749252540,2,8,0,4,2,9,0,1
1511885749252540,2,2,10,-3,3,-2,-1,0
1511885749269585,-1,-3,-4,0,6,-2,0,0
1511885749269585,-3,-2,-11,-8,-1,-1,-1,-3
1511885749270588,-1,5,-2,-5,9,0,0,-1
1511885749270588,4,4,5,0,-2,-2,-3,0
1511885749282622,-4,-8,4,7,-7,2,1,0
1511885749282622,-3,-3,-3,-3,9,-13,-1,-3
1511885749299665,0,-2,-2,0,-4,2,0,-2
1511885749299665,-3,-19,-7,-5,-10,-8,-2,0
1511885749305683,-3,0,0,-3,9,-6,-5,-3
1511885749305683,-1,5,14,2,1,10,2,-1
1511885749312699,2,6,-27,-7,-12,-11,-3,-1
1511885749312699,1,1,-4,1,-2,-6,-2,-1
1511885749329744,2,-1,5,5,-1,16,6,1
1511885749329744,2,1,0,-5,0,-4,1,2
1511885749330747,2,0,-5,-2,-8,1,2,2
1511885749330747,-1,1,2,-1,-2,-10,-6,-3
1511885749342782,-2,-2,-1,-5,-2,0,-8,0
1511885749342782,0,2,-8,-3,-7,1,4,-2
1511885749351803,-2,-4,8,6,10,10,2,0
1511885749351803,-3,-5,-8,-2,3,-9,-1,-2
1511885749365844,5,37,17,4,-7,-2,-4,-2
1511885749365844,-2,-34,-21,-3,-10,1,0,-1
1511885749372859,-11,-22,-1,-4,64,2,-2,-3
1511885749372859,1,14,9,-4,-86,-21,-1,-1
1511885749389033,-1,-1,-8,-4,12,13,2,1
1511885749389033,3,20,11,6,3,0,0,3
1511885749390909,4,7,4,-5,-9,-1,2,2
1511885749390909,-3,-7,-6,10,21,1,0,0
1511885749402939,-3,-5,-3,-11,-2,-10,0,-1
1511885749402939,-2,1,6,3,-14,1,-2,-2
1511885749411963,-1,-5,-10,-4,-9,-1,0,0
1511885749411963,0,3,-1,-5,14,9,-1,-1
1511885749434026,2,-4,2,6,-13,-10,0,1
1511885749434026,-2,-1,1,-10,14,4,-3,1
1511885749436027,-1,4,7,6,-18,-4,-1,-3
1511885749436027,1,0,-14,-5,6,0,0,-2
1511885749449065,-3,-8,3,2,4,-4,0,-1
1511885749449065,-2,-6,-5,7,3,-7,-1,-2
1511885749451067,0,8,0,-8,-18,-3,-1,1
1511885749451067,2,3,7,1,4,-2,2,1
1511885749463232,-4,-8,-1,-2,-4,-9,-1,0
1511885749463232,-2,1,-19,-4,3,-1,0,0
1511885749472258,4,5,11,3,3,6,2,1
1511885749472258,-2,-6,1,-6,0,1,-2,-2
1511885749486423,-2,-4,-3,8,7,2,1,-1
1511885749486423,2,10,23,3,-11,1,1,-1
1511885749492439,-1,-6,-32,-14,-14,-1,-2,0
1511885749492439,-1,0,6,4,-8,-13,-1,1
1511885749509660,1,1,6,10,40,10,1,2
1511885749509660,-1,0,-7,1,3,6,0,1
1511885749510580,0,-3,10,-1,-1,5,-1,-3
1511885749510580,0,1,0,-2,-2,-1,0,0
1511885749522518,-1,-4,-7,-9,-10,-8,-5,-1
1511885749522518,-1,-1,1,1,3,-1,-1,-1
1511885749531682,-3,1,6,2,-2,-6,-3,-1
1511885749531682,0,4,2,3,3,-2,2,1
1511885749546579,0,-2,-12,-7,-5,10,2,0
1511885749546579,-3,-3,-7,0,2,-5,-1,-2
1511885749552596,-1,0,8,-2,-12,-1,-2,0
1511885749552596,-3,-2,-9,3,9,-5,-2,-2
1511885749569641,-3,-3,3,-8,-37,-12,-4,-2
1511885749569641,0,2,6,2,31,6,0,1
1511885749570644,-2,1,10,7,-4,-6,1,-2
1511885749570644,-1,-3,-8,-2,0,14,2,-2
1511885749582676,-1,-1,-4,-6,-3,-11,1,-2
1511885749582676,-1,-2,-5,-4,15,10,-1,-2
1511885749591700,0,3,9,-1,-14,-6,-3,0
1511885749591700,1,-3,0,-2,4,0,1,0
1511885749605785,-1,-1,-4,-3,-12,-10,-2,-1
1511885749605785,-1,-3,-1,-1,-2,11,2,1
1511885749612756,-1,1,-4,-1,8,2,1,0
1511885749612756,-1,0,2,6,-4,1,-1,-1
1511885749628800,1,0,1,0,4,-3,0,-1
1511885749628800,0,-2,-3,-1,-9,-15,-2,-1
1511885749630804,2,-1,-2,-3,1,5,2,1
1511885749630804,-5,-1,1,-8,-11,-7,-2,-1
1511885749642836,-3,0,-10,0,12,1,-1,1
1511885749642836,-1,0,9,4,-24,-1,1,1
1511885749651861,2,-2,-5,-2,-5,-3,-1,0
1511885749651861,0,-1,2,7,20,-1,0,-1
1511885749665900,1,2,12,2,12,5,-1,0
1511885749665900,0,-4,-8,-4,-13,-26,-3,-2
1511885749672916,-1,-4,-19,-4,29,-2,-1,0
1511885749672916,0,5,21,5,-20,11,-2,2
1511885749689037,-1,-5,-24,-6,2,-3,-2,-2
1511885749689037,0,2,4,-1,4,8,1,-1
1511885749694976,-1,0,7,8,5,0,0,-2
1511885749694976,0,0,-7,-4,8,-6,-1,0
1511885749712021,0,-1,5,-2,-8,4,1,0
1511885749712021,0,0,-2,-2,1,6,0,0
1511885749713023,0,0,-4,-1,-4,4,-2,0
1511885749713023,-1,-1,-2,-6,2,1,-2,-2
1511885749726246,1,0,9,6,-10,4,-1,0
1511885749726246,-3,-2,-7,-3,2,-1,0,-1
1511885749733079,-2,1,0,1,-1,-2,-1,-3
1511885749733079,-1,-1,-5,-2,-1,-2,2,-1
1511885749748119,0,0,4,-1,-7,-4,0,0
1511885749748119,1,1,-5,-2,6,-2,-2,1
1511885749755138,0,-1,2,-1,-17,-10,1,0
1511885749755138,0,-1,-2,0,11,2,0,0
1511885749763284,-1,-2,-2,-7,-14,-13,-2,-3
1511885749763284,0,0,-4,3,-3,0,-1,0
1511885749772309,-2,0,2,7,-4,3,0,0
1511885749772309,2,-1,-2,-1,5,4,-1,0
1511885749786349,-1,-2,3,-1,4,1,0,-1
1511885749786349,-2,-3,-2,-6,-16,-1,-2,-4
1511885749792364,-1,-2,1,-5,-2,0,-1,-1
1511885749792364,-1,-2,-1,10,4,4,1,-1
1511885749808525,-1,0,-4,-8,9,-5,-4,0
1511885749808525,0,-1,2,4,-15,-1,0,1
1511885749815465,-1,0,-2,-4,-10,-6,-1,0
1511885749815465,0,2,4,-5,6,5,-3,2
1511885749823447,-1,-6,-10,7,8,6,2,-2
1511885749823447,-2,2,2,0,19,2,1,-1
1511885749831495,-3,-2,-6,1,-8,-4,1,-3
1511885749831495,-1,-2,-1,-4,15,4,-1,-1
1511885749846509,0,1,4,3,-26,3,2,2
1511885749846509,0,-2,-2,-4,3,3,1,-1
1511885749852524,0,2,6,1,-1,-1,-2,1
1511885749852524,0,0,0,-4,0,-5,1,-3
1511885749868566,-1,0,-6,-1,-3,-5,-1,-2
1511885749868566,-2,0,-3,-3,7,-8,-2,-2
1511885749875586,0,-2,3,1,-39,-3,0,2
1511885749875586,-2,-2,-4,1,-7,-8,-3,-1
1511885749891628,1,3,0,3,21,16,0,0
1511885749891628,-3,-2,5,0,-16,-2,1,-1
1511885749893630,0,-2,-7,-6,9,-6,-2,-2
1511885749893630,1,-1,-3,-3,8,9,0,-1
1511885749906670,0,0,9,1,-5,-7,-1,1
1511885749906670,0,0,-6,-6,-6,8,-1,0
1511885749912681,-2,0,4,5,19,7,0,1
1511885749912681,-3,-2,1,-2,-16,-9,-3,-2
1511885749928891,-1,2,3,7,0,12,5,1
1511885749928891,-2,-3,-1,-3,5,-6,-1,-2
1511885749935742,1,2,-2,-7,-9,0,-4,-2
1511885749935742,-3,-4,-3,-5,-47,-51,-7,-2
1511885749951787,-2,-1,-3,1,15,4,2,-1
1511885749951787,0,2,25,-3,-1,-6,1,1
1511885749953794,-1,-3,-27,-2,3,-15,-1,-2
1511885749953794,0,0,-10,2,10,10,-1,-1
1511885749974052,0,-1,8,3,-3,-4,0,-2
1511885749974052,0,-1,-3,4,2,-8,-1,1
1511885749975951,0,3,15,-1,4,7,1,0
1511885749975951,-1,-1,2,-1,11,5,0,0
1511885749988020,-1,-3,-5,-7,-7,-7,-2,-1
1511885749988020,0,-1,-5,2,0,8,-2,-1
1511885749995039,-1,0,6,4,15,-5,-2,-3
1511885749995039,0,0,-5,-2,3,18,5,2
1511885750012085,-1,-1,5,2,2,11,0,-2
1511885750012085,-1,-3,-8,-3,-13,-15,-1,-1
1511885750013083,-2,0,0,1,22,22,3,0
1511885750013083,0,0,3,3,-7,3,0,-2
1511885750026298,-3,0,-3,-19,-15,-32,-1,1
1511885750026298,0,1,1,21,5,-6,-1,1
1511885750033139,0,-3,-6,-4,-6,-2,-2,0
1511885750033139,-1,-1,2,3,17,9,1,0
1511885750048179,1,-1,-6,-5,-8,-14,-3,-2
1511885750048179,-2,0,-5,-9,-9,8,-2,-1
1511885750055198,-2,-3,4,5,-9,-9,0,-2
1511885750055198,1,1,0,-21,3,7,3,1
1511885750072251,2,-1,0,35,13,0,-1,1
1511885750072251,-1,0,0,-4,-9,-5,2,0
1511885750073244,0,0,3,7,25,8,2,1
1511885750073244,-3,0,-3,-8,-10,0,-3,-2
1511885750086278,-1,1,1,3,10,11,2,-2
1511885750086278,-1,0,-2,-4,-11,-6,-3,-1
1511885750093388,1,0,-1,-4,1,5,-2,1
1511885750093388,-2,-2,-3,3,21,-2,2,1
1511885750108515,2,2,2,-17,-17,21,4,1
1511885750108515,0,-1,-1,13,-6,-22,-6,-2
1511885750115358,0,-1,-3,-12,-5,-5,-4,0
1511885750115358,1,0,2,13,-4,-10,-6,-2
1511885750131504,-1,-2,-3,-9,-6,-1,-2,-2
1511885750131504,0,-1,0,-1,10,25,5,0
1511885750133403,-3,-1,2,0,-10,-2,1,0
1511885750133403,-1,-1,-3,-9,-25,-48,-6,-2
1511885750145438,-2,-1,-2,-23,9,5,2,-1
1511885750145438,0,-1,5,45,2,9,-1,1
1511885750154460,-2,-1,0,7,-2,-12,-2,-1
1511885750154460,1,0,3,8,5,10,2,-1
1511885750168677,-2,-1,-1,-1,3,-2,-2,0
1511885750168677,0,-3,-10,-29,-8,1,-2,-3
1511885750175693,-2,0,0,-4,-18,-4,-1,-2
1511885750175693,0,1,4,17,5,0,2,0
1511885750191668,0,-1,-2,-2,-1,-5,-2,0
1511885750191668,0,1,-2,-7,5,-1,1,-1
1511885750193565,1,-2,-2,-6,-2,16,0,-2
1511885750193565,-1,-1,-3,3,-5,10,2,0
1511885750205595,-1,0,-1,4,8,0,-2,-2
1511885750205595,-1,0,0,-15,2,-15,-3,0
1511885750214623,1,-2,-3,7,-8,-4,0,-1
1511885750214623,-1,0,-1,-7,5,4,0,0
1511885750228656,0,0,2,4,-6,-2,0,1
1511885750228656,-2,-1,-2,-1,44,22,2,-2
1511885750235675,0,0,0,-7,10,-5,1,0
1511885750235675,-1,-2,-1,-1,-3,-4,0,0
1511885750251794,-1,-1,2,7,-4,-17,-2,-2
1511885750251794,-1,0,-3,-4,-2,19,3,1
1511885750253762,-2,2,1,-6,-6,-5,-3,-1
1511885750253762,1,-1,-1,1,4,6,-2,-1
1511885750265833,-1,-2,-4,-4,-9,-1,0,-3
1511885750265833,1,0,2,-1,-8,-15,-5,-2
1511885750272815,-2,-1,0,2,27,8,-1,0
1511885750272815,0,-1,-2,-9,-31,-14,-1,-1
1511885750288902,1,0,0,13,6,2,-2,2
1511885750288902,1,3,5,10,0,-12,3,2
1511885750294871,-1,-1,0,1,-2,-1,1,0
1511885750294871,-3,-3,-1,-6,3,0,-1,-2
1511885750312009,-2,0,-1,-3,-1,-5,0,-1
1511885750312009,0,0,-3,-1,-3,-5,0,-1
1511885750313010,0,0,-3,-5,-14,-5,-2,-3
1511885750313010,1,1,-2,3,13,8,0,0
1511885750326168,-1,1,1,-2,-1,0,-4,0
1511885750326168,-1,-2,-4,0,-8,1,-2,-1
1511885750333165,0,2,2,-4,5,2,-1,0
1511885750333165,0,-1,1,-1,7,8,2,0
1511885750349106,0,-3,-2,-4,-13,-4,0,-1
1511885750349106,1,0,-1,-3,10,1,-1,0
1511885750355149,-1,0,-2,-2,4,4,2,-1
1511885750355149,-1,0,-1,1,-8,-2,-2,1
1511885750372184,-2,-1,1,1,30,0,-2,-3
1511885750372184,-3,-2,-2,-5,15,-37,3,-2
1511885750373170,-2,-1,0,-1,-34,8,-1,-2
1511885750373170,1,3,1,2,3,4,0,1
1511885750385203,-1,-1,1,-3,-15,-28,-3,-3
1511885750385203,-4,-1,-2,6,-32,0,-4,-2
1511885750394224,0,-1,-3,-1,37,-13,-4,0
1511885750394224,-1,-2,-2,-7,-12,-6,1,-1
1511885750408382,0,0,1,4,-7,9,1,-1
1511885750408382,0,-1,-1,0,-1,7,-1,0
1511885750415320,-1,-1,-3,-5,-10,-6,-1,-1
1511885750415320,0,-1,-1,-1,-4,3,-2,-3
1511885750432330,-1,-2,1,2,3,8,0,0
1511885750432330,-1,0,0,-6,-2,3,1,-1
1511885750433329,0,-1,-2,5,-1,-3,0,1
1511885750433329,-1,1,2,9,13,4,1,-1
1511885750445360,-1,0,-2,-1,-4,-3,0,0
1511885750445360,-1,-1,-2,-5,0,5,-2,0
1511885750454385,0,-1,-2,-4,-2,1,0,-2
1511885750454385,0,-1,-1,9,5,-11,-4,0
1511885750468616,1,-3,-3,-6,-18,9,1,0
1511885750468616,0,1,2,2,-6,7,0,0
1511885750475443,-1,-2,-3,-5,-5,0,-2,-1
1511885750475443,0,-1,0,-5,4,-1,-2,-1
1511885750491659,-1,0,-1,-2,4,-1,0,-1
1511885750491659,1,-1,-3,-5,13,24,3,1
1511885750493517,0,-3,1,2,-1,9,2,1
1511885750493517,0,-3,-3,-7,-1,3,-2,-1
1511885750505629,-2,2,1,7,7,-4,-2,-1
1511885750505629,-1,-1,0,-5,-9,-2,0,0
1511885750514544,-1,-1,1,2,5,0,2,-1
1511885750514544,0,-2,1,-2,-18,5,2,3
1511885750528582,-2,-1,-3,-4,7,1,-4,-1
1511885750528582,0,-1,0,1,-5,-18,-2,-1
1511885750535758,-1,1,0,4,3,7,-2,-1
1511885750535758,0,-2,-2,-2,1,1,-1,-3
1511885750551645,0,-1,0,1,-3,0,-1,-1
1511885750551645,-2,-3,0,0,2,0,-1,0
1511885750553761,-1,2,0,-2,-13,-25,-4,1
1511885750553761,-1,0,-1,0,5,11,10,-1
1511885750565881,-1,-2,-3,-2,-3,-4,-1,1
1511885750565881,0,0,-1,-1,-7,3,-4,-1
1511885750573911,1,-3,-3,1,5,-13,1,0
1511885750573911,-2,1,-2,-4,-7,-8,-7,-2
1511885750589052,0,1,0,-4,0,0,-2,-1
1511885750589052,-1,-3,-1,14,5,9,15,-2
1511885750594873,0,-1,-1,-1,-3,-10,-35,-1
1511885750594873,-1,-1,1,1,10,2,2,0
1511885750611922,-1,-1,-3,-4,-8,-27,-5,0
1511885750611922,-1,1,-1,-8,-2,-10,0,1
1511885750612926,-2,0,3,2,3,9,9,0
1511885750612926,-2,0,0,-2,-2,-4,-5,-1
1511885750624956,0,-1,1,-2,-9,-17,1,-2
1511885750624956,2,-1,-1,-4,-26,-21,-4,-2
1511885750634201,-2,1,-1,2,6,-20,0,-1
1511885750634201,-2,-1,-1,-3,1,5,1,1
1511885750648242,-6,-1,-1,3,-3,11,3,-2
1511885750648242,4,-2,-1,-2,5,-6,-13,0
1511885750655259,3,-2,-1,-1,-8,15,22,2
1511885750655259,-1,-1,-4,-5,-5,-7,-2,-1
1511885750671483,0,0,0,3,-8,6,16,-1
1511885750671483,-2,1,2,0,6,10,-21,0
1511885750677494,-1,-1,-2,-1,0,7,6,-2
1511885750677494,6,1,-1,1,-13,-15,-11,-1
1511885750685341,3,-1,-2,-1,1,5,22,-1
1511885750685341,-15,-1,-2,-2,3,5,1,1
1511885750694365,2,-2,0,0,-4,0,-3,1
1511885750694365,4,1,2,-1,-1,-7,3,1
1511885750708401,-3,-1,-1,0,8,3,-19,-1
1511885750708401,11,1,0,-1,-2,3,17,3
1511885750715419,-5,0,1,-1,1,-1,-15,-4
1511885750715419,-9,-4,-1,-2,-2,-8,3,-2
1511885750731635,17,1,0,0,7,16,-31,-9
1511885750731635,-12,-4,-3,-3,2,-12,48,16
1511885750737478,-3,-1,-3,-2,-8,-5,-13,-34
1511885750737478,1,0,-1,0,20,8,25,-2
1511885750745673,9,-4,-4,-3,0,-8,15,4
1511885750745673,-29,4,-1,0,1,2,-46,-6
1511885750754520,8,-5,-2,0,-2,10,-8,16
1511885750754520,-16,0,0,3,25,4,-27,-17
1511885750768561,-9,-1,-1,-2,6,-32,2,2
1511885750768561,13,-2,-1,-2,-5,-10,-58,-13
1511885750775579,3,0,1,-5,-28,-11,5,37
1511885750775579,2,0,0,0,-20,-3,-14,-35
1511885750791652,6,0,1,1,8,-5,28,8
1511885750791652,-16,-2,-4,-5,-10,-25,11,0
1511885750797635,4,1,-1,-1,9,25,-34,-6
1511885750797635,11,1,0,-1,-8,9,18,19
1511885750814688,-10,1,-1,0,-1,2,-21,-6
1511885750814688,7,1,0,0,4,-1,15,-7
1511885750815688,-7,0,0,0,1,-10,7,-9
1511885750815688,-4,0,9,2,24,23,3,4
1511885750828761,-2,2,-13,-1,23,47,2,-3
1511885750828761,8,-7,8,22,-5,16,-5,-1
1511885750835761,-2,2,-1,-1,-6,-1,20,4
1511885750835761,-1,-1,14,4,-14,3,-11,4
1511885750850780,0,4,1,-5,-16,-1,-7,4
1511885750850780,5,-8,-34,-17,4,-7,18,1
1511885750857796,-3,1,0,3,7,-15,4,-4
1511885750857796,0,1,-5,-7,-16,-4,6,5
1511885750874862,-4,1,15,-2,-11,-10,-8,0
1511885750874862,1,3,23,9,-6,5,5,1
1511885750875845,0,-1,-16,-5,6,4,7,-5
1511885750875845,-2,0,4,4,3,-11,-10,3
1511885750889072,16,-4,-5,-3,-2,-1,2,3
1511885750889072,-35,-1,1,-1,12,4,5,-4
1511885750895076,2,1,9,-2,1,6,4,0
1511885750895076,0,-1,-5,1,14,16,4,5
1511885750911057,-4,-2,-5,2,8,10,-3,-2
1511885750911057,14,3,0,3,35,33,12,2
1511885750918079,0,-2,-1,-1,1,11,1,-3
1511885750918079,-4,-4,-12,-7,-18,-8,-2,2
1511885750934122,-5,-1,-2,13,4,5,-2,-1
1511885750934122,10,2,11,-19,1,6,-9,0
1511885750936124,-7,-4,-10,-9,12,-23,-1,-3
1511885750936124,5,-3,-18,55,9,-9,-4,1
1511885750948159,-3,2,11,-5,-2,-11,-1,2
1511885750948159,5,-3,-17,-27,-18,-15,0,-1
1511885750955178,-1,1,2,6,3,4,2,-2
1511885750955178,-3,-2,2,-40,42,21,5,1
1511885750971404,-3,1,7,7,-61,-8,-2,0
1511885750971404,2,-1,0,20,2,3,2,1
1511885750978334,0,2,3,-4,1,2,3,-1
1511885750978334,-1,0,1,8,3,9,-4,-1
1511885750994280,-2,1,4,-6,5,2,-1,-1
1511885750994280,8,1,-3,-3,1,-1,-2,0
1511885750996288,2,-1,6,12,-5,-1,-2,0
1511885750996288,-1,0,-1,-10,-14,-4,-1,0
1511885751008414,-4,-5,-4,7,19,13,-2,-1
1511885751008414,1,0,0,-3,-12,-5,-4,-5
1511885751015338,0,0,4,2,9,8,2,1
1511885751015338,-1,0,-3,-3,-30,-17,0,1
1511885751031380,-1,-3,-5,-11,10,-2,-2,-2
1511885751031380,0,2,5,8,-6,-16,-5,-2
1511885751037396,-4,-3,-8,-2,-5,-9,2,-1
1511885751037396,1,-1,4,-9,-5,-7,0,0
1511885751054627,-3,0,-3,-1,3,3,-2,-1
1511885751054627,0,-1,1,-2,-37,-32,-4,0
1511885751055595,-1,1,1,3,19,0,-3,-4
1511885751055595,0,-1,-2,-6,-18,-10,0,-1
1511885751068701,-1,1,-2,4,4,-7,-4,-3
1511885751068701,0,-1,-1,-2,7,9,1,-1
1511885751075718,0,-2,2,-2,-7,0,-2,-1
1511885751075718,0,-1,-1,2,2,-4,-1,1
1511885751090931,-1,-1,-5,0,6,1,0,0
1511885751090931,0,-1,1,1,6,5,2,3
1511885751097800,-2,-2,0,0,-7,-4,-1,-1
1511885751097800,-2,-1,-1,-1,4,4,-1,0
1511885751113837,-1,-2,1,-4,-7,-3,-1,-1
1511885751113837,1,-1,-2,0,6,8,1,-1
1511885751115824,-1,-2,-3,-2,-7,-1,2,1
1511885751115824,-1,-1,1,1,-3,-5,-1,0
1511885751127856,-3,-1,-1,-1,15,2,2,-1
1511885751127856,1,0,1,0,-5,8,4,0
1511885751136881,-1,-1,2,-1,-1,-1,-2,0
1511885751136881,0,0,-3,-9,12,-2,-1,-2
1511885751150945,-1,0,0,6,-10,-1,-2,-1
1511885751150945,1,0,2,2,12,-7,0,-3
1511885751158045,-2,-2,-2,-4,-19,1,-3,-1
1511885751158045,-1,-2,-1,-3,-5,-16,0,-1
1511885751174168,-3,0,-2,-4,4,5,1,1
1511885751174168,-2,0,0,-2,-3,-2,-2,-1
1511885751175985,0,-1,2,4,-1,-2,0,-1
1511885751175985,-1,-1,-6,-2,-1,-1,-1,-1
1511885751188334,0,-1,-4,-4,-3,-7,-1,-2
1511885751188334,0,-2,-2,0,1,3,0,-1
1511885751197297,1,0,4,4,2,0,0,-1
1511885751197297,-1,0,3,1,-6,2,0,-1
1511885751211339,0,1,-3,0,-1,0,0,0
1511885751211339,-1,-1,6,0,1,1,-3,-1
1511885751218399,0,-1,-3,-5,0,0,1,-1
1511885751218399,-2,0,1,5,-5,1,-1,-1
1511885751234482,-1,-2,-2,-7,-4,-5,-1,-1
1511885751234482,-2,-1,-4,-3,2,3,-2,0
1511885751235483,0,1,5,2,4,4,1,1
1511885751235483,0,1,1,9,4,9,-2,0
1511885751247516,-1,-2,-2,-2,-5,-8,-1,0
1511885751247516,0,1,-1,1,-8,-2,-1,-1
1511885751256537,-2,-3,-5,-6,-3,-6,-2,-2
1511885751256537,0,0,5,-1,2,4,0,-2
1511885751271577,0,0,2,5,8,2,1,0
1511885751271577,0,-4,-16,-8,3,5,-1,0
1511885751277593,0,1,7,6,-6,-6,-1,0
1511885751277593,-1,1,0,-2,7,-6,-2,0
1511885751294670,0,0,3,3,-9,7,0,-1
1511885751294670,-1,1,4,-2,6,-8,-2,-1
1511885751295648,0,-2,-9,-2,6,13,0,-1
1511885751295648,-2,-2,-5,0,-3,6,-1,-2
1511885751307710,-1,-1,7,-3,5,1,0,-1
1511885751307710,-1,-1,-7,1,0,1,-1,-3
1511885751316699,-2,-2,-2,-5,-4,-9,-2,0
1511885751316699,0,-1,3,3,-6,-14,-1,0
1511885751330777,-3,0,-6,-5,-3,-3,0,0
1511885751330777,2,-1,3,4,-2,1,1,0
1511885751337797,1,2,10,-4,1,-1,0,0
1511885751337797,-1,-5,-16,-1,-3,3,0,-1
1511885751353799,0,-3,7,7,-1,-11,-1,-2
1511885751353799,-2,-3,-9,-4,-4,-4,0,0
1511885751355805,1,0,2,1,8,4,-1,1
1511885751355805,-1,0,-3,-8,-14,2,-2,-1
1511885751367878,-4,-1,0,0,-1,-3,-2,-2
1511885751367878,-1,-1,4,6,-7,-13,-2,-2
1511885751376861,-2,-1,-5,-6,4,4,-1,-2
1511885751376861,2,1,5,-1,-2,3,-1,1
1511885751391011,-1,-1,-6,-4,2,-3,-1,-1
1511885751391011,1,-1,3,-7,3,2,0,0
1511885751397916,-1,-1,-9,-3,0,-5,1,-1
1511885751397916,-1,-2,2,7,0,-6,-1,-1
1511885751413959,-1,1,0,-3,0,5,0,-2
1511885751413959,-1,-1,-2,2,4,0,-1,1
1511885751415961,-1,-1,-3,-5,-9,-6,-2,-1
1511885751415961,1,-2,0,-4,0,-3,0,0
1511885751427994,2,0,-1,1,-3,8,-2,1
1511885751427994,-1,1,8,-2,-3,0,1,-2
1511885751437019,0,-3,-18,-1,-2,-4,-2,-2
1511885751437019,0,1,-3,-2,-1,-3,1,-1
1511885751451166,1,-2,3,1,0,-4,0,0
1511885751451166,-3,1,7,4,5,2,-1,0
1511885751458187,-2,-1,-1,9,-5,1,1,-2
1511885751458187,-3,0,-1,-7,3,-7,-1,-1
1511885751474422,0,0,-2,-4,0,0,1,1
1511885751474422,2,-2,-5,-4,-1,-4,-1,-2
1511885751476235,0,2,19,4,-4,1,-1,1
1511885751476235,-2,-2,-9,1,3,0,-1,-3
1511885751488270,-1,0,3,-4,2,1,0,0
1511885751488270,0,0,4,9,1,4,0,1
1511885751497295,-2,-2,-5,-6,-3,0,-1,-1
1511885751497295,1,0,15,2,1,0,1,-1
1511885751511371,0,-1,-15,-6,1,-2,-1,-1
1511885751511371,0,1,3,0,-11,-6,-2,-2
1511885751525483,-1,-1,-3,1,3,4,1,-1
1511885751525483,-1,-2,3,1,-1,-9,0,0
1511885751534433,0,2,2,4,-1,0,0,-1
1511885751534433,-1,-1,-9,-7,0,3,-3,-1
1511885751535397,1,-1,-1,1,0,-4,0,0
1511885751535397,0,0,3,-3,-1,-1,-1,0
1511885751547426,-2,0,-2,-2,-1,-2,-1,-1
1511885751547426,-2,1,-2,4,0,-5,0,0
1511885751556485,-1,-4,-5,1,1,-3,0,-1
1511885751556485,1,0,2,0,-5,4,-1,0
1511885751571511,-1,0,6,-2,-4,-3,-2,-1
1511885751571511,1,1,-6,-9,-1,4,2,-1
1511885751577547,-2,0,-2,14,7,-6,0,1
1511885751577547,0,-6,-7,-2,2,9,2,0
1511885751593599,0,0,1,0,-6,-2,-2,-1
1511885751593599,-1,1,2,-7,-2,0,-2,0
1511885751600567,0,0,1,-5,-2,-4,0,-1
1511885751600567,-1,2,-3,-1,-3,-6,-1,-2
1511885751607684,-1,-2,-6,2,-4,-3,0,1
1511885751607684,0,-2,2,0,3,-2,-1,-1
1511885751616681,0,-1,3,-3,-1,-1,0,0
1511885751616681,-1,-2,-9,-6,1,4,0,-1
1511885751630737,0,-4,4,0,1,-3,0,-2
1511885751630737,-1,1,2,4,2,-2,0,1
1511885751637781,-3,0,2,-4,-4,-1,-2,-1
1511885751637781,-1,0,-13,-2,1,0,-1,0
1511885751653786,-1,-2,-1,-6,-1,-6,-2,-2
1511885751653786,-2,-3,-12,0,-2,-7,-1,-2
1511885751660799,0,-2,4,5,5,2,2,0
1511885751660799,0,2,10,-2,-5,2,-1,-2
1511885751667820,0,0,-7,-2,-1,1,0,-2
1511885751667820,-2,-1,-2,-1,-1,-8,0,0
1511885751676841,0,0,-4,-6,-3,0,-2,0
1511885751676841,-1,-2,2,3,-1,-4,-1,-1
1511885751691062,-2,-1,-6,-6,5,-4,1,0
1511885751691062,1,-1,3,-1,-13,7,-1,0
1511885751698017,2,0,-4,-1,4,-2,-1,1
1511885751698017,0,0,3,0,2,-1,0,-1
1511885751714074,-2,2,2,3,2,-2,-1,-1
1511885751714074,-1,-3,-2,-2,-4,-3,0,-2
1511885751720961,0,0,-1,-2,-1,2,-1,-1
1511885751720961,1,0,-4,-4,-7,0,-2,0
1511885751727980,-1,0,5,6,1,0,1,0
1511885751727980,1,-1,4,1,4,-1,-2,-1
1511885751737002,-1,-1,-12,-2,-4,-1,1,-1
1511885751737002,-1,1,2,-2,1,-7,-4,0
1511885751751142,1,-1,1,-2,-3,-1,-2,-1
1511885751751142,-2,1,2,3,2,-1,-2,-1
1511885751758287,-2,-1,3,2,-1,0,0,0
1511885751758287,0,-1,-1,-3,1,2,1,-3
1511885751773229,0,-2,-4,0,-1,1,-1,-1
1511885751773229,-2,1,2,0,0,3,-1,-1
1511885751780247,-1,0,-4,-5,-2,-3,-1,-2
1511885751780247,-1,-2,-3,-4,1,-2,0,-1
1511885751796293,1,1,5,7,-5,-2,-1,-1
1511885751796293,1,0,1,4,5,1,1,-1
1511885751798294,-1,0,-8,-6,-1,-2,-3,0
1511885751798294,-3,-1,4,-3,-1,-2,-2,-1
1511885751811511,0,0,4,3,-3,2,-1,0
1511885751811511,-2,-3,-13,2,0,-7,-1,-1
1511885751817456,4,3,13,3,-2,2,0,-1
1511885751817456,-1,-5,-8,-8,1,-1,-1,-1
1511885751833502,-1,3,-1,-2,-3,-1,-1,-1
1511885751833502,-1,-10,-27,-12,-12,-6,0,0
1511885751840746,-4,-2,-5,4,-5,2,-1,-1
1511885751840746,-1,-1,4,6,-2,-2,2,0
1511885751856672,0,1,9,-6,-2,2,-2,0
1511885751856672,1,2,7,2,2,-2,2,-1
1511885751858674,-2,-2,-2,-6,0,8,0,0
1511885751858674,1,2,4,13,2,7,1,2
1511885751870709,-2,-2,-6,-1,0,-5,1,0
1511885751870709,1,-1,4,-1,1,2,-4,1
1511885751877724,-2,-2,-4,-7,-2,-3,0,-2
1511885751877724,-1,0,3,5,1,-7,1,-3
1511885751893771,-1,-3,-3,-1,-5,3,1,-1
1511885751893771,0,2,6,1,3,-2,0,0
1511885751900786,0,1,4,1,-2,-1,-1,0
1511885751900786,0,-1,-4,-3,-1,0,-2,0
1511885751915829,-1,-2,-6,1,2,-4,-1,-2
1511885751915829,1,4,16,-8,-6,3,-1,0
1511885751916829,-2,-4,-8,11,1,-1,-1,0
1511885751916829,2,2,5,5,-2,-3,0,-1
1511885751931870,-2,-2,-4,-2,1,-3,0,1
1511885751931870,0,-2,-2,-3,1,4,-1,0
1511885751937888,-1,0,7,0,3,0,-2,0
1511885751937888,0,0,-6,-3,-5,1,-2,-1
1511885751953071,-1,-1,3,4,1,-3,0,0
1511885751953071,0,0,1,-1,3,6,1,0
1511885751960088,0,0,3,2,-3,-2,-2,0
1511885751960088,-1,-2,-6,-6,1,1,-1,1
1511885751976110,-1,1,-9,-4,-1,-2,0,-2
1511885751976110,-2,-1,2,3,0,-5,-1,-3
1511885751977113,0,-1,-5,-2,-1,1,0,0
1511885751977113,-2,0,0,-1,-1,-4,0,-1
1511885751992151,1,2,6,4,-5,1,-1,-2
1511885751992151,-1,-4,-10,3,0,2,-1,0
1511885751998166,-1,-2,1,-3,4,-6,0,-2
1511885751998166,-1,0,-2,-1,-1,7,2,1
1511885752013239,-1,-1,3,0,7,4,1,-1
1511885752013239,0,1,0,1,-2,1,-2,-3
1511885752020228,-2,-2,-4,-3,-3,-3,0,0
1511885752020228,0,-3,-4,0,-2,-2,-2,-1
1511885752036271,-2,-2,-2,-4,-2,-4,-1,1
1511885752036271,-1,0,1,1,-3,0,-1,-1
1511885752037274,1,-2,-8,2,5,-2,1,-2
1511885752037274,1,-1,-2,-3,1,-3,-2,-2
1511885752052311,0,0,-3,1,1,-4,-2,0
1511885752052311,0,1,3,-4,0,-2,0,-1
1511885752057401,-3,-1,2,-6,-5,1,-2,0
1511885752057401,-2,0,-2,0,-6,-4,-1,-3
1511885752072441,1,-2,2,4,-5,-8,1,-1
1511885752072441,-2,-1,1,5,5,2,-1,-1
1511885752080468,-1,0,4,-3,0,-3,0,-1
1511885752080468,0,-2,-4,-5,2,1,-1,2
1511885752096519,-1,1,-1,-4,-4,3,-1,-1
1511885752096519,0,-3,-3,0,5,-3,0,0
1511885752096519,0,1,1,-2,-5,-2,-2,-1
1511885752096519,-1,1,3,4,-3,-1,0,0
1511885752111543,-2,-1,5,-3,3,0,-2,0
1511885752111543,2,-1,-10,2,-9,-5,1,1
1511885752117673,-1,0,7,2,3,2,-1,-1
1511885752117673,-2,0,-4,-2,3,-2,3,0
1511885752132980,0,-1,1,-2,0,0,-1,-1
1511885752132980,-2,-1,3,3,1,-1,-1,-2
1511885752140894,0,1,-9,-6,2,3,0,-1
1511885752140894,-1,-2,2,-1,-7,-6,0,-1
1511885752155958,-1,-4,-3,7,4,11,1,-1
1511885752155958,-2,-2,-22,-9,2,-3,-1,1
1511885752156936,1,0,11,1,-8,-5,-2,-1
1511885752156936,1,0,-2,0,4,3,-1,0
1511885752171976,0,0,5,-3,-2,-3,-2,-2
1511885752171976,-3,-1,1,2,-7,-3,-1,-1
1511885752177992,-1,-3,-6,-5,0,3,1,1
1511885752177992,-1,-1,3,-3,-2,0,0,0
1511885752193210,-1,0,5,4,5,0,-3,-1
1511885752193210,1,2,-6,-4,-14,-8,0,0
1511885752200054,-1,-2,-5,6,7,10,1,-2
1511885752200054,1,1,4,0,7,-1,-1,-2
1511885752216214,-2,1,-7,-5,-12,-3,-1,0
1511885752216214,1,0,11,7,5,0,-1,0
1511885752217191,-1,-1,-4,-8,-5,-2,-2,0
1511885752217191,-1,0,1,4,-1,0,-1,-3
1511885752232141,1,3,4,-3,0,-1,0,0
1511885752232141,1,-5,-16,-11,1,-4,-1,-1
1511885752238155,-1,2,29,11,2,-6,-2,-1
1511885752238155,-2,-3,-26,-1,-12,2,1,-1
1511885752253384,-1,-3,4,0,11,-3,2,-2
1511885752253384,-2,3,13,-1,-1,4,0,0
1511885752260389,1,0,-4,-2,3,-1,-1,1
1511885752260389,1,2,12,10,3,0,-3,-1
1511885752277296,0,0,-8,-8,-3,-12,0,0
1511885752277296,-1,-2,0,6,2,7,2,0
1511885752278260,0,-1,-2,-5,-3,-1,-2,-2
1511885752278260,-1,-1,3,3,-2,-4,-1,-1
1511885752291297,0,-3,-12,-1,11,2,-2,-1
1511885752291297,-1,0,2,-6,-10,-2,0,-1
1511885752298327,1,2,6,2,5,-2,0,-1
1511885752298327,-3,-4,-19,-8,-4,-8,-1,0
1511885752313353,0,0,6,0,4,2,-2,-3
1511885752313353,-4,-5,-13,-3,21,2,-2,-3
1511885752320457,-2,-1,-2,3,-26,-9,2,-1
1511885752320457,-1,-1,1,-3,-24,1,-2,-1
1511885752335414,-2,3,5,3,8,-5,-2,1
1511885752335414,-1,-1,7,-9,-4,-2,0,-1
1511885752336413,-1,-2,-20,1,6,-4,0,-1
1511885752336413,-1,1,6,-4,-10,4,1,1
1511885752351454,1,0,-6,-2,-14,0,1,-1
1511885752351454,0,2,21,6,1,1,-2,0
1511885752357472,0,-3,-14,-8,-2,0,-1,1
1511885752357472,0,0,16,3,10,0,1,-2
1511885752372510,0,-4,-20,-4,1,4,1,-1
1511885752372510,0,-1,-13,-5,-4,-5,-2,-1
1511885752380530,0,-3,-1,3,6,4,0,-2
1511885752380530,-1,-1,9,3,26,2,1,-1
1511885752395678,-4,-3,-1,-7,-39,-6,-4,-2
1511885752395678,-1,-2,-19,1,-18,0,-1,-1
1511885752396573,-1,-2,4,-3,6,-1,1,-1
1511885752396573,0,2,1,-3,18,0,-1,1
1511885752411614,-2,-2,7,3,-21,3,-1,-2
1511885752411614,-1,-1,9,-6,40,2,-2,-1
1511885752417632,0,0,-11,6,-9,-5,-1,0
1511885752417632,2,0,5,-8,-4,-7,-1,-1
1511885752434679,2,0,-15,7,11,1,0,1
1511885752434679,1,2,18,9,-16,-6,0,-1
1511885752440733,-1,-2,-6,-8,10,3,1,0
1511885752440733,-1,-2,2,0,-8,1,-1,-1
1511885752455773,0,-2,-1,-7,-13,-8,1,-1
1511885752455773,3,4,12,10,4,5,0,2
1511885752456776,1,3,7,-1,-3,-4,-4,0
1511885752456776,-5,-5,-30,-6,18,9,-4,-5
1511885752478837,-3,-3,11,1,-10,-4,4,1
1511885752478837,-1,-7,-18,-1,25,2,-1,1
1511885752478837,-3,3,11,-8,-8,7,-4,1
1511885752478837,1,-1,-3,4,-7,-11,6,1
1511885752494066,0,1,4,0,11,5,-6,-3
1511885752494066,-1,0,2,2,-1,0,0,-3
1511885752500926,1,1,-5,-8,-32,-11,-2,0
1511885752500926,1,-2,-1,-1,-21,4,0,-1
1511885752514933,0,1,-6,7,52,16,5,0
1511885752514933,-1,3,34,7,-40,-9,0,-1
1511885752522951,1,-5,-35,-5,17,1,-2,-1
1511885752522951,-2,0,4,-2,-2,-9,-2,0
1511885752538993,-1,-2,-1,1,-15,-4,-3,-1
1511885752538993,1,1,-4,-9,-7,-3,-4,-1
1511885752538993,-4,2,26,10,29,-8,0,-3
1511885752538993,1,0,-7,6,-9,15,4,0
1511885752554034,1,-2,8,0,11,-1,-1,0
1511885752554034,-1,1,-2,-3,-5,3,-1,-1
1511885752560138,1,-2,-12,-7,-10,-22,-2,-2
1511885752560138,-2,0,10,7,8,2,-6,-3
1511885752575356,1,4,9,-4,-38,-2,2,0
1511885752575356,1,-7,-45,-6,-14,-2,0,0
1511885752582262,-1,-2,13,5,-25,5,3,0
1511885752582262,0,4,13,1,-32,-29,0,0
1511885752600309,0,1,-4,-4,-48,10,-3,-2
1511885752600309,-3,-3,-1,-4,68,7,1,-2
1511885752600309,0,-1,-11,3,-30,-7,-1,1
1511885752600309,1,-1,3,-1,20,1,-3,2
1511885752614346,2,4,11,-3,-5,-8,-3,0
1511885752614346,1,4,30,7,-15,-3,-2,0
1511885752620366,-2,-6,-31,-8,18,9,2,-3
1511885752620366,-1,-1,4,2,-1,-5,0,-2
1511885752635437,-3,-1,-9,0,20,-5,-4,-1
1511885752635437,-1,-1,3,-3,-3,13,12,2
1511885752642687,2,1,13,5,6,-4,-1,1
1511885752642687,0,-2,-20,-2,10,-1,0,-3
1511885752658721,-3,-2,-11,-9,-4,-4,5,0
1511885752658721,-1,1,3,11,-2,-5,-5,0
1511885752659722,-2,-1,9,-3,-3,6,-2,-2
1511885752659722,0,-1,-5,-5,-8,-4,0,1
1511885752674662,-1,-2,-8,0,14,-2,-7,-3
1511885752674662,0,3,12,-4,-16,3,3,0
1511885752679803,1,-1,-15,5,38,2,-1,1
1511885752679803,-1,2,26,-5,-83,-1,-5,-1
1511885752694842,-3,-6,-22,-2,18,-17,0,-1
1511885752694842,-5,-5,-3,-3,8,8,-1,-1
1511885752702866,1,5,22,2,-30,6,1,1
1511885752702866,-2,-7,-26,-11,24,4,-8,0
1511885752718922,-1,-2,4,7,28,-4,-1,-4
1511885752718922,-1,-4,-12,-6,-40,-13,-2,-3
1511885752719938,1,0,11,-4,16,1,-3,0
1511885752719938,3,4,-3,4,16,-3,-2,1
1511885752733950,0,0,11,2,-1,1,10,-1
1511885752733950,-2,-5,-22,-2,-2,-5,-2,-2
1511885752739962,0,1,7,0,0,-12,-4,0
1511885752739962,1,3,6,0,16,8,-8,3
1511885752772050,2,0,-8,-9,-6,35,14,3
1511885752772050,-2,-3,12,14,15,10,12,1
1511885752773050,-1,0,2,-1,-20,-3,1,-1
1511885752773050,-1,-1,2,-6,-61,-28,-2,-1
1511885752793106,1,-3,-17,6,96,4,-12,-1
1511885752793106,-2,0,0,-8,-21,-6,-3,-1
1511885752802127,0,1,1,-2,15,1,-3,-2
1511885752802127,-3,-4,-7,6,-9,8,1,-1
1511885752824498,-1,-1,8,2,-14,0,-3,0
1511885752824498,0,0,-13,-6,-1,-2,-6,0
1511885752825421,1,-1,21,7,24,6,11,1
1511885752825421,0,-1,-12,0,33,2,8,1
1511885752846373,2,1,5,-5,-25,-7,-2,1
1511885752846373,1,-1,-13,0,2,-10,-4,0
1511885752854395,-4,1,0,-6,-20,7,-1,-1
1511885752854395,-3,-4,4,4,19,7,6,-1
1511885752876623,-4,1,9,0,-15,-14,-2,-1
1511885752876623,1,1,0,-2,7,-3,-6,-2
1511885752878460,1,0,0,-8,-17,4,-4,0
1511885752878460,-2,-1,-4,1,17,-8,0,1
1511885752899700,-1,-3,-13,-2,-30,-19,-2,-3
1511885752899700,2,4,9,-2,5,8,1,1
1511885752900548,-1,-3,-3,-1,-1,14,1,1
1511885752900548,-2,0,-8,1,0,1,4,-1
1511885752920762,-2,-2,13,-4,-33,-5,-7,0
1511885752920762,0,1,-6,1,-5,-8,-5,-1
1511885752928807,2,-1,-7,-2,-7,-10,-8,-2
1511885752928807,-1,-3,0,-5,10,0,1,-1
1511885752951870,-1,-1,0,2,-7,1,1,1
1511885752951870,-1,1,12,3,44,7,1,2
1511885752954875,1,0,-17,-2,-13,-2,-2,1
1511885752954875,-3,-3,-5,2,-8,-2,-2,-3
1511885752972924,-1,-1,1,8,14,2,0,-3
1511885752972924,-3,-2,7,-8,-15,-5,-4,-1
1511885752981947,-2,-1,-9,1,6,2,3,-2
1511885752981947,1,3,7,-4,13,2,1,1
1511885753004010,2,1,-10,0,-2,1,-2,1
1511885753004010,-3,-3,-9,-5,-7,-1,2,-2
1511885753006011,-1,-3,6,6,-5,-15,2,-2
1511885753006011,0,1,2,-1,9,13,-2,-2
1511885753027192,-1,-1,2,-3,-17,-1,-3,-2
1511885753027192,2,1,2,0,-13,-5,-1,-1
1511885753028195,-1,-3,-7,0,7,12,-1,-2
1511885753028195,1,-2,2,-2,2,-6,-2,-2
1511885753048249,1,2,3,0,10,-9,2,2
1511885753048249,1,-2,-7,-1,-3,-7,2,0
1511885753057271,-4,-3,-6,3,22,0,-1,-2
1511885753057271,0,1,7,-5,-56,-5,1,-1
1511885753079434,-1,2,-1,-1,-2,2,-1,0
1511885753079434,-2,-1,-8,-1,3,-7,-2,0
1511885753080335,-3,-1,3,-1,3,-3,1,-2
1511885753080335,-2,-1,-1,-5,-9,-12,-4,-1
1511885753101431,-3,-1,-2,-3,-9,-19,-3,-1
1511885753101431,1,-3,-5,-5,-22,-10,-2,-1
1511885753103420,-1,3,6,1,-44,-12,-5,-2
1511885753103420,0,0,-2,5,22,5,0,1
1511885753139488,0,-3,-4,1,2,2,6,2
1511885753139488,-3,0,3,-3,-2,-7,-3,-2
1511885753142497,-2,-1,-2,-3,9,4,-1,0
1511885753142497,0,-1,6,-4,8,0,1,-2
1511885753153529,-1,-2,-6,-4,11,3,0,-1
1511885753153529,-1,1,-2,2,6,3,2,0
1511885753160547,-2,-4,-12,-3,0,1,3,0
1511885753160547,-2,1,7,3,-7,2,0,-1
1511885753167566,0,-3,-2,-4,49,10,-2,0
1511885753167566,0,1,8,2,-38,-7,2,-1
1511885753176587,0,-1,-2,-3,0,-4,-1,0
1511885753176587,0,0,-5,3,5,6,-1,-1
1511885753191724,0,0,4,0,-1,5,1,0
1511885753191724,-1,1,-7,-2,10,2,0,0
1511885753193632,0,1,7,1,8,1,0,-1
1511885753193632,0,0,-8,-2,4,5,0,-1
1511885753205664,0,0,1,5,-1,1,0,-1
1511885753205664,-4,-1,-2,-3,1,4,-4,-3
1511885753206668,-1,0,0,3,-6,4,1,-1
1511885753206668,-2,-2,2,-2,18,6,2,0
1511885753221711,-1,0,1,-3,-14,0,-1,-2
1511885753221711,2,-3,-6,-6,7,5,0,1
1511885753223713,0,-2,0,-3,-3,6,0,-1
1511885753223713,-1,-2,-6,-3,3,15,-1,-1
1511885753235744,1,0,-2,0,-14,6,-1,-2
1511885753235744,-2,0,3,2,-4,20,-2,-1
1511885753244769,-3,0,-1,-2,-2,20,0,-2
1511885753244769,0,-3,0,0,2,4,-4,0
1511885753258809,-2,2,9,-1,-5,12,-1,-1
1511885753258809,-1,-4,-23,-2,4,1,-1,-3
1511885753260811,0,5,38,6,3,11,-5,0
1511885753260811,-3,-12,-64,-4,-3,-1,5,0
1511885753274024,2,1,3,-2,-2,15,0,-1
1511885753274024,1,-2,-3,-4,8,18,0,1
1511885753275854,0,-1,5,3,2,8,-4,0
1511885753275854,0,0,9,-4,-6,8,-5,-2
1511885753287967,1,-3,-4,-3,-6,-10,-3,-1
1511885753287967,0,0,4,0,-11,4,-2,-1
1511885753297022,-1,-4,-11,-2,16,8,0,-1
1511885753297022,0,2,13,-4,-4,-1,-3,0
1511885753303037,-3,-5,-19,0,-17,7,-2,0
1511885753303037,-1,2,13,2,4,0,-3,0
1511885753304040,0,-2,-5,0,-6,1,-1,0
1511885753304040,-2,5,7,-10,6,18,0,1
1511885753312061,-2,-6,-10,7,9,16,0,-1
1511885753312061,0,-3,-9,-5,-5,-2,-3,-2
1511885753313064,0,1,11,-5,-5,14,-4,-2
1511885753313064,-2,-8,-33,10,11,-14,-4,-4
1511885753314070,2,4,12,-6,-14,-3,1,0
1511885753314070,-1,-4,-2,-2,-16,-5,-4,-2
1511885753318081,-1,-2,-1,-1,4,4,-1,-1
1511885753318081,1,4,18,-3,3,24,3,0
1511885753326335,-4,-4,-7,-1,-2,7,-2,-2
1511885753326335,1,0,14,15,6,19,1,1
1511885753327300,-2,-3,-12,-5,0,2,-1,-1
1511885753327300,1,-2,4,1,-12,-1,0,0
1511885753334362,0,-2,-6,-4,9,9,-7,-1
1511885753334362,0,2,9,-2,0,6,4,3
1511885753335278,-2,0,-7,1,-2,7,1,0
1511885753335278,0,1,4,1,-3,0,1,1
1511885753341265,-1,0,7,-3,0,0,3,1
1511885753341265,-1,0,-2,-5,10,11,-1,1
1511885753342321,4,2,-9,2,6,-4,1,1
1511885753342321,-2,2,10,2,2,-2,-1,-2
1511885753355298,2,1,-2,2,0,7,-1,-2
1511885753355298,-3,-2,-1,7,4,3,-1,0
1511885753363319,-1,-1,-9,-6,-2,-3,1,0
1511885753363319,-2,-1,8,6,-4,-6,0,0
1511885753378359,1,1,7,4,11,1,0,-1
1511885753378359,-2,-1,-4,-14,-24,-3,-3,-2
1511885753379362,1,0,23,5,14,-6,0,1
1511885753379362,-2,-8,-35,14,3,8,-1,-1
1511885753394403,0,3,6,-3,-6,3,2,1
1511885753394403,0,2,4,6,6,-6,0,-2
1511885753400421,-2,-1,0,-14,8,-6,-2,-2
1511885753400421,-1,3,11,-8,-28,1,0,0
1511885753415586,-1,-2,0,3,7,-1,0,0
1511885753415586,1,-1,1,-5,8,0,0,-1
1511885753422602,-2,-1,-7,3,-8,-2,-1,-1
1511885753422602,2,1,7,13,18,1,0,0
1511885753438647,-2,-3,-7,-5,-7,-9,-3,-1
1511885753438647,0,0,0,-1,-6,-10,-2,-2
1511885753439647,-1,-2,-11,0,1,3,0,-1
1511885753439647,-1,0,6,-5,0,0,-4,-2
1511885753454851,1,-1,2,-9,-2,-8,-1,1
1511885753454851,-2,-2,-4,4,8,-1,-2,-1
1511885753460864,0,0,-3,14,-3,-6,1,0
1511885753460864,1,2,10,-9,-2,1,0,0
1511885753475807,-1,-1,-10,1,18,16,6,2
1511885753475807,0,-1,-7,-8,4,9,-2,0
1511885753482775,0,-3,-8,0,-1,-6,-2,-1
1511885753482775,0,0,6,-4,2,-4,7,-1
1511885753497814,-2,1,1,-8,0,2,-10,-3
1511885753497814,-1,-3,-4,8,-2,-9,5,1
1511885753504833,-1,-2,-7,-7,1,-6,-3,-3
1511885753504833,-1,-1,1,-4,-46,3,3,0
1511885753514875,-1,-5,-3,0,-23,-9,0,-2
1511885753514875,0,3,1,7,15,-3,0,0
1511885753519869,-1,2,5,10,-19,-2,2,0
1511885753519869,0,-2,-1,-5,12,-16,-6,-1
1511885753534953,0,3,3,-2,-16,11,-4,0
1511885753534953,0,-1,0,-5,-7,-7,1,0
1511885753542976,-1,-1,-6,-2,11,4,1,0
1511885753542976,-1,0,2,-9,-1,1,0,-1
1511885753557976,0,1,3,14,-2,-10,-1,-3
1511885753557976,0,2,-11,-13,15,10,0,0
1511885753564997,-2,-4,6,10,-8,5,3,-2
1511885753564997,-3,-2,-15,-6,1,-2,-4,0
1511885753574035,-1,0,3,3,-6,-29,-1,-1
1511885753574035,-1,1,7,1,-3,3,-4,-1
1511885753580073,-2,-1,-6,-12,-9,2,-1,2
1511885753580073,0,0,1,0,5,6,-2,-1
1511885753595486,-4,-2,4,5,11,-20,-2,-3
1511885753595486,0,-2,-4,1,-38,-4,1,1
1511885753602324,0,2,4,1,-3,1,-3,1
1511885753602324,0,1,1,-5,5,-2,2,-2
1511885753617364,1,0,-4,-7,10,13,3,1
1511885753617364,0,-3,1,-2,4,-3,2,-3
1511885753625563,-1,-2,-4,3,-3,-3,4,-2
1511885753625563,1,1,3,4,7,-4,-14,0
1511885753634406,0,0,-5,-2,-2,2,0,-1
1511885753634406,-1,1,1,4,-1,-6,0,1
1511885753640425,0,-1,-2,-1,5,8,-3,-1
1511885753640425,0,0,0,3,6,13,7,1
1511885753655465,0,-1,2,1,-2,1,-1,1
1511885753655465,0,-6,-6,-3,9,4,-4,0
1511885753662486,-1,3,-1,-11,-2,-6,2,0
1511885753662486,-1,-2,5,17,5,-8,0,-1
1511885753677521,-2,1,1,3,-3,0,-3,-1
1511885753677521,-1,-2,1,0,3,1,2,2
1511885753685656,0,-1,-7,-6,-2,-5,-2,-2
1511885753685656,0,-1,-1,-7,-1,-3,-1,-1
1511885753700693,-1,-2,-3,-3,-8,8,1,1
1511885753700693,0,-1,-1,3,2,-18,-2,-2
1511885753701696,-1,-2,0,-5,-17,-3,-2,-2
1511885753701696,0,-1,0,3,7,6,2,0
1511885753714734,0,-2,-3,-2,-5,4,1,-1
1511885753714734,0,-1,3,1,4,1,1,-1
1511885753722754,-3,-2,-5,-3,-37,-31,-4,-1
1511885753722754,-3,-1,-2,-1,2,-7,-1,-1
1511885753737795,1,-3,-2,-4,-2,-11,1,-2
1511885753737795,-2,0,2,1,-10,-8,-3,-1
1511885753744810,-2,0,1,-2,-8,-1,-2,1
1511885753744810,-2,-1,-2,-8,-2,-5,-3,-1
1511885753761046,-2,0,-2,-2,10,2,-1,-1
1511885753761046,-1,0,-2,-1,3,5,2,-2
1511885753761856,0,-2,-1,3,14,8,-4,2
1511885753761856,-3,-1,-5,-12,-21,-36,-15,-1
1511885753775280,0,-2,2,0,13,12,9,2
1511885753775280,-2,-1,2,13,7,4,-19,0
1511885753783197,2,1,0,4,11,5,36,3
1511885753783197,-1,-1,-2,-4,5,2,-7,-4
1511885753798176,0,0,-2,-2,-11,-14,-7,-1
1511885753798176,-1,-1,-2,0,-2,8,4,0
1511885753805221,-2,-2,-2,-3,10,1,-10,-1
1511885753805221,-1,0,2,6,-5,10,6,1
1511885753821277,0,2,-1,-1,4,-4,2,0
1511885753821277,0,1,-2,-5,8,5,-1,0
1511885753822242,0,0,1,-1,-1,4,-6,-3
1511885753822242,-1,-3,-4,-10,-20,-3,4,-2
1511885753835314,-2,0,0,6,5,6,-5,-2
1511885753835314,-3,-1,2,17,5,1,2,1
1511885753843318,0,-1,-1,4,-3,-3,-3,-1
1511885753843318,-1,-2,-2,0,7,4,5,2
1511885753858352,-1,-1,-1,-9,3,16,0,2
1511885753858352,2,0,-3,-13,-6,-4,1,-2
1511885753865377,0,0,2,22,12,7,-1,0
1511885753865377,-1,-1,2,4,9,6,-1,1
1511885753881470,-1,1,-8,-18,0,0,2,0
1511885753881470,-1,0,2,15,-3,-3,-4,-1
1511885753881470,-1,-1,0,-8,3,1,-4,-2
1511885753881470,0,1,1,2,4,-1,1,-3
1511885753895435,-1,-1,2,6,-4,-2,0,0
1511885753895435,1,0,-2,-17,-2,-2,2,0
1511885753902593,0,-2,-14,-12,-2,-4,0,-1
1511885753902593,0,2,12,15,-1,1,1,0
1511885753917596,0,-1,-4,-1,-4,-4,0,-2
1511885753917596,-1,1,3,-4,4,-2,4,2
1511885753925535,1,-3,-9,2,-4,-1,-5,-1
1511885753925535,0,0,9,2,3,-5,1,0
1511885753940555,-1,0,-4,7,0,-20,-5,-1
1511885753940555,-2,-3,5,11,8,26,5,-1
1511885753941553,1,1,7,1,4,8,-2,1
1511885753941553,1,-1,-9,-6,1,-1,-1,0
1511885753955781,-1,-1,7,-8,-1,0,-1,-1
1511885753955781,0,-1,-6,-5,-1,-4,1,-2
1511885753962917,-2,-1,2,-13,-6,-9,-2,1
1511885753962917,0,-1,-5,9,5,7,2,1
1511885753977882,-2,-1,1,0,2,1,1,0
1511885753977882,0,-1,-2,-6,-8,-8,0,0
1511885753985804,-1,-1,-4,0,2,-1,0,0
1511885753985804,-2,-1,-6,-10,-5,0,0,-2
1511885754000846,-3,-2,-4,-2,-5,-3,-1,-2
1511885754000846,-2,0,0,8,1,-8,0,0
1511885754001846,1,0,6,-2,-3,-2,0,-2
1511885754001846,-1,-1,-1,9,1,-1,0,0
1511885754015014,1,-1,-3,-7,-3,9,1,-1
1511885754015014,-4,-3,-5,-10,-11,-10,-5,-2
1511885754023034,-1,0,1,-2,5,8,-1,0
1511885754023034,0,-3,-6,-7,-11,-19,-2,1
1511885754038076,-1,-1,-1,7,2,0,2,-3
1511885754038076,-2,0,0,-6,-14,-25,-4,-1
1511885754045091,0,-2,-2,-2,-7,3,-3,-1
1511885754045091,-1,-1,1,-5,2,2,3,0
1511885754061135,1,-1,2,5,-3,-11,4,0
1511885754061135,-3,1,-2,-3,-1,-2,-25,0
1511885754062239,-3,-1,-1,2,5,0,0,-1
1511885754062239,2,-3,-1,-2,-8,-8,-5,-1
1511885754075279,0,1,4,1,4,0,-10,1
1511885754075279,0,-4,-4,-7,4,8,8,-3
1511885754083196,-3,0,2,10,0,-3,-8,0
1511885754083196,-1,0,0,2,-3,1,-20,-7
1511885754098236,0,-1,0,-2,-2,-8,4,-1
1511885754098236,0,2,1,1,15,19,-10,-27
1511885754105251,0,-1,2,-4,-4,1,-5,45
1511885754105251,3,0,-1,-3,6,0,14,0
1511885754121406,-2,-2,-3,2,-3,-8,-9,12
1511885754121406,-1,-1,0,1,7,14,19,2
1511885754122324,0,-3,-1,0,13,9,-7,-13
1511885754122324,-2,0,-2,0,-4,-3,2,-4
1511885754135479,-1,1,1,1,4,8,13,1
1511885754135479,2,1,0,0,-5,-15,-17,4
1511885754143429,-3,0,-2,-1,-1,-9,8,-10
1511885754143429,-1,-2,1,1,-1,5,-5,4
1511885754157428,0,0,-2,-1,-6,0,-1,-12
1511885754157428,0,-2,-1,-3,-18,-8,-1,10
1511885754165449,1,0,-1,0,3,-1,23,-6
1511885754165449,0,-1,0,-2,0,5,-6,-1
1511885754181488,0,-2,0,1,6,19,3,-1
1511885754181488,0,-1,-2,-3,-8,-12,-1,2
1511885754181488,-2,0,0,-2,-1,-11,4,-4
1511885754181488,0,0,-2,-1,-1,0,-4,-1
1511885754195529,-3,1,1,1,1,-3,-3,0
1511885754195529,1,-2,0,0,20,7,-2,3
1511885754202545,-1,-1,-1,0,-11,0,-3,-11
1511885754202545,-1,-1,-3,2,-1,-10,5,0
1511885754217588,0,-2,-3,-3,-2,-4,-10,-1
1511885754217588,-2,0,8,10,3,1,12,-1
1511885754225609,1,-1,-7,-11,-2,4,-6,-1
1511885754225609,-2,1,3,-4,0,11,0,0
1511885754240842,0,0,40,16,3,-4,-5,-2
1511885754240842,-2,-4,-54,-6,3,-13,-2,0
