timestamp,emg1,emg2,emg3,emg4,emg5,emg6,emg7,emg8
1511885843882563,-1,-1,-2,-2,-1,-2,0,-2
1511885843882563,1,-1,-2,-2,-1,-2,-1,0
1511885843883566,0,-1,0,0,2,1,0,-1
1511885843883566,-2,1,-5,-2,-2,0,-2,-1
1511885843884569,-2,0,2,-1,-1,-2,-2,-1
1511885843884569,-1,-1,2,-4,-1,-5,1,-1
1511885843888578,1,-1,-7,-6,-1,4,0,-1
1511885843888578,-2,1,17,14,0,-2,-1,1
1511885843894595,-2,-2,-27,-3,1,-2,-2,-1
1511885843894595,-1,-2,4,5,-2,0,-3,0
1511885843905626,-1,0,0,-7,-4,-3,0,-2
1511885843905626,-1,-1,11,-4,-2,1,3,-2
1511885843909638,2,-1,-12,6,-1,0,0,1
1511885843909638,0,-1,2,-6,2,3,-1,0
1511885843925678,1,0,-5,-14,-3,-4,1,1
1511885843925678,0,2,3,13,4,3,-1,-2
1511885843933700,-1,0,6,1,-3,1,0,-1
1511885843933700,-2,0,-5,-1,-3,-4,0,-2
1511885843955757,-1,-3,4,4,0,-1,-2,0
1511885843955757,-1,-3,-11,-13,0,2,-2,-1
1511885843955757,-1,0,5,-5,-2,-4,0,0
1511885843955757,0,0,-5,-3,2,6,0,-2
1511885844001934,-1,-1,-3,1,-1,-5,1,-1
1511885844001934,0,1,3,0,-4,-2,-4,-1
1511885844002887,1,-1,-2,-2,0,4,0,0
1511885844002887,-1,0,2,1,1,0,-1,0
1511885844003887,-1,-2,2,-14,-3,-10,-2,-1
1511885844003887,-1,1,0,18,4,7,2,-1
1511885844006999,-2,-1,-13,-7,-3,-3,-2,-1
1511885844006999,-2,-1,3,2,-2,0,0,-1
1511885844014916,0,-1,-4,-4,-1,1,-1,-2
1511885844014916,-2,-2,1,-6,1,-1,-2,-2
1511885844023945,0,1,6,-7,-3,-3,1,0
1511885844023945,-1,-3,-8,-1,-1,3,1,-1
1511885844029223,1,1,5,1,0,2,0,0
1511885844029223,-1,-2,-12,-2,-2,-2,0,0
1511885844046150,-2,-1,-1,1,2,-4,0,-1
1511885844046150,0,-1,-1,-8,-1,-2,-2,-1
1511885844052206,0,-1,0,14,1,2,-1,-1
1511885844052206,0,0,1,-4,-2,-2,0,0
1511885844075361,-1,-1,-2,-4,-4,-2,-1,1
1511885844075361,1,-2,-1,0,5,-4,-1,-1
1511885844075361,-2,1,10,4,2,2,0,1
1511885844075361,0,0,-11,-4,2,-3,-1,-1
1511885844090402,-1,0,-1,-3,1,0,0,-1
1511885844090402,-1,1,6,2,-5,-2,-2,-2
1511885844090402,0,-2,-3,2,0,-3,-1,-1
1511885844090402,-1,-5,-5,-6,-4,-6,2,-1
1511885844112421,-1,1,2,6,1,1,-3,-2
1511885844112421,-1,0,-6,-6,1,-2,0,0
1511885844113419,-1,0,2,3,-3,-2,0,1
1511885844113419,-1,-2,0,-5,-1,-4,-1,-1
1511885844134478,0,0,1,-1,-3,-2,-1,-1
1511885844134478,1,0,-7,-2,-4,-4,-1,-2
1511885844135478,-1,-2,7,2,3,3,-2,0
1511885844135478,1,1,-1,-4,-2,-7,0,-2
1511885844149552,-1,-2,5,0,0,0,-1,-2
1511885844149552,-1,-4,-16,-15,-3,-2,-3,0
1511885844150552,-1,-1,-3,8,-1,0,1,1
1511885844150552,-1,-1,6,7,2,1,-2,0
1511885844172614,-1,0,2,-2,-1,-4,-1,-1
1511885844172614,0,-1,5,-3,-3,0,-1,1
1511885844173620,1,-2,-7,-8,3,-2,0,0
1511885844173620,-2,-3,-4,-4,-3,0,-1,-1
1511885844194673,0,-1,2,5,1,4,0,-2
1511885844194673,-1,-1,0,5,1,-8,0,0
1511885844195672,0,0,-3,-9,-7,-2,0,-1
1511885844195672,-1,1,-2,13,4,4,0,-1
1511885844209829,0,0,-2,-2,-1,0,2,0
1511885844209829,1,0,1,2,-2,-2,-1,-2
1511885844210830,0,0,0,-1,0,-7,0,0
1511885844210830,0,0,5,-5,-2,8,-2,-1
1511885844232886,-2,-3,-4,-1,-2,-12,0,-2
1511885844232886,1,1,11,11,-1,7,3,0
1511885844232886,-1,-1,-1,-6,-2,-3,-2,-2
1511885844232886,0,0,-11,-10,5,-1,0,0
1511885844255053,-1,-4,-1,2,1,0,-2,-1
1511885844255053,-1,2,7,1,-1,0,-2,-3
1511885844255943,-1,-1,-3,0,0,0,-1,-1
1511885844255943,0,-1,6,2,-2,2,-2,1
1511885844270093,0,-1,-2,-6,-3,-8,-2,0
1511885844270093,-1,-1,-6,-7,3,2,0,0
1511885844270983,-3,-1,-2,5,-4,-2,-2,-4
1511885844270983,-2,-2,1,-12,1,-4,2,0
1511885844292204,0,-1,-1,10,2,0,1,0
1511885844292204,0,0,0,0,-2,1,-1,-1
1511885844293208,0,-1,-1,-4,-4,-5,-1,-1
1511885844293208,0,-1,2,0,0,-6,-1,-2
1511885844315289,-2,-1,0,-1,-1,5,-1,0
1511885844315289,0,-2,0,-3,-4,-8,-1,-1
1511885844316332,1,2,0,-10,0,4,1,0
1511885844316332,1,-3,-15,5,-2,-6,-2,-1
1511885844330533,1,2,-6,2,0,0,1,-1
1511885844330533,-3,0,0,4,-2,0,-1,1
1511885844330533,-1,-4,-3,-7,-2,-1,-1,0
1511885844330533,0,2,9,11,1,2,0,1
1511885844352479,-1,-1,1,-4,-1,1,-1,1
1511885844352479,-1,-1,-1,-2,-2,0,-2,-1
1511885844353479,-1,-1,-2,1,-1,-1,-1,-1
1511885844353479,2,2,4,-1,-1,3,1,0
1511885844375580,1,-3,-5,-1,0,-1,-1,-2
1511885844375580,0,-1,1,2,2,2,1,-1
1511885844375580,-1,-2,-5,-10,-4,-1,0,-2
1511885844375580,-1,0,5,7,-3,-3,-1,-2
1511885844390579,-1,0,-1,1,4,1,-2,-1
1511885844390579,0,-1,-6,-8,-1,-3,0,-2
1511885844390579,-1,-1,0,8,2,-1,-2,0
1511885844390579,1,0,0,-8,-3,-5,0,-1
1511885844413080,2,1,4,-1,-2,7,2,0
1511885844413080,0,-2,0,1,-3,-9,-1,0
1511885844413080,0,0,-9,1,5,1,-1,-1
1511885844413080,-1,-3,-2,-5,-5,-1,-1,0
1511885844435131,-2,0,3,4,8,-3,-1,-1
1511885844435131,-2,-1,-3,1,-1,0,-1,0
1511885844436134,-2,1,6,3,-2,-1,-2,1
1511885844436134,-1,0,2,-1,0,0,1,0
1511885844450171,0,-1,-6,-2,-3,0,-2,0
1511885844450171,0,1,2,3,1,2,1,-1
1511885844451174,-1,-1,-3,-2,1,-4,-1,0
1511885844451174,-2,0,1,-3,-2,0,-2,-1
1511885844472350,-3,-3,-3,-3,-4,-5,0,0
1511885844472350,-1,0,0,2,1,1,-2,-2
1511885844473246,0,0,-4,-1,-4,-3,-2,-1
1511885844473246,-1,0,3,-5,-1,-6,0,0
1511885844495338,1,-1,1,-3,-4,2,-1,-2
1511885844495338,-2,-1,-3,-10,1,-2,-1,0
1511885844496328,-1,-2,1,14,2,5,1,-2
1511885844496328,-2,-2,-9,3,0,-2,-1,0
1511885844510328,0,0,1,0,0,-3,-1,0
1511885844510328,2,0,1,1,1,-3,-3,-1
1511885844510328,-1,0,-2,-9,0,4,-1,-2
1511885844510328,0,1,7,-4,-1,2,0,-2
1511885844532390,-1,-2,-10,6,-3,-7,0,-2
1511885844532390,-1,-3,-3,-2,-2,-1,0,-1
1511885844533389,1,1,6,2,0,-2,-2,0
1511885844533389,-1,-2,-3,-5,0,-1,-1,1
1511885844555474,-1,1,6,-7,-3,-1,0,-1
1511885844555474,0,-2,2,1,-3,3,-1,-1
1511885844555474,-2,-4,-10,-6,-4,-5,0,0
1511885844555474,-1,0,11,24,5,2,0,-1
1511885844569571,-1,-1,-8,-8,-2,0,-2,-1
1511885844569571,0,0,4,9,2,3,0,-1
1511885844576704,0,1,1,-2,-3,-2,1,-2
1511885844576704,-1,-2,-6,-22,-6,-2,-2,-1
1511885844592664,2,2,7,12,4,0,-2,-1
1511885844592664,0,0,-1,14,3,0,-2,1
1511885844593636,-2,0,3,0,-1,-2,-2,0
1511885844593636,-1,0,5,-2,-1,-1,-1,-2
1511885844614691,1,-2,-11,0,2,0,0,0
1511885844614691,0,-1,-4,-8,-5,-1,-1,-2
1511885844615691,1,-1,-1,1,1,-7,0,0
1511885844615691,0,1,1,2,0,5,1,0
1511885844629892,-1,-1,3,-7,-5,-4,-1,-1
1511885844629892,-2,1,-1,4,1,2,1,0
1511885844637024,0,1,2,-2,2,0,0,0
1511885844637024,-1,1,-3,1,-2,-2,-2,0
1511885844652990,-3,-4,0,-6,0,-2,-1,0
1511885844652990,-1,2,14,-3,-3,-6,-1,0
1511885844652990,2,-1,-14,5,2,-1,-1,-2
1511885844652990,1,-1,1,-4,1,-1,1,-1
1511885844675061,1,0,-1,1,0,-2,-1,0
1511885844675061,-1,-2,-4,-11,-3,5,0,-1
1511885844676013,-1,1,6,-5,-3,0,0,0
1511885844676013,-1,-1,-8,5,0,-1,-1,-1
1511885844689072,0,-2,1,-3,-3,1,-2,-1
1511885844689072,-1,-1,-1,1,0,-2,-2,-2
1511885844697095,-2,-1,4,-5,-2,0,-1,0
1511885844697095,0,-3,-7,-6,-4,-2,-1,-2
1511885844712107,1,1,4,6,1,-8,-5,-1
1511885844712107,-9,0,-3,4,3,4,9,0
1511885844713110,1,-1,-4,-5,-2,-4,5,-1
1511885844713110,0,2,2,8,1,1,-8,0
1511885844735171,2,-1,0,-6,-3,-2,-2,0
1511885844735171,2,1,-2,0,-2,-2,-4,-2
1511885844736174,-2,-3,0,0,2,2,-3,0
1511885844736174,-1,-2,-2,-8,0,-5,2,-2
1511885844749358,0,2,2,-3,-1,5,4,0
1511885844749358,1,-1,-4,2,2,-1,-4,-1
1511885844757353,-1,-1,0,-6,-1,-7,1,1
1511885844757353,-1,0,-1,8,-2,-1,-1,-1
1511885844772590,-3,0,2,7,2,-4,-2,0
1511885844772590,-1,-1,-5,-10,-2,2,7,1
1511885844773397,0,0,-1,1,-2,-2,-12,-4
1511885844773397,-1,-2,-3,-10,-1,-3,1,-3
1511885844795551,-3,-2,-1,-4,-5,-1,-1,-1
1511885844795551,0,1,2,1,0,-6,-1,-2
1511885844795551,0,0,0,2,-1,10,3,0
1511885844795551,-2,0,-3,-2,-8,-7,2,-1
1511885844809634,1,0,0,0,5,1,5,-2
1511885844809634,3,-2,1,0,0,0,-28,1
1511885844816648,-3,-1,-1,-2,-1,1,32,0
1511885844816648,-1,0,2,-2,0,11,2,1
1511885844832688,0,1,0,6,-1,-13,-12,-2
1511885844832688,0,-2,-2,-2,-4,-1,-14,1
1511885844833694,-2,0,-1,-1,0,2,23,-2
1511885844833694,1,-2,-1,-2,4,-2,2,-2
1511885844855148,-4,1,-1,2,-2,-11,-8,-3
1511885844855148,-1,-2,-1,-5,5,6,13,-1
1511885844855970,-1,0,0,1,-3,-2,-18,-1
1511885844855970,1,-1,-1,-1,4,-9,-5,5
1511885844869006,1,-1,-1,-2,0,7,10,0
1511885844869006,-1,-1,-5,-13,-7,-12,-21,-2
1511885844877027,0,3,4,19,4,-3,6,0
1511885844877027,-3,-2,0,-2,6,-1,-30,0
1511885844893096,1,-1,1,6,-1,0,0,0
1511885844893096,1,2,-1,4,6,7,4,2
1511885844893096,-2,-2,-3,-8,-1,-2,-6,-1
1511885844893096,0,0,-4,3,-2,-2,9,-1
1511885844915129,-3,0,0,-2,-1,2,5,0
1511885844915129,0,0,0,1,-1,-3,0,-2
1511885844916132,0,-2,-3,-3,3,5,-10,0
1511885844916132,0,-1,0,4,-4,0,2,-1
1511885844929337,0,0,-1,-2,17,0,-7,0
1511885844929337,-1,-2,2,0,-32,0,17,1
1511885844937291,1,0,0,-2,-4,-4,-5,-1
1511885844937291,-3,-3,0,-3,8,-3,1,-1
1511885844952227,0,-2,-5,-10,-11,3,-8,-2
1511885844952227,-3,1,-1,2,-31,-11,33,0
1511885844953227,-1,0,2,10,83,23,-5,2
1511885844953227,0,-1,1,-4,-21,19,10,0
1511885844974287,-2,1,-3,-2,-25,-9,4,-1
1511885844974287,-2,-2,-2,-6,-18,12,-37,-2
1511885844982309,0,-1,-1,3,12,2,12,1
1511885844982309,0,1,-2,2,6,-5,2,-2
1511885844997348,0,-2,0,-14,25,9,0,-1
1511885844997348,0,1,7,24,3,-18,5,-2
1511885844998353,-1,0,-2,-3,-20,-8,-1,0
1511885844998353,-4,-1,-1,-2,5,-1,-21,-3
1511885845020509,0,-1,-2,0,-18,-7,7,0
1511885845020509,1,-1,-2,-12,12,-13,6,0
1511885845020509,0,0,3,3,-42,15,-8,2
1511885845020509,-3,-3,-3,6,70,28,12,-1
1511885845035445,-1,-1,-2,-6,0,-5,-2,-1
1511885845035445,0,-1,0,2,6,5,2,0
1511885845035445,-1,0,0,-6,-13,7,-3,1
1511885845035445,1,1,-1,-1,15,-6,4,0
1511885845057717,0,1,1,5,-21,-2,0,1
1511885845057717,-1,-6,-6,2,38,22,5,1
1511885845058791,-1,-2,-3,-18,-37,-34,-7,-2
1511885845058791,-1,1,4,5,-20,-13,21,-1
1511885845079800,-2,-1,-5,-2,78,-2,-13,-2
1511885845079800,1,2,4,12,-102,-10,4,-2
1511885845080689,-2,-2,-2,-9,-5,-9,-3,-3
1511885845080689,0,-1,-5,-12,-24,-3,-20,1
1511885845094757,-3,-4,-3,-1,8,6,23,-2
1511885845094757,-1,2,2,11,72,6,-3,0
1511885845102748,0,0,-1,-2,-63,-5,2,1
1511885845102748,0,1,3,-3,-11,-2,-22,-1
1511885845117789,2,2,2,-1,-11,2,7,2
1511885845117789,-3,-4,-7,-11,18,-16,-4,-3
1511885845117789,-2,-2,-3,0,3,2,1,-2
1511885845117789,0,1,-1,-1,-27,-8,2,0
1511885845139847,1,1,0,0,-53,-1,-5,1
1511885845139847,-1,-1,-3,-11,7,-3,4,1
1511885845140846,1,1,3,8,19,0,-7,0
1511885845140846,-1,-1,-1,4,-19,-1,5,0
1511885845154914,-3,-3,-1,3,7,-11,-1,-2
1511885845154914,0,-1,-2,-9,53,13,-2,-1
1511885845162908,-2,-4,-3,1,38,-7,-9,-2
1511885845162908,0,-1,0,-5,-48,-11,3,0
1511885845178053,-2,0,3,-3,-35,7,-3,0
1511885845178053,0,-1,-4,-5,-11,0,13,-2
1511885845178053,0,0,0,0,76,7,-32,1
1511885845178053,-2,0,-3,-3,-7,-15,3,-1
1511885845200008,-2,0,2,16,34,13,-1,0
1511885845200008,1,2,2,-1,-32,-4,-3,-1
1511885845201006,-1,-4,-4,-5,-23,-11,6,0
1511885845201006,-1,-2,-3,0,11,8,3,-4
1511885845214044,3,2,2,1,3,-7,-13,-1
1511885845214044,-3,-1,2,-1,-15,-1,-6,-1
1511885845222065,0,0,-1,3,6,4,5,1
1511885845222065,-1,-3,-4,-3,-3,-13,-4,-1
1511885845237103,-2,0,-2,2,47,22,5,-1
1511885845237103,2,2,5,-2,9,-18,-4,-1
1511885845245124,1,-1,-4,-6,-30,14,4,-1
1511885845245124,-1,0,0,1,7,-3,8,1
1511885845260164,1,1,1,9,1,-2,-6,1
1511885845260164,1,2,3,1,13,-4,-9,1
1511885845261171,-2,-2,-1,-2,-26,-12,1,-2
1511885845261171,-1,-2,3,6,82,10,-1,-3
1511885845274205,-2,0,-1,-6,-2,-13,3,1
1511885845274205,0,-5,-7,-9,-4,6,-10,0
1511885845282228,-6,2,5,11,-25,-16,-11,-1
1511885845282228,1,-2,-4,-1,3,13,5,-1
1511885845297382,0,-2,-1,-4,-41,-27,-4,-2
1511885845297382,-4,1,0,-6,-7,-1,-5,-2
1511885845298267,1,-1,-3,-4,8,4,6,1
1511885845298267,-4,3,5,10,2,-3,-1,2
1511885845320375,-6,-6,-4,-7,-5,2,-13,-4
1511885845320375,4,-2,-3,10,-10,1,8,2
1511885845320375,1,1,4,-1,8,-2,-3,-2
1511885845320375,4,2,2,-16,-12,-1,-12,-1
1511885845334361,0,-1,-1,23,0,-7,6,0
1511885845334361,0,0,1,4,6,14,-4,-2
1511885845342592,-1,0,1,-3,5,3,5,-3
1511885845342592,-4,-3,-5,-9,-11,-5,-6,-2
1511885845357624,0,3,4,-9,-42,2,1,-2
1511885845357624,0,1,1,5,56,2,-1,-1
1511885845358426,7,0,0,2,-7,-3,5,-3
1511885845358426,2,-3,-4,-7,-18,4,9,4
1511885845380485,-4,-2,-9,-13,-8,-8,-16,-3
1511885845380485,-5,-4,2,18,-18,-14,3,-1
1511885845380485,-2,-1,-3,-13,1,11,14,-4
1511885845380485,5,0,4,14,11,-9,-14,1
1511885845394526,-7,0,-2,-11,5,6,5,2
1511885845394526,1,-2,-1,-6,-8,-4,5,-1
1511885845402587,-9,-2,-1,2,8,-7,-6,19
1511885845402587,-4,-1,-1,-11,-17,-1,1,-26
1511885845417585,1,-1,-10,6,7,-2,0,0
1511885845417585,5,-2,-9,-24,-11,0,0,-5
1511885845418588,-4,1,6,19,-3,2,-2,-1
1511885845418588,4,0,-1,21,-8,-9,1,6
1511885845440683,-4,-2,7,-11,2,1,5,0
1511885845440683,1,-1,-16,0,12,24,1,1
1511885845440683,3,0,-3,-18,-1,0,-2,-2
1511885845440683,-3,1,3,9,-1,1,0,5
1511885845462706,7,1,7,6,3,-6,3,-3
1511885845462706,-3,-3,-1,-5,-15,-10,3,4
1511885845463705,3,1,3,-6,1,0,-8,-5
1511885845463705,-6,-4,-18,-5,0,5,3,0
1511885845477745,0,-1,5,13,12,2,3,0
1511885845477745,-1,0,2,-5,-12,-5,-1,-3
1511885845477745,-4,0,2,-1,2,-4,25,-1
1511885845477745,2,-1,-4,-10,1,0,-9,0
1511885845499961,0,0,-4,-7,-2,0,-2,1
1511885845499961,3,2,3,-1,-7,3,4,-2
1511885845500932,3,-1,-3,8,2,2,-2,-2
1511885845500932,-3,-2,0,-5,3,-22,-6,2
1511885845523327,0,-2,-6,-3,55,22,13,-2
1511885845523327,-3,2,15,8,-41,-6,-20,-1
1511885845524137,0,-4,-11,-3,-36,-17,-5,-4
1511885845524137,-1,1,-1,-12,7,10,4,-1
1511885845537175,0,-1,4,-13,-26,-13,-3,-1
1511885845537175,-2,-1,-5,20,55,7,15,2
1511885845538174,-2,3,13,3,-17,15,-9,-1
1511885845538174,-4,-7,-17,-14,-30,-15,3,-1
1511885845560412,2,0,4,11,-21,17,1,1
1511885845560412,-5,-1,-1,21,-13,-28,-3,-1
1511885845561346,-3,-1,-2,-4,10,7,-17,-2
1511885845561346,-1,2,5,-7,10,17,24,2
1511885845583296,-1,-1,1,-10,2,-3,-3,2
1511885845583296,-3,-5,-21,7,-15,-1,-3,-2
1511885845584298,-2,-1,3,0,34,-3,-1,-1
1511885845584298,1,-1,0,6,-29,1,-1,0
1511885845597331,0,1,5,-3,9,-1,-21,0
1511885845597331,-2,3,3,-17,-10,-10,4,-3
1511885845598334,5,2,-6,12,27,7,5,4
1511885845598334,2,1,3,-3,-33,0,5,-1
1511885845620396,-1,-1,-4,3,2,-6,-4,-3
1511885845620396,-5,1,3,-3,3,4,-3,1
1511885845620396,-3,-3,-10,-27,-11,-10,-9,-2
1511885845620396,-1,4,12,16,3,14,-9,0
1511885845643632,1,-1,-2,19,-26,-11,15,0
1511885845643632,1,-3,-3,-12,-13,2,-18,2
1511885845644542,-2,-1,1,-3,9,-5,0,-3
1511885845644542,-1,-2,-1,-1,1,-1,14,-3
1511885845657627,4,0,-7,3,3,4,7,1
1511885845657627,-1,1,4,-7,10,-2,-6,1
1511885845658497,-1,1,1,9,15,6,4,1
1511885845658497,0,-1,4,5,-9,-7,-14,1
1511885845679723,-3,-2,-6,-8,-58,-5,-1,-3
1511885845679723,0,0,2,-3,19,5,7,-1
1511885845680555,1,-2,3,8,-1,1,-5,-1
1511885845680555,-1,1,13,-3,19,-1,1,-1
1511885845703661,-1,-3,-17,-14,-27,-12,-4,-1
1511885845703661,0,1,3,-3,8,15,0,1
1511885845703661,1,1,3,25,6,3,25,-1
1511885845703661,0,-1,1,0,5,-11,-4,0
1511885845717737,1,3,1,-10,6,0,-7,0
1511885845717737,1,-3,-5,-4,-32,-11,8,-2
1511885845718747,-5,-2,0,-7,2,-2,-19,-2
1511885845718747,-2,-4,-1,5,18,-2,2,0
1511885845739810,0,0,0,-15,-3,4,7,2
1511885845739810,0,1,9,26,49,5,-1,-1
1511885845740714,1,-1,-4,-1,-38,-13,4,-3
1511885845740714,7,-1,-4,-1,-10,-1,-6,3
1511885845762949,-2,-2,1,-3,32,-3,-9,-2
1511885845762949,-2,-2,1,-5,5,12,5,0
1511885845763775,-1,-1,-2,-10,-44,-8,-3,-2
1511885845763775,-4,1,5,12,89,13,-1,-2
1511885845777985,-1,-2,-5,-2,8,0,3,-1
1511885845777985,1,2,3,-4,-14,-4,-5,-1
1511885845777985,0,1,-1,1,-14,2,2,0
1511885845777985,-3,-3,-10,-11,-18,-4,6,0
1511885845800071,-2,2,21,3,36,8,-14,-3
1511885845800071,-2,0,-16,-3,-11,10,1,-2
1511885845801074,-3,-5,-5,-11,3,-9,-6,-3
1511885845801074,-2,-4,-3,1,19,-5,0,-2
1511885845823366,0,0,3,1,-41,-6,14,-3
1511885845823366,0,-1,2,-3,-69,-8,-5,0
1511885845824282,-3,0,-7,-3,47,6,2,0
1511885845824282,1,4,2,4,-28,-5,-4,0
1511885845837425,-2,0,-3,-2,-27,-19,4,0
1511885845837425,-1,-1,-1,-5,-6,1,-1,-1
1511885845838336,0,-2,-1,-1,-3,-8,-2,-1
1511885845838336,-2,1,0,-1,2,-3,-3,1
1511885845860397,-1,-2,-5,5,-1,5,-3,1
1511885845860397,0,1,1,-4,-18,-9,1,-2
1511885845860397,-2,-2,-2,-2,25,-3,-3,0
1511885845860397,-1,1,4,2,-11,6,1,0
1511885845883420,0,0,-8,5,15,1,0,-1
1511885845883420,-1,-2,1,-2,18,-4,-2,0
1511885845884490,-3,0,-2,-7,-9,-3,3,0
1511885845884490,-1,-3,1,9,-17,5,-3,-1
1511885845897714,1,3,16,6,-1,3,-2,1
1511885845897714,0,-4,-19,-2,43,-2,-1,-1
1511885845898550,0,2,2,-2,-16,6,-1,0
1511885845898550,-2,-3,-6,-8,-7,-7,-1,-1
1511885845920591,-1,-2,5,2,8,7,-1,-1
1511885845920591,-1,-1,-7,-3,10,-9,-2,-2
1511885845921594,0,-2,7,5,2,10,2,-1
1511885845921594,0,2,-1,-1,1,3,-4,-2
1511885845943689,5,2,-1,2,6,-3,2,0
1511885845943689,-3,-2,7,3,88,15,2,2
1511885845943689,1,-3,-4,-5,-78,-8,0,0
1511885845943689,1,-1,1,-2,32,1,-5,1
1511885845957688,-1,-2,-9,1,20,-1,-2,-2
1511885845957688,-2,-2,-1,-5,-18,-10,0,-2
1511885845958691,1,0,3,-10,0,-5,-3,-1
1511885845958691,1,2,0,12,-14,6,2,1
1511885845979788,-2,-1,-1,-5,-6,0,-2,-1
1511885845979788,-2,-4,-4,3,-9,-6,-1,-1
1511885845980752,-4,-3,-8,-7,16,0,-2,-3
1511885845980752,-1,-3,-16,-38,-17,-4,0,-3
1511885846003024,-3,2,-3,34,8,-4,1,0
1511885846003024,4,1,10,-3,30,5,1,0
1511885846003903,0,-2,6,5,-28,-6,-2,-3
1511885846003903,1,0,-6,-11,-12,-3,-5,-1
1511885846017935,-2,-2,-11,-7,4,-1,-3,-2
1511885846017935,-3,6,40,2,1,12,2,0
1511885846017935,-4,-25,-86,-13,-15,-20,-3,-3
1511885846017935,2,3,9,3,33,16,1,1
1511885846039997,-1,1,0,-4,-22,-2,1,0
1511885846039997,0,3,16,4,-13,2,-3,-1
1511885846040995,0,3,16,2,37,2,2,1
1511885846040995,-5,-4,-6,4,-11,2,-1,-2
1511885846063295,0,-2,-3,-12,20,2,-2,0
1511885846063295,-2,-2,-10,7,-39,-6,-1,2
1511885846064180,1,6,17,9,12,0,-1,2
1511885846064180,-2,-1,-5,6,-1,-9,0,0
1511885846077221,0,-1,6,-14,7,4,-1,-1
1511885846077221,0,-3,-10,-5,-16,-7,1,-1
1511885846085239,4,5,3,2,2,7,6,0
1511885846085239,-8,-3,11,10,-3,-18,-3,-6
1511885846100310,4,-2,-6,-7,-8,9,-4,3
1511885846100310,-6,0,-10,-9,-14,2,-1,-2
1511885846101278,-3,2,15,11,18,-2,1,1
1511885846101278,0,-1,-7,-13,-20,-8,3,-2
1511885846123462,-3,-3,-1,23,3,-7,-1,-2
1511885846123462,1,5,23,-6,-9,-9,-4,-3
1511885846124340,2,-1,-35,2,5,0,-2,2
1511885846124340,4,4,24,-3,7,25,-1,2
1511885846137417,-3,-1,5,18,0,-2,2,-1
1511885846137417,1,0,-6,6,-5,-3,5,0
1511885846145400,1,1,12,-3,2,1,-1,1
1511885846145400,1,-4,-8,7,-4,-12,-6,2
1511885846160438,0,0,-6,-10,-1,1,1,-3
1511885846160438,-5,-2,-6,-4,0,1,2,4
1511885846160438,-1,2,11,-1,1,-5,-4,-2
1511885846160438,-3,-2,-14,-7,-4,-13,2,-1
1511885846183501,-2,5,11,4,7,13,7,0
1511885846183501,-2,-3,-13,-3,-5,-6,-10,-1
1511885846184502,0,-3,4,-4,-2,-7,12,-1
1511885846184502,-5,-2,1,3,-1,-5,-7,0
1511885846196659,-2,-1,-7,-10,23,-1,0,-5
1511885846196659,1,-1,-7,5,-37,4,-3,-2
1511885846205647,1,0,14,11,56,6,-3,1
1511885846205647,-1,0,3,5,-6,-4,9,-1
1511885846219816,-1,-4,-8,-20,-2,-7,-15,-1
1511885846219816,4,-1,0,8,3,-2,-2,-1
1511885846220733,1,1,-9,-7,-18,3,-2,-2
1511885846220733,-1,-2,-2,1,-2,-2,3,-1
1511885846242744,-6,-2,0,2,9,5,3,2
1511885846242744,-4,-3,-5,-9,-3,-4,0,-2
1511885846243747,2,3,15,-14,-17,1,-5,0
1511885846243747,2,5,1,28,11,11,2,1
1511885846256780,1,-5,-21,-8,-15,-6,0,1
1511885846256780,-3,-2,1,-5,-2,-18,-4,-2
1511885846264801,-2,3,8,0,0,8,-1,-2
1511885846264801,1,-2,-6,-14,-4,-3,-3,-1
1511885846279841,1,5,38,17,-3,0,-1,-1
1511885846279841,0,-5,-34,-4,-2,-2,2,-2
1511885846280844,0,0,0,7,-4,-4,-3,-2
1511885846280844,5,3,13,-2,-5,4,12,0
1511885846302902,-7,1,-2,-8,-7,-3,-11,3
1511885846302902,4,-3,-2,-11,6,5,3,-3
1511885846303905,-5,-1,1,23,3,-1,1,-1
1511885846303905,0,-2,-6,-2,-5,1,-12,-1
1511885846316940,1,-1,-1,5,3,-12,3,0
1511885846316940,0,-2,-5,-12,4,3,6,1
1511885846325137,-2,0,16,-1,8,4,-3,1
1511885846325137,-2,0,-4,4,15,7,-3,-1
1511885846340154,3,-2,-18,-9,-46,-5,-2,-2
1511885846340154,2,2,15,6,-25,-12,-6,0
1511885846341131,0,-8,-17,1,39,19,6,-2
1511885846341131,0,2,-1,-1,2,10,-1,-1
1511885846363298,0,-2,-2,-8,-16,2,1,0
1511885846363298,-1,-1,2,1,-3,-1,7,0
1511885846364195,-1,1,0,-5,-22,-8,-11,-2
1511885846364195,1,-2,2,3,-9,-5,-4,-2
1511885846377261,-18,-4,-5,6,17,-1,2,0
1511885846377261,8,0,-4,-5,17,7,-2,1
1511885846385252,1,-1,2,-3,-9,-9,-19,1
1511885846385252,-4,-4,-5,-7,2,6,2,-1
1511885846400319,1,-1,1,2,1,-5,4,-1
1511885846400319,-4,1,2,2,16,13,-2,-1
1511885846400319,-4,-4,-5,-9,-21,-2,3,-2
1511885846400319,2,-1,-3,2,-13,-10,-1,0
1511885846423560,-3,1,3,0,3,-2,-1,-2
1511885846423560,0,0,2,-2,1,0,-1,-1
1511885846424412,0,1,-1,6,-4,0,8,-1
1511885846424412,0,0,-3,-3,2,-10,-17,-1
1511885846445440,6,2,4,-4,4,6,4,1
1511885846445440,-3,-4,6,3,2,-1,1,0
1511885846446439,-1,-2,-20,-4,-7,-3,3,-1
1511885846446439,0,1,-7,-11,0,-2,4,1
1511885846460522,0,-6,-19,3,0,-8,-5,-3
1511885846460522,-2,0,9,-10,-3,4,-3,0
1511885846460522,-4,-4,-4,7,-3,-3,1,-2
1511885846460522,0,3,10,1,-4,-2,2,0
1511885846483734,6,2,6,-2,4,3,-2,1
1511885846483734,-4,-5,-12,-6,-2,-2,0,-2
1511885846483734,2,3,12,6,2,-2,2,2
1511885846483734,-2,-2,-6,-5,-5,-3,-1,-2
1511885846505954,-1,1,6,2,0,4,-1,0
1511885846505954,2,1,-2,4,2,-4,-2,1
1511885846506774,1,2,6,-6,-8,-1,-1,-1
1511885846506774,0,6,36,5,-5,-1,0,0
1511885846519919,1,-4,-44,4,3,0,2,0
1511885846519919,-3,-4,9,5,-5,-11,-2,-3
1511885846520811,-1,0,-14,-13,0,2,-1,-1
1511885846520811,-3,-4,0,2,-1,-8,0,0
1511885846542872,-1,1,21,-11,-3,9,1,-1
1511885846542872,-1,5,10,40,6,1,-2,1
1511885846543871,0,-2,1,-6,-6,4,0,-1
1511885846543871,1,-4,-5,-3,-3,-4,1,-2
1511885846565935,0,-2,0,-8,4,0,-1,-1
1511885846565935,-2,-2,-12,-9,-2,-5,-4,-1
1511885846565935,2,-1,8,-1,-2,-1,-1,-1
1511885846565935,-2,-4,-12,-1,-2,3,-1,0
1511885846580145,1,-2,-4,2,5,-3,0,1
1511885846580145,1,-3,6,-1,3,2,0,1
1511885846580971,-4,-1,-3,2,-3,-4,-1,-2
1511885846580971,-1,5,13,-8,-1,2,0,-1
1511885846603032,-3,-3,4,9,-3,-8,-2,-3
1511885846603032,-1,-6,-57,-17,0,-3,0,-1
1511885846604032,-1,-1,2,2,1,-2,2,0
1511885846604032,1,-2,-9,5,12,6,-2,-2
1511885846626224,4,4,23,-23,-29,-3,-1,1
1511885846626224,2,2,11,10,11,-5,0,1
1511885846626224,1,-1,1,-6,-6,2,-3,0
1511885846626224,-4,-4,-13,12,8,-4,-1,-1
1511885846640253,-2,-2,-1,-26,-7,-7,-3,-3
1511885846640253,1,1,15,43,-2,6,-1,-2
1511885846641133,1,0,-4,-4,1,-3,0,0
1511885846641133,-1,0,4,3,-5,-4,2,1
1511885846663232,-1,-3,-13,-9,5,1,-2,0
1511885846663232,-1,2,5,-13,-4,-6,-1,-3
1511885846664231,-3,-3,-9,0,0,1,0,-2
1511885846664231,-2,-2,-6,-13,-9,-2,-2,-2
1511885846685295,2,4,16,31,3,1,3,0
1511885846685295,0,2,-8,-8,6,0,-2,-1
1511885846686297,0,3,26,8,-9,-1,-2,1
1511885846686297,-2,3,7,-20,1,2,0,0
1511885846700445,-4,-16,-53,-4,-31,-12,-2,-3
1511885846700445,0,2,25,7,-8,7,-1,1
1511885846700445,-1,-3,-4,-10,13,-1,-2,-3
1511885846700445,2,5,16,5,-5,17,4,1
1511885846723455,1,7,26,17,-25,-11,1,0
1511885846723455,-1,-4,-23,-16,11,7,0,-2
1511885846723455,1,-1,3,-2,-8,3,1,-1
1511885846723455,-1,-2,-8,5,7,-11,-2,-2
1511885846745685,1,3,-4,-3,15,1,-2,-1
1511885846745685,-3,-4,-2,-19,-13,-12,-3,-1
1511885846746514,-1,3,4,5,3,21,1,-1
1511885846746514,0,-6,-13,5,3,-11,-1,0
1511885846759551,-1,-1,0,-9,13,12,-1,-2
1511885846759551,-2,2,5,7,-5,-6,0,-1
1511885846760550,-2,0,-2,2,-5,-8,-1,1
1511885846760550,2,-2,3,0,-3,3,-1,-1
1511885846783615,0,-3,-31,-7,11,-2,-1,0
1511885846783615,-2,-1,28,-2,-5,-5,-1,-1
1511885846783615,0,-1,-18,-4,0,-4,-1,0
1511885846783615,0,1,-1,6,19,5,2,1
1511885846805867,-1,2,14,-4,3,8,2,-1
1511885846805867,-1,-1,-5,-5,2,-4,-1,0
1511885846806674,0,-2,-6,-4,-25,-11,-2,-1
1511885846806674,0,1,0,2,21,5,2,1
1511885846819711,-2,-1,2,-2,-15,-21,-5,-3
1511885846819711,0,-2,-14,-4,-3,-6,-1,-1
1511885846820710,-2,-3,9,-4,5,16,-1,-2
1511885846820710,1,0,-9,1,-1,-5,1,1
1511885846842864,0,1,5,8,8,4,1,1
1511885846842864,-2,-1,-2,-5,-5,-4,0,-2
1511885846843772,1,-2,-4,-3,-5,-16,-2,-1
1511885846843772,-3,-3,-8,-6,-15,15,0,-2
1511885846865835,2,2,3,2,12,0,0,1
1511885846865835,1,1,9,-1,0,1,0,2
1511885846866939,1,0,0,2,7,2,0,0
1511885846866939,-3,-4,-5,-3,-19,-13,-2,-2
1511885846879976,0,-1,9,5,7,-3,2,1
1511885846879976,-2,-2,-12,-3,1,-8,-2,-1
1511885846880979,-1,0,0,1,0,25,2,-1
1511885846880979,1,-1,-2,-3,-4,-13,0,1
1511885846903124,-1,0,6,-1,0,-4,-1,-1
1511885846903124,0,-1,-4,-3,-2,7,-2,1
1511885846904040,0,-1,-6,0,2,-8,1,1
1511885846904040,-2,0,4,-1,-4,2,-3,-2
1511885846926212,-1,-2,-1,0,4,4,-1,0
1511885846926212,0,-1,-2,-1,-1,6,0,0
1511885846926212,-2,-2,1,-1,0,-14,-3,-1
1511885846926212,-1,-2,-5,-3,-2,7,-1,-1
1511885846940182,2,1,14,3,1,-1,-1,-1
1511885846940182,0,-3,-21,-3,0,3,-1,-1
1511885846941141,0,-1,2,-4,-1,-6,0,0
1511885846941141,0,-2,-2,-1,-5,-9,-1,-1
1511885846963322,-1,1,1,-1,3,7,0,0
1511885846963322,1,0,7,2,0,4,0,0
1511885846964202,-1,1,-1,2,0,-4,-2,1
1511885846964202,0,0,0,-1,-1,-5,-1,0
1511885846986285,-2,-2,-4,1,-2,0,-1,0
1511885846986285,-2,-1,2,0,0,3,0,-3
1511885846986285,-1,-5,-15,-3,-1,-2,1,-1
1511885846986285,1,2,5,0,-5,-8,-5,0
1511885846999295,-1,3,3,2,1,7,1,2
1511885846999295,-1,1,0,-7,-3,0,1,1
1511885847007357,-1,-3,4,2,-2,-8,-1,-2
1511885847007357,-2,-1,3,1,1,-2,1,-2
1511885847022383,2,-1,-17,2,-1,0,-2,-1
1511885847022383,-1,1,15,-2,0,0,-2,0
1511885847023358,-1,0,-13,-2,1,-1,0,0
1511885847023358,-1,-1,4,-1,-2,-2,0,-2
1511885847045420,-1,1,10,1,-3,-5,-1,-3
1511885847045420,0,-2,-23,-7,1,10,0,0
1511885847046423,0,1,3,0,0,0,-2,0
1511885847046423,-2,-2,-4,0,2,4,-2,-1
1511885847059454,-1,-1,1,-1,1,0,6,1
1511885847059454,0,0,4,2,-3,-4,-2,-3
1511885847067479,0,1,6,1,0,-2,-1,-1
1511885847067479,0,-1,-9,-3,-1,-2,-2,-1
1511885847083722,-1,-1,-1,0,-1,-1,-1,1
1511885847083722,1,1,-2,3,-2,0,2,-2
1511885847083722,2,5,4,1,0,-2,-3,0
1511885847083722,1,-2,2,0,-3,-7,-2,-1
1511885847105687,-7,-5,-8,-4,0,-4,-2,-2
1511885847105687,-3,-1,0,3,3,-2,1,-1
1511885847106579,-2,-4,-1,-2,-10,-16,-4,-4
1511885847106579,1,2,-2,1,4,19,6,2
1511885847119616,3,3,3,0,0,-3,-1,0
1511885847119616,0,2,24,2,-1,-1,-2,1
1511885847127639,-2,-5,-51,-2,4,4,1,1
1511885847127639,1,1,10,2,0,-6,-2,-2
1511885847144708,0,-3,-2,-4,-2,1,0,-2
1511885847144708,0,1,2,2,1,-2,-2,-1
1511885847145710,1,3,14,-1,-2,1,-1,0
1511885847145710,-1,-2,-5,-3,-2,-2,0,-1
1511885847165735,-1,-3,-5,-1,1,-1,-2,-2
1511885847165735,0,0,0,1,1,-3,1,0
1511885847166739,2,3,10,1,0,1,0,2
1511885847166739,0,0,-6,-1,0,0,-2,-1
1511885847187905,1,3,9,-1,0,-5,1,1
1511885847187905,1,1,-8,-2,0,-6,7,0
1511885847188796,-2,-1,5,-2,0,-5,-22,-4
1511885847188796,-2,-2,-6,-22,-20,-11,8,-3
1511885847202954,1,2,2,14,18,-3,-8,-3
1511885847202954,0,1,1,1,-3,-10,21,15
1511885847203837,-1,0,7,4,0,-12,-21,-4
1511885847203837,2,3,2,3,8,-8,-24,2
1511885847225896,0,-2,-8,-19,-14,-5,-19,0
1511885847225896,1,-1,-7,-4,1,-9,19,-7
1511885847226903,-2,0,8,1,-1,-6,15,0
1511885847226903,-3,-2,0,0,0,-18,8,0
1511885847239944,0,-1,5,8,4,-13,-5,0
1511885847239944,-1,-1,-3,-2,0,-12,-17,-2
1511885847247955,0,1,1,-5,-2,-17,14,2
1511885847247955,2,2,-2,5,4,-14,0,0
1511885847262137,-2,3,10,8,10,-21,16,1
1511885847262137,2,-6,-1,0,4,84,-18,0
1511885847271141,-1,-8,-1,-2,0,61,-4,-4
1511885847271141,-3,-7,-5,1,-5,75,-14,-2
1511885847286177,-1,1,-2,-4,-7,-72,11,-4
1511885847286177,0,7,0,-2,-4,-118,5,7
1511885847287183,1,5,1,-1,-1,-72,-1,2
1511885847287183,0,1,0,1,5,-16,19,2
1511885847299214,-1,-4,-5,-3,-4,29,7,3
1511885847299214,0,2,1,-1,1,-20,-15,-4
1511885847308236,2,2,1,1,2,-9,12,1
1511885847308236,2,2,2,0,2,-15,2,2
1511885847322367,2,1,-2,-4,1,16,5,-2
1511885847322367,-2,-4,-1,-5,-3,19,-6,-4
1511885847330297,-2,-2,2,6,10,46,2,-1
1511885847330297,-1,-2,-3,-2,1,12,-4,-3
1511885847345335,1,-3,-1,-2,-7,17,-6,-3
1511885847345335,-2,-3,-2,1,-2,3,-4,-3
1511885847347340,1,0,-3,-8,-3,14,-2,1
1511885847347340,-3,-1,-2,1,-2,1,-2,-3
1511885847368437,1,-3,-3,-4,-4,19,-6,-2
1511885847368437,-1,-3,-2,-3,-4,24,-5,-1
1511885847369399,-3,-2,-1,-8,-8,17,-2,-3
1511885847369399,-2,-4,0,4,-2,0,-4,-2
1511885847381558,-2,1,-2,-2,2,-12,-3,0
1511885847381558,0,0,1,0,2,-15,5,-2
1511885847390581,-1,2,1,1,0,-33,4,0
1511885847390581,-1,2,1,-1,-1,-30,5,0
1511885847405623,-2,2,2,0,-2,0,2,1
1511885847405623,-1,-1,-4,-1,-3,11,-1,-1
1511885847407624,0,-1,-1,2,-2,2,0,0
1511885847407624,0,-1,0,-2,-1,-2,-1,-1
1511885847428680,-1,-2,-2,1,-2,-1,1,-1
1511885847428680,-2,0,-1,3,1,10,2,-1
1511885847429683,-2,-1,0,-1,-2,-4,-1,1
1511885847429683,-1,0,0,2,0,-3,0,-2
1511885847441715,0,-1,-4,-5,-3,-1,-2,1
1511885847441715,-1,1,0,0,-1,-11,-1,0
1511885847450739,1,1,-1,1,0,-21,5,0
1511885847450739,1,3,0,1,1,-23,3,0
1511885847465783,-6,2,1,1,1,-7,3,0
1511885847465783,4,0,3,0,0,3,-1,3
1511885847466897,-1,0,-2,-1,-1,9,-1,-1
1511885847466897,-2,0,11,5,2,8,-2,0
1511885847488075,-4,-3,-22,-6,-2,4,-2,-5
1511885847488075,-3,1,14,5,1,-2,2,0
1511885847489961,1,1,-4,-3,0,-1,-1,0
1511885847489961,-1,-2,2,5,-1,-5,-2,-2
1511885847501995,-1,-2,-5,-2,-1,-7,3,3
1511885847501995,-2,-1,3,0,-4,-4,0,-2
1511885847511152,-1,-4,-8,1,0,5,-1,-1
1511885847511152,1,2,7,-2,-1,-4,2,-1
1511885847526193,-4,0,-2,1,2,18,1,-5
1511885847526193,3,-3,-11,-6,-1,0,-2,-5
1511885847527196,1,1,22,-3,-1,-5,-6,9
1511885847527196,-1,-1,-25,0,-1,0,0,1
1511885847548254,-2,-1,14,3,-1,-11,0,-1
1511885847548254,-7,1,-8,-6,1,6,2,-9
1511885847551261,6,-2,11,7,1,3,-9,12
1511885847551261,0,0,30,5,-2,-10,6,1
1511885847561309,4,0,-37,-3,1,18,-3,1
1511885847561309,10,14,22,0,0,7,4,2
1511885847571312,-16,-12,1,3,-1,-1,-1,-9
1511885847571312,-10,-15,1,-8,-2,7,-8,-2
1511885847585349,2,4,8,-2,-4,0,-4,-5
1511885847585349,-9,3,-26,0,1,0,-1,-2
1511885847587355,7,-12,5,-9,-2,-2,1,0
1511885847587355,0,8,-5,6,0,-7,-3,0
1511885847608463,8,18,10,3,1,-8,-1,1
1511885847608463,3,2,-16,5,-1,-5,2,0
1511885847609414,-11,-8,13,-14,-5,-10,-1,-5
1511885847609414,-6,-40,-94,-20,-1,-5,2,-2
1511885847622454,-7,-5,16,-7,-1,-12,-3,-4
1511885847622454,5,21,34,17,5,12,-11,1
1511885847630470,4,19,-7,15,4,-2,7,4
1511885847630470,11,14,28,-3,0,5,4,-3
1511885847645534,-12,-27,17,-4,1,0,1,4
1511885847645534,4,-11,-23,-1,-7,-13,-33,4
1511885847647551,-4,7,-7,2,-2,14,5,-14
1511885847647551,9,15,28,4,0,-14,-10,0
1511885847668571,-11,-28,-34,-9,0,14,9,-1
1511885847668571,-6,-25,-8,-5,-2,5,10,0
1511885847669577,0,-3,-10,-9,-5,-21,-10,-6
1511885847669577,-2,15,-4,1,0,4,0,0
1511885847681609,10,31,22,2,0,2,0,2
1511885847681609,-1,-9,6,3,3,7,10,5
1511885847690683,-6,-2,-2,7,-1,-12,4,0
1511885847690683,-2,-6,-10,-7,-2,1,-7,-5
1511885847705723,3,9,8,1,0,3,-3,-3
1511885847705723,-5,-28,-20,-14,-3,-2,3,-2
1511885847707754,5,23,0,9,0,-10,0,-1
1511885847707754,-2,-12,28,7,3,2,3,1
1511885847727781,18,14,-3,7,0,19,-9,8
1511885847727781,0,13,-7,-11,-1,0,0,-3
1511885847729783,-13,-36,10,-1,1,16,5,-6
1511885847729783,-7,19,-4,-7,-2,8,-3,-2
1511885847741816,7,26,8,15,6,-32,16,4
1511885847741816,10,31,18,7,1,-7,-4,6
1511885847750839,-1,-77,-57,-7,1,24,-3,1
1511885847750839,-24,-36,-13,-7,-3,6,-1,-16
1511885847773106,-6,27,12,-10,-5,-11,-11,-9
1511885847773106,3,11,23,6,-2,10,9,9
1511885847774940,27,65,1,-5,7,-5,1,6
1511885847774940,6,26,49,13,-6,4,-2,11
1511885847787975,-16,-62,-3,2,-1,1,-9,-9
1511885847787975,-12,6,-46,-21,-8,-29,-3,-17
1511885847789977,-6,10,23,-3,-3,-10,-3,-4
1511885847789977,8,-9,-37,-3,1,0,3,4
1511885847802012,8,35,47,15,-3,-3,3,3
1511885847802012,-5,-36,-8,-1,9,1,-1,1
1511885847811033,1,-5,-17,-3,-17,-3,-1,0
1511885847811033,-2,10,20,2,-1,-7,-2,-3
1511885847826126,-4,-33,-35,-4,0,4,-4,0
1511885847826126,-13,-5,2,-4,-6,-4,0,-3
1511885847827082,-3,6,5,-2,0,-5,0,-4
1511885847827082,8,18,-10,-4,2,0,4,3
1511885847849139,11,32,-16,4,2,4,-2,4
1511885847849139,-2,-6,26,8,3,3,0,-2
1511885847850137,-34,-51,21,9,-1,0,0,-11
1511885847850137,24,-16,-81,-22,2,-1,-3,29
1511885847862203,-1,-21,-39,-7,-4,-17,1,9
1511885847862203,9,35,23,3,2,13,2,-11
1511885847871223,8,39,27,8,3,-3,4,-3
1511885847871223,-3,-18,38,17,-1,0,3,-6
1511885847885312,-12,-15,4,-13,-4,4,-2,1
1511885847885312,0,16,-39,-20,-6,-15,-4,-7
1511885847887340,-2,-31,-21,28,11,3,10,6
1511885847887340,-4,7,8,-9,-23,-19,-6,-6
1511885847908373,5,10,11,6,31,-4,7,0
1511885847908373,-7,-19,17,3,-12,-19,-8,0
1511885847909379,12,22,2,-8,8,2,-6,2
1511885847909379,4,19,-1,-2,3,-2,4,3
1511885847921450,-11,-21,33,10,-14,-9,4,-5
1511885847921450,4,-4,-47,-8,1,-3,-2,1
1511885847930458,1,14,17,0,6,13,11,-1
1511885847930458,-29,-41,-62,-5,-5,-14,-4,-14
1511885847945473,8,-11,-25,-22,-11,5,-6,1
1511885847945473,1,1,20,18,7,0,1,6
1511885847947475,15,43,82,9,-7,10,-4,5
1511885847947475,-5,-7,-50,-17,5,19,1,-8
1511885847968535,-8,-4,3,1,-6,9,-8,-7
1511885847968535,2,-11,-1,-1,2,19,1,5
1511885847969533,-6,-2,-14,1,3,1,-5,-5
1511885847969533,9,11,52,12,7,9,-2,2
1511885847981567,-12,-15,-25,-5,-1,-3,-4,-4
1511885847981567,4,-9,-6,-4,-6,-4,1,0
1511885847990708,-3,1,-12,-11,-1,-5,-1,1
1511885847990708,2,1,13,4,1,-7,-1,1
1511885848005747,9,7,-2,0,0,-1,0,3
1511885848005747,-5,12,16,8,1,-7,1,-2
1511885848006750,-3,-18,-34,-15,-6,-8,0,0
1511885848006750,0,-1,16,3,2,-4,-2,0
1511885848027808,-1,8,4,2,-1,0,2,-4
1511885848027808,0,1,10,4,6,1,3,2
1511885848029811,3,-6,-19,-6,-4,-9,-7,1
1511885848029811,-1,1,6,-2,-3,-1,1,-4
1511885848041844,-7,-2,17,1,-2,3,1,-2
1511885848041844,-2,-5,-20,-10,-5,-5,-2,0
1511885848050867,0,-3,-6,14,1,2,-2,1
1511885848050867,0,4,-4,-2,3,0,1,0
1511885848064905,-1,-2,1,4,-4,0,2,-3
1511885848064905,1,-5,4,-25,0,3,0,1
1511885848072176,2,6,2,19,0,-10,-1,1
1511885848072176,-3,-2,8,0,-1,5,1,-2
1511885848088348,2,0,-3,2,-1,-1,-1,1
1511885848088348,-4,-6,-2,-4,-1,5,2,-2
1511885848090322,-2,-3,-11,-17,-8,-6,-3,-1
1511885848090322,1,0,11,13,3,-1,-4,-1
1511885848102286,4,8,-2,4,2,2,0,2
1511885848102286,-5,-6,1,-8,-7,-2,0,-2
1511885848110313,-4,-8,-7,-15,3,1,-1,-1
1511885848110313,1,4,3,6,-3,-5,-1,1
1511885848125356,1,2,-3,7,5,3,-1,-2
1511885848125356,2,1,5,13,5,0,0,0
1511885848127358,-1,-3,-6,-16,-3,-5,-3,0
1511885848127358,-2,-2,1,-11,-1,4,-1,-1
1511885848148412,0,0,4,13,2,-1,0,1
1511885848148412,-1,-4,3,4,2,-2,9,0
1511885848149414,-3,-1,-12,-8,-7,-10,-16,-3
1511885848149414,-1,3,4,-10,5,17,6,0
1511885848161445,-3,-4,-10,-10,-12,0,1,-6
1511885848161445,0,0,9,15,9,4,0,3
1511885848170472,1,2,-3,0,-1,10,9,1
1511885848170472,1,2,5,15,-16,28,8,2
1511885848184508,-2,-2,-3,-14,-21,-4,0,-3
1511885848184508,-3,-5,-5,-12,-9,4,1,-2
1511885848191525,-1,1,0,-2,6,-3,-4,0
1511885848191525,-2,-1,1,-1,13,-8,8,-1
1511885848208570,2,2,-3,-5,9,-1,3,4
1511885848208570,1,0,2,7,5,-1,-33,-1
1511885848209573,2,0,-1,3,-1,5,59,2
1511885848209573,-2,-1,-2,-3,-2,-8,-7,-2
1511885848221710,2,0,2,3,16,10,5,2
1511885848221710,-1,1,2,4,20,2,0,0
1511885848230629,-2,-2,-5,0,5,-9,-15,2
1511885848230629,-1,1,0,-1,-15,-6,-8,-2
1511885848244668,-2,1,0,0,11,3,1,-1
1511885848244668,0,-3,-3,-3,-34,-1,0,0
1511885848251684,-1,-1,0,-5,6,6,-3,-1
1511885848251684,-1,-2,1,2,12,-6,-6,-6
1511885848267844,-2,-2,-1,-3,7,-12,-11,8
1511885848267844,-3,0,-2,4,-1,2,13,-8
1511885848269849,-1,-2,-4,0,9,4,-22,-5
1511885848269849,1,0,0,-5,-20,3,-3,1
1511885848291010,-1,-1,-1,-5,-14,0,7,-1
1511885848291010,-1,1,3,1,-1,-9,5,2
1511885848291908,2,1,0,-3,1,-3,-1,1
1511885848291908,-5,-3,-8,-17,-29,-38,-8,-5
1511885848303943,-2,-2,3,9,-5,9,-6,-3
1511885848303943,9,1,0,-1,-21,-11,2,0
1511885848312968,2,1,-1,3,3,0,-7,-4
1511885848312968,1,-3,-2,-1,-1,-2,7,2
1511885848328007,0,1,-4,-7,-8,-18,-15,1
1511885848328007,-6,-1,1,-3,-3,-12,-3,-2
1511885848330009,1,-1,0,3,14,0,-5,3
1511885848330009,1,2,2,3,-25,12,5,0
1511885848351066,-3,1,-2,-9,12,12,9,-2
1511885848351066,2,1,2,4,17,20,-1,0
1511885848352073,-2,-1,-4,2,-1,4,0,-1
1511885848352073,0,2,3,5,5,-5,-1,2
1511885848364102,-2,-4,-5,-5,0,-10,-10,-6
1511885848364102,-3,-1,2,1,-11,-5,1,-1
1511885848373127,-3,-1,0,1,3,-11,6,-2
1511885848373127,-1,-2,-3,0,-12,-29,-11,0
1511885848388206,3,2,-1,-3,-21,-2,-1,-1
1511885848388206,0,-3,-5,-3,29,23,7,2
1511885848390176,-6,-2,-1,-12,-17,-9,-9,-3
1511885848390176,0,0,2,4,15,13,23,3
1511885848410225,-1,-1,1,0,-12,4,-10,2
1511885848410225,-4,1,-2,3,4,-10,-1,-6
1511885848412227,13,1,-2,0,-12,-10,-7,-1
1511885848412227,-4,-1,-2,-8,24,-12,-7,2
1511885848425265,1,1,-2,-6,-33,-2,17,4
1511885848425265,-5,-2,1,13,43,7,-11,1
1511885848432283,-2,-1,0,-2,-28,-15,-11,-1
1511885848432283,-1,-1,0,1,16,15,8,-3
1511885848448325,0,-1,-2,-7,-8,-12,-14,-3
1511885848448325,1,1,0,6,-8,-8,-7,0
1511885848449327,-3,-3,-4,0,11,22,8,-1
1511885848449327,1,1,4,-4,12,9,-4,-1
1511885848470386,-4,-2,-2,7,11,-10,4,-3
1511885848470386,2,1,1,4,-33,12,0,0
1511885848472392,-3,1,3,7,72,5,-1,2
1511885848472392,-1,-3,-5,-5,-12,-6,-7,0
1511885848485423,1,-1,-1,4,13,6,1,-3
1511885848485423,1,-2,1,4,6,-27,-6,-1
1511885848491442,2,-1,-2,-4,-58,4,33,8
1511885848491442,-2,2,-1,-1,11,9,-49,-13
1511885848508521,1,-2,-2,-2,10,-4,54,2
1511885848508521,-2,0,-1,-5,9,2,-7,1
1511885848509488,-6,0,-3,4,-21,-15,-13,-2
1511885848509488,2,-1,-2,-10,-1,7,-1,3
1511885848530660,13,3,2,4,14,2,-6,-3
1511885848530660,0,-1,-2,-7,-18,-10,0,-1
1511885848532551,4,-1,1,-2,6,5,0,1
1511885848532551,-5,0,0,3,1,0,20,0
1511885848544580,-1,0,1,13,-2,-9,-11,-3
1511885848544580,2,-1,-3,-5,56,19,6,3
1511885848553607,-2,1,0,-7,-39,1,-4,-4
1511885848553607,0,-1,-3,1,-28,-28,-7,-1
1511885848567641,-4,-2,-2,-4,-11,21,-2,3
1511885848567641,-3,-2,-4,-13,-15,-12,-2,-3
1511885848569647,-4,0,0,3,39,24,1,-3
1511885848569647,1,-1,1,9,14,1,4,0
1511885848590816,-3,-1,0,-3,-7,7,-46,1
1511885848590816,-4,-3,-2,-2,-23,1,39,-4
1511885848592763,0,-1,-2,0,54,1,-15,-1
1511885848592763,1,0,-1,-5,15,9,10,2
1511885848604740,-6,-1,1,-6,-65,-18,-1,-7
1511885848604740,2,-2,0,-4,0,-11,-12,-2
1511885848612941,-8,0,-1,3,-1,-12,-48,-3
1511885848612941,2,-2,0,8,25,4,62,5
1511885848627903,-3,2,-1,-1,14,-12,-5,0
1511885848627903,2,0,-1,-3,-47,-26,-15,1
1511885848629806,-1,-1,1,2,23,33,22,-1
1511885848629806,-4,-3,0,-2,-15,-5,-15,-1
1511885848650862,-3,-4,-5,1,88,15,-8,0
1511885848650862,0,4,3,7,-68,-15,12,0
1511885848651870,2,0,0,-8,-92,-16,-13,-2
1511885848651870,-1,-1,0,9,27,-4,-11,2
1511885848673051,0,-1,0,-2,13,3,17,-2
1511885848673051,-2,-4,-5,-4,53,-15,-21,-3
1511885848675053,2,0,0,-1,-35,8,16,0
1511885848675053,1,1,3,4,-57,-14,-8,1
1511885848688184,-1,-2,-3,-1,25,11,9,2
1511885848688184,-3,0,-2,2,0,-10,-7,-3
1511885848690187,-1,-1,-3,-7,0,-40,-3,-2
1511885848690187,-2,-2,-4,-5,-30,15,2,-2
1511885848710282,1,3,3,2,-16,-6,-11,0
1511885848710282,0,1,2,7,24,25,-1,2
1511885848712246,-3,0,-2,1,-7,11,12,0
1511885848712246,1,1,-1,3,7,-6,-12,0
1511885848724313,-1,-3,0,-3,-13,12,4,-3
1511885848724313,-2,-2,2,-9,61,-9,-8,-3
1511885848733301,-3,-5,-13,-2,-70,-17,19,-4
1511885848733301,-1,-1,1,-2,-63,-17,-36,0
1511885848748345,-4,-2,-6,-13,69,15,-4,-3
1511885848748345,0,3,5,16,-11,-5,7,1
1511885848749344,-6,2,4,2,35,10,-28,-2
1511885848749344,6,-4,-5,-5,31,9,30,0
1511885848770519,4,-1,-3,-3,-49,-14,20,-1
1511885848770519,-3,-1,-3,-6,8,17,-8,-2
1511885848772442,-1,-1,1,-9,7,-24,-3,0
1511885848772442,0,2,4,8,-8,7,-8,1
1511885848784438,3,3,6,5,2,-1,-9,2
1511885848784438,0,-2,-4,-5,-11,6,10,0
1511885848793460,-1,-5,-7,-10,-3,-10,5,-1
1511885848793460,-5,-2,-1,-12,-52,-18,0,-2
1511885848808502,-2,-3,0,17,65,28,8,1
1511885848808502,-1,-1,2,1,-23,14,-4,-2
1511885848809505,4,2,2,4,3,-1,0,2
1511885848809505,-2,-1,-3,-3,14,1,-5,-2
1511885848830561,-5,-2,-5,-7,-27,-16,-9,-2
1511885848830561,1,3,1,1,-10,6,-1,1
1511885848832566,0,-2,3,5,72,12,4,-2
1511885848832566,-1,-3,-2,-4,6,16,8,-1
1511885848844721,1,2,2,1,-46,-11,4,-3
1511885848844721,-2,-3,-3,-3,23,7,-24,-1
1511885848853626,-6,-4,-2,-1,10,-3,14,-1
1511885848853626,4,4,4,4,27,6,-10,-3
1511885848868668,-6,-2,0,-4,-7,-3,-5,0
1511885848868668,4,-6,-6,-5,-39,-32,2,2
1511885848869667,-1,1,1,3,28,9,-3,-1
1511885848869667,0,1,8,3,-57,5,-3,0
1511885848890907,-6,-1,-2,2,-4,10,-2,-2
1511885848890907,2,1,7,-3,8,5,6,-1
1511885848891884,2,-2,-13,-2,-11,3,-2,1
1511885848891884,1,-2,0,-4,27,-7,6,-2
1511885848904779,-3,-4,-2,-1,-27,-6,-4,2
1511885848904779,-3,-1,-2,-6,-34,-8,-3,-1
1511885848912886,1,-2,-1,2,-13,4,-2,-2
1511885848912886,0,2,2,4,41,4,0,1
1511885848927821,0,-2,0,1,-51,-12,3,0
1511885848927821,-2,-1,-4,-7,-24,-6,-19,-4
1511885848929823,8,0,6,-1,21,3,7,1
1511885848929823,-1,0,-6,3,15,-3,0,-1
1511885848950917,4,-1,4,-1,-1,-3,17,1
1511885848950917,-4,-2,-5,-2,-6,-4,-13,-1
1511885848951899,-1,2,0,-1,-4,1,-1,-4
1511885848951899,3,-2,-4,-7,-23,-8,-31,1
1511885848963923,-1,0,6,3,53,5,53,-3
1511885848963923,4,1,-6,-1,-45,2,8,-1
1511885848972938,9,-2,7,8,-10,3,-4,3
1511885848972938,-5,1,10,-1,21,-8,2,-4
1511885848988164,-4,-8,-40,-14,-1,-6,-27,-1
1511885848988164,1,-2,9,2,23,5,9,1
1511885848989984,-4,0,2,4,-16,-17,1,0
1511885848989984,-3,-1,1,-7,-3,0,4,0
1511885849011201,8,4,8,3,2,0,-14,1
1511885849011201,-4,-1,-7,-1,7,5,8,-2
1511885849012043,-3,-2,-2,0,-2,0,-5,-2
1511885849012043,-5,-2,-6,1,21,8,9,0
1511885849024180,5,0,5,-6,-11,1,-5,-1
1511885849024180,-11,-2,-2,6,14,1,0,0
1511885849033098,-3,1,5,-6,-7,6,2,1
1511885849033098,3,0,-2,12,4,-7,4,-1
1511885849048142,-1,1,1,3,-3,6,2,-2
1511885849048142,0,-1,-1,-5,5,0,1,1
1511885849050144,-1,-1,0,-3,-5,2,3,-1
1511885849050144,-4,-5,-15,-7,-7,-2,-1,-1
1511885849071199,1,1,10,12,4,-6,-9,1
1511885849071199,1,1,0,-2,24,9,4,1
1511885849072202,-3,4,35,-2,-11,5,-2,-3
1511885849072202,0,-6,-46,-3,-18,-13,4,-2
1511885849084237,-3,0,10,1,26,4,-11,0
1511885849084237,4,0,-1,4,19,19,5,1
1511885849093259,3,1,-3,0,15,7,-2,2
1511885849093259,-7,2,17,0,-27,14,-1,-2
1511885849108404,-1,-1,-3,-4,-56,-25,1,2
1511885849108404,-2,1,-2,5,79,9,-11,-2
1511885849110304,-2,-3,-7,-9,-1,3,-6,1
1511885849110304,0,1,8,19,16,5,9,0
1511885849130398,-3,-2,-8,-5,-10,0,-4,1
1511885849130398,0,0,3,-4,-26,-8,-2,-2
1511885849132364,-2,-4,-14,-13,-29,-37,-9,-4
1511885849132364,1,1,2,-3,-3,1,12,-1
1511885849144435,2,2,2,8,31,7,-31,2
1511885849144435,-1,0,5,3,-25,-21,3,-2
1511885849153418,1,-4,-7,6,31,1,0,-1
1511885849153418,-2,-2,-1,-14,-13,12,-19,-2
1511885849167492,1,1,6,0,2,0,9,-1
1511885849167492,-3,-4,-4,-3,-11,3,0,0
1511885849174474,-1,0,-4,5,-14,7,3,1
1511885849174474,-1,-4,3,-7,4,-10,-7,-3
1511885849190846,2,2,6,2,6,-2,2,-2
1511885849190846,2,-1,-16,-8,0,2,2,2
1511885849192663,-3,0,7,9,-8,-6,2,0
1511885849192663,1,0,0,-1,19,1,6,1
1511885849204807,-7,-2,5,-13,-13,-2,-2,-1
1511885849204807,-1,2,-8,13,-14,-3,4,-1
1511885849213720,0,-2,-1,3,-8,-1,0,-1
1511885849213720,-1,0,4,-5,-20,2,9,-1
1511885849227870,0,-1,-1,6,88,17,-32,0
1511885849227870,1,1,8,-8,-47,9,9,3
1511885849234778,-3,2,-5,-3,-20,-9,30,0
1511885849234778,0,0,5,22,28,14,-6,1
1511885849250820,-1,-2,-6,-5,-22,-8,5,-1
1511885849250820,1,-2,2,0,12,-1,0,1
1511885849251823,0,-2,-7,-9,-36,-10,-5,1
1511885849251823,-1,-1,0,-10,12,-5,-10,-2
1511885849272876,-1,0,-2,0,-23,-5,8,-3
1511885849272876,-1,-1,5,2,5,1,-5,-1
1511885849274883,-1,-1,-2,0,0,4,-1,-1
1511885849274883,-7,-1,-2,-5,-6,-9,-7,-3
1511885849287919,4,0,-2,3,24,-5,-3,1
1511885849287919,1,-1,-3,-4,3,-8,2,-3
1511885849293972,-2,-1,-1,1,-6,12,-3,0
1511885849293972,-1,0,1,3,30,27,-8,-1
1511885849311197,-2,-2,-6,-2,-14,-6,1,-2
1511885849311197,-1,3,5,10,27,6,8,1
1511885849312016,1,0,-2,6,44,8,-9,-4
1511885849312016,1,0,-2,-7,-52,-21,-2,2
1511885849333075,-5,-2,-3,-7,-46,-10,0,-2
1511885849333075,1,0,2,-3,5,-4,6,-2
1511885849335081,1,1,4,5,8,8,-9,0
1511885849335081,0,-1,-5,-8,2,-16,2,1
1511885849347110,0,-1,-2,3,0,-1,3,1
1511885849347110,-4,-4,-2,-3,-58,-7,-5,-1
1511885849356165,2,0,-4,0,35,-2,-3,-1
1511885849356165,-1,-2,-2,-3,-11,-4,2,-2
1511885849371175,2,2,3,1,49,6,12,0
1511885849371175,0,2,0,-4,-47,-1,-17,-1
1511885849372182,-1,0,2,0,10,-5,-2,-1
1511885849372182,1,-1,0,4,6,-7,6,-1
1511885849393274,-2,-1,-5,-1,-62,-14,-2,-3
1511885849393274,7,-1,-3,-8,40,-20,2,1
1511885849394256,-3,-4,-2,-6,-9,3,3,-1
1511885849394256,-2,-2,-1,-1,19,-3,-3,-1
1511885849407313,-1,-1,0,-1,1,1,-5,0
1511885849407313,-3,-1,0,-7,-33,1,5,-1
1511885849414292,1,1,0,9,-14,-4,-4,0
1511885849414292,3,0,2,2,46,15,5,2
1511885849430453,-3,-3,-4,-2,6,-8,4,-3
1511885849430453,-1,0,-2,-4,15,4,-4,-2
1511885849432477,-3,-1,-5,-3,21,-1,3,-2
1511885849432477,-1,-1,-1,-1,-91,7,0,-3
1511885849453549,0,0,0,-6,20,9,-2,-1
1511885849453549,-3,1,1,-3,-17,0,-1,-1
1511885849454548,-1,-3,-2,-2,-22,-16,-6,-1
1511885849454548,1,0,0,1,22,-4,0,-1
1511885849467821,0,-2,0,1,-47,-9,-3,-2
1511885849467821,-4,-1,-3,-4,19,1,2,0
1511885849474727,0,-1,-2,-5,-10,-3,-1,0
1511885849474727,0,-1,1,7,-35,-7,-2,-2
1511885849491088,0,1,-2,-2,1,9,2,2
1511885849491088,0,-1,1,9,14,2,0,0
1511885849492025,-3,0,0,-5,48,6,-1,-2
1511885849492025,2,1,-1,-5,13,-6,3,-1
1511885849513121,0,-9,-7,6,26,12,0,-1
1511885849513121,-1,-5,-7,-1,25,7,5,0
1511885849514963,1,1,-1,1,-55,-5,0,2
1511885849514963,1,1,9,7,17,-11,-5,-1
1511885849527092,0,3,3,0,12,6,1,1
1511885849527092,-3,-2,13,-1,-10,-11,-4,-2
1511885849536017,-2,-2,-19,0,24,7,2,0
1511885849536017,5,-1,-2,-3,-3,3,-1,2
1511885849551083,-1,0,0,-2,42,2,-2,-1
1511885849551083,1,0,1,-2,-14,-7,-3,0
1511885849552059,0,-2,5,7,-28,7,-1,-1
1511885849552059,-5,0,-5,-6,23,-5,2,-2
1511885849573118,-1,1,-5,3,24,8,-2,0
1511885849573118,-1,-2,5,-1,-39,-13,-3,-2
1511885849575120,1,-1,3,-5,8,3,3,1
1511885849575120,-1,-2,0,1,17,13,1,1
1511885849587304,-1,-1,16,1,24,0,-2,-2
1511885849587304,-1,-1,-21,2,-47,6,-2,0
1511885849595494,0,-1,17,3,25,-5,-3,-1
1511885849595494,-1,1,-3,-2,-59,-14,-2,0
1511885849611339,-1,0,-10,-3,7,8,0,-1
1511885849611339,-2,2,2,5,35,-5,3,0
1511885849612341,1,-2,-2,-6,-15,3,-3,-3
1511885849612341,-2,-3,0,-4,69,-1,-4,0
1511885849633399,0,4,3,1,-113,-30,-2,2
1511885849633399,1,0,-6,-5,-14,7,-6,-1
1511885849634403,-1,-2,-6,-9,30,2,0,0
1511885849634403,-5,-5,-5,-14,28,-1,0,-1
1511885849646609,0,0,3,-6,-19,-12,-1,0
1511885849646609,0,1,7,45,11,6,1,0
1511885849655484,-2,1,4,0,7,-7,-2,-1
1511885849655484,1,-2,-3,-1,6,13,0,0
1511885849670497,-1,-3,-13,-14,-26,0,1,-1
1511885849670497,-1,-5,2,-17,1,1,-2,2
1511885849672501,0,5,30,5,-15,-1,0,-2
1511885849672501,0,-4,-41,-6,-13,-6,-1,0
1511885849693562,-3,-5,-14,-5,9,-1,-1,-1
1511885849693562,-4,-4,2,6,37,-1,-1,-3
1511885849694560,7,-2,-7,-4,-74,-8,2,1
1511885849694560,1,3,21,5,15,7,-1,1
1511885849706644,-1,-2,5,-3,-23,-4,-1,-1
1511885849706644,1,1,-12,-6,10,-2,-1,0
1511885849715616,-1,0,-7,-7,6,4,-2,-1
1511885849715616,-2,1,4,4,-18,0,1,-1
1511885849730654,-2,-2,-3,-1,8,0,-1,-3
1511885849730654,0,6,18,5,8,5,1,0
1511885849732660,-2,-4,-22,-14,-5,-11,-2,0
1511885849732660,3,3,12,30,-10,0,2,1
1511885849752755,-2,0,12,14,9,-4,-1,0
1511885849752755,-1,-5,-26,-10,3,-7,-1,-3
1511885849754720,-4,0,7,-4,3,4,-2,1
1511885849754720,-4,-5,-7,-13,-10,-2,-1,-3
1511885849766756,6,15,8,-6,4,6,-1,-1
1511885849766756,5,8,20,14,0,-5,0,2
1511885849775776,-10,-28,-18,-3,0,-6,-2,-2
1511885849775776,0,4,-2,-17,-15,-3,-3,-2
1511885849790856,-4,-10,4,15,11,1,3,0
1511885849790856,-1,0,-8,-23,-6,-1,0,-1
1511885849791818,7,14,5,19,7,-12,-1,1
1511885849791818,-1,-6,9,-1,-3,13,2,0
1511885849813061,3,7,2,-2,1,3,0,1
1511885849813061,0,1,-13,3,6,-1,0,0
1511885849814879,-6,-12,-8,-26,-3,-6,1,-6
1511885849814879,2,2,-5,8,-1,-4,2,1
1511885849827019,1,1,9,-3,2,1,-3,-1
1511885849827019,-4,-10,-5,-4,-1,0,-1,1
1511885849835934,3,11,26,18,0,1,0,2
1511885849835934,1,-3,-35,-14,-3,-8,-3,0
1511885849850974,-3,-5,9,-6,-4,12,0,-2
1511885849850974,-3,-1,-7,5,18,-10,-1,-2
1511885849851977,1,6,-3,-5,-2,7,-1,0
1511885849851977,-2,-3,16,14,2,-2,0,-3
1511885849873219,-3,-6,-12,-24,-5,-3,-1,0
1511885849873219,1,5,9,12,-3,0,-2,1
1511885849875039,-2,0,-3,8,3,-3,1,-3
1511885849875039,-1,-1,0,-1,-1,-6,0,1
1511885849887171,-1,-2,-14,-13,0,-3,-1,-3
1511885849887171,-1,-5,-1,-20,-4,4,1,-1
1511885849896118,2,6,5,16,9,2,0,2
1511885849896118,-4,1,3,15,-3,0,0,-2
1511885849911170,-2,-4,-1,6,-2,-7,-1,-1
1511885849911170,1,3,4,-6,-1,2,-3,-2
1511885849912139,0,-7,-19,-18,-7,8,2,-2
1511885849912139,1,-2,2,-20,-3,2,-2,-1
1511885849933195,0,4,21,43,8,-1,1,1
1511885849933195,-3,-5,-28,-5,0,7,2,0
1511885849935200,-3,0,8,-6,-1,-3,-3,-1
1511885849935200,1,5,43,5,-4,5,-2,0
1511885849947351,-2,-13,-86,-21,7,-16,-1,0
1511885849947351,-1,-1,21,1,-4,-6,-1,-2
1511885849956336,3,3,3,6,-10,10,1,0
1511885849956336,1,1,4,-3,-2,-2,0,1
1511885849970414,-1,4,16,11,5,3,-1,1
1511885849970414,-2,-4,-3,-5,7,-4,-4,-2
1511885849972412,-1,0,1,-5,-5,-3,-1,0
1511885849972412,-2,-2,2,1,-21,-1,-1,-1
1511885849993637,2,3,5,16,3,9,-1,-2
1511885849993637,-1,-7,-27,-41,-14,-5,0,0
1511885849994509,3,7,43,28,4,6,0,1
1511885849994509,0,-4,-40,-10,3,2,1,0
1511885850007473,-2,1,21,6,2,-2,-2,-1
1511885850007473,-1,0,9,4,-4,6,-1,0
1511885850015491,-1,-5,-18,-10,-2,0,-1,0
1511885850015491,-3,1,14,2,3,-3,-2,-2
1511885850031534,0,-2,-4,7,-2,2,-1,-2
1511885850031534,-2,-2,-1,-13,-4,-7,-3,-2
1511885850038557,-1,-2,-11,-12,-2,-6,1,0
1511885850038557,0,0,-2,6,3,-1,-1,-1
1511885850052831,0,-2,2,-1,-1,-2,0,2
1511885850052831,-1,-3,-2,11,5,1,0,-1
1511885850054724,-3,-1,-5,-1,0,-2,-1,-1
1511885850054724,1,-1,-2,1,1,-1,0,-2
1511885850066854,0,0,2,3,-3,-1,0,-2
1511885850066854,-2,0,7,1,2,0,-1,0
1511885850075780,0,0,-3,-19,-1,-3,-2,0
1511885850075780,-1,0,-5,6,-2,-3,0,0
1511885850089895,-1,-2,-4,-55,-28,1,-3,-1
1511885850089895,0,3,8,26,28,1,3,0
1511885850096837,-3,-4,-5,1,-6,-9,0,-2
1511885850096837,-3,-8,-16,8,9,0,-1,-1
1511885850112977,0,0,18,23,-1,-1,-1,-1
1511885850112977,0,1,-9,-36,-11,0,-2,-1
1511885850114884,0,-1,-2,1,1,0,-2,-1
1511885850114884,-1,0,6,-12,0,-1,-1,-2
1511885850127090,-1,-3,-7,-10,-5,-2,-1,-2
1511885850127090,-1,1,13,17,-3,2,0,-1
1511885850135940,0,-1,-6,38,7,1,-3,0
1511885850135940,1,1,-7,-36,-1,-2,-1,0
1511885850150120,-2,-1,-3,7,2,-4,0,0
1511885850150120,-1,0,4,16,4,4,3,2
1511885850157140,0,-1,-5,0,-1,-3,-1,-1
1511885850157140,-3,-4,0,12,-1,0,-1,-2
1511885850173181,1,1,1,-13,1,-3,2,0
1511885850173181,-1,0,0,-2,-7,-5,-2,-2
1511885850175184,-2,-3,-6,-21,-10,-1,-2,-2
1511885850175184,0,1,5,29,12,2,0,1
1511885850195453,-2,-1,-2,-1,-2,-2,1,0
1511885850195453,1,3,15,12,-4,0,0,-1
1511885850197456,-1,-9,-27,-18,2,1,-1,-1
1511885850197456,1,2,8,5,-2,-6,2,-2
1511885850210492,3,4,6,-9,-5,0,0,1
1511885850210492,-2,-7,-20,10,-6,-4,-3,1
1511885850216512,1,4,13,12,9,7,2,2
1511885850216512,-1,0,6,-5,-3,-4,-3,0
1511885850233582,-1,-1,2,7,3,-1,-2,-2
1511885850233582,0,0,6,-3,-1,2,-2,-1
1511885850234587,-1,0,7,-1,1,-3,1,-2
1511885850234587,-1,-6,-23,-10,-4,-1,1,1
1511885850255647,2,0,7,3,2,2,2,0
1511885850255647,0,-1,-2,-5,-1,-2,-3,-1
1511885850257653,-1,0,-10,-2,-1,0,0,-2
1511885850257653,0,2,10,0,-4,-1,0,-1
1511885850269684,-3,-1,-6,2,3,-1,0,1
1511885850269684,1,-1,-2,-1,0,-3,-1,1
1511885850276704,0,-2,-3,0,-1,-2,-1,-1
1511885850276704,-1,0,3,-6,-3,-4,-2,-2
1511885850292858,0,-3,-4,-2,2,-1,-1,-1
1511885850292858,1,2,0,-2,-5,-4,0,-2
1511885850294748,-1,2,17,2,-3,-3,-3,0
1511885850294748,-3,-7,-22,-6,1,0,0,-2
1511885850315803,2,-1,-8,-1,0,-3,1,0
1511885850315803,0,-1,6,-1,-3,1,1,-1
1511885850316810,1,1,5,-2,-1,-1,-2,0
1511885850316810,-1,3,6,-1,-2,2,0,2
1511885850330026,-4,-7,-18,7,8,-1,-2,-3
1511885850330026,-1,-2,-2,0,0,-1,-2,-1
1511885850336862,0,0,-4,-8,-7,-2,0,2
1511885850336862,-1,-1,2,-12,-1,-2,-1,0
1511885850352922,0,1,6,9,-2,1,-2,-1
1511885850352922,-1,1,1,-1,1,0,1,-1
1511885850354907,-1,-1,-6,1,1,-1,-1,-1
1511885850354907,-1,0,10,0,-3,1,-1,-1
1511885850376172,-1,0,-17,-3,2,-1,-2,0
1511885850376172,1,-1,2,-1,2,-1,1,-2
1511885850378092,-2,1,3,0,-1,-1,0,-2
1511885850378092,-1,2,-1,2,1,0,-1,0
1511885850390128,-1,-3,7,-3,-3,-1,0,-1
1511885850390128,-2,-1,-3,1,-3,0,-2,0
1511885850397142,0,-2,-4,-5,2,-1,1,0
1511885850397142,0,-2,-2,3,-1,1,-1,0
1511885850413188,-2,-1,3,-5,-3,-2,-2,-3
1511885850413188,-1,-2,-3,-7,-5,0,0,-1
1511885850414191,1,-1,1,6,2,0,-2,-1
1511885850414191,1,1,3,6,5,1,1,1
1511885850435247,0,2,5,-3,-5,0,0,1
1511885850435247,-2,-2,-2,0,1,2,-1,-1
1511885850437249,-3,-1,-2,1,8,1,-3,-1
1511885850437249,-2,-1,-4,0,-1,4,-2,-2
1511885850449287,-2,-1,0,-2,-1,5,-1,-2
1511885850449287,-1,0,2,-1,-1,4,-1,1
1511885850458453,0,-1,-3,-3,-4,4,-1,-2
1511885850458453,-1,-2,-1,-3,-1,3,-1,-2
1511885850473491,0,-2,0,-1,-3,3,-2,0
1511885850473491,-1,-2,-3,-3,1,2,-2,0
1511885850474453,-2,-1,-2,2,-1,0,-3,-1
1511885850474453,-1,-1,-2,-2,-3,-1,-2,0
1511885850495546,0,0,1,-2,-1,0,-1,1
1511885850495546,0,-2,0,0,2,-2,2,-2
1511885850497510,0,-3,-3,-7,-5,-3,5,-3
1511885850497510,2,4,5,9,4,-12,5,0
1511885850509566,0,2,1,0,1,-13,1,2
1511885850509566,1,2,-4,-2,-2,-19,10,2
1511885850518569,1,2,3,6,4,-19,-14,2
1511885850518569,-2,-1,-4,-9,-8,-14,18,-1
1511885850533734,-2,0,2,-2,-5,-6,7,-2
1511885850533734,-1,0,2,13,12,8,-1,-8
1511885850534724,-2,-3,-8,-11,-14,23,5,-2
1511885850534724,1,-4,0,9,4,40,-24,-3
1511885850555808,0,-3,-4,-11,-5,42,-10,-2
1511885850555808,-1,-4,-2,-4,-4,41,-6,0
1511885850556780,-3,-4,-5,-6,-6,20,-18,-4
1511885850556780,-2,-2,-3,8,5,-1,-16,-3
1511885850568840,-4,-1,0,5,2,-26,-3,-7
1511885850568840,-1,-1,-4,-7,-6,-31,-14,-5
1511885850577863,-2,3,3,5,9,-40,75,17
1511885850577863,2,8,5,-2,-7,-57,-51,5
1511885850592877,1,3,3,2,8,-42,-19,2
1511885850592877,0,5,2,0,0,-76,25,3
1511885850594882,4,10,0,-8,-3,-85,25,4
1511885850594882,1,9,9,7,16,-69,-58,2
1511885850615942,0,2,-9,-13,-14,-70,-9,5
1511885850615942,0,7,19,24,30,-55,69,19
1511885850621957,2,6,3,1,5,-78,8,-2
1511885850621957,-1,0,0,0,-4,-7,21,5
1511885850628973,-2,-6,4,9,12,89,70,-11
1511885850628973,-2,-14,-17,-24,-16,115,-72,13
1511885850637996,-1,-9,-4,-1,-3,127,-49,-12
1511885850637996,-4,-12,-5,-3,-1,102,-10,-9
1511885850653064,-1,-8,-4,-6,-7,82,-22,1
1511885850653064,-3,-5,-4,-10,-14,45,-12,-14
1511885850655068,-2,-3,0,1,0,23,-12,-2
1511885850655068,-2,-7,-7,-12,-12,23,8,-4
1511885850676104,-1,0,1,-2,-3,13,-5,1
1511885850676104,0,-4,-2,-2,-3,16,-14,-6
1511885850677102,-3,-6,-1,0,0,15,-28,-6
1511885850677102,-7,-6,-3,-7,-5,-16,29,-13
1511885850689253,-8,-1,3,6,2,-68,-11,-12
1511885850689253,8,8,2,4,4,-28,13,24
1511885850698157,4,2,-4,-10,-13,-58,12,8
1511885850698157,2,4,6,14,26,-53,30,2
1511885850713235,2,3,-1,1,0,-64,3,-1
1511885850713235,-5,3,0,-2,-8,-91,-9,-24
1511885850715203,-5,3,1,0,-1,-51,14,7
1511885850715203,7,3,-3,-8,-10,-5,9,13
1511885850735259,4,2,1,0,1,7,-9,5
1511885850735259,0,-2,1,2,6,13,0,-1
1511885850737285,-3,-2,-1,-1,-2,15,-1,-8
1511885850737285,0,3,1,2,2,-40,-7,-6
1511885850749292,1,4,4,4,4,-18,6,6
1511885850749292,-3,-2,-4,-5,-5,4,1,-6
1511885850758317,-1,-3,1,3,6,32,-5,-5
1511885850758317,0,-4,-11,-16,-17,49,4,2
1511885850773480,1,-6,-1,3,6,44,-3,3
1511885850773480,1,-3,-3,-2,-3,25,-6,-3
1511885850774361,-4,-5,-2,4,3,3,-10,-5
1511885850774361,6,0,-1,0,-3,5,6,8
1511885850796418,-9,0,-1,-5,-4,-11,-9,-66
1511885850796418,-7,0,1,1,0,-19,5,26
1511885850797421,16,3,3,3,2,-38,1,45
1511885850797421,1,0,-1,-7,-4,25,8,9
1511885850809570,3,2,-3,0,0,-20,11,14
1511885850809570,-3,-1,1,3,3,-10,-2,-28
1511885850818503,-8,-1,1,2,3,7,7,-23
1511885850818503,-5,-2,1,0,0,-17,5,1
1511885850833517,2,-1,0,-4,-6,-13,-4,5
1511885850833517,-1,1,-1,-3,1,-7,8,-4
1511885850834524,-1,-1,0,-1,-2,0,-19,5
1511885850834524,-2,-2,-1,-1,-2,-13,4,-6
1511885850855578,-3,-1,-2,1,5,0,9,8
1511885850855578,3,2,-2,0,2,0,26,11
1511885850857586,0,1,-3,0,2,11,-20,-6
1511885850857586,-2,1,0,0,2,-3,-5,-6
1511885850869655,-1,-4,-3,-5,-7,-2,-2,7
1511885850869655,3,1,-1,-1,-8,1,3,3
1511885850878638,-2,-2,1,2,9,19,3,-8
1511885850878638,-3,0,-1,-1,-3,18,-5,-5
1511885850892678,1,-1,-2,-2,-2,8,-3,10
1511885850892678,1,0,-3,-1,0,1,-9,-4
1511885850894678,-4,-1,-2,0,-4,2,5,-6
1511885850894678,-1,-2,-1,1,-2,-12,3,-2
1511885850915739,0,1,0,0,-2,-10,-2,5
1511885850915739,-2,-1,1,2,0,-2,-6,-7
1511885850916741,0,-2,-2,-1,1,26,-1,-2
1511885850916741,-1,-1,-1,-1,3,-2,9,2
1511885850928961,-1,0,-1,1,-2,3,-3,2
1511885850928961,0,0,-1,-3,-5,-6,-11,-1
1511885850938798,1,-2,-1,-1,-5,-2,-3,-2
1511885850938798,-2,-1,0,0,-2,7,1,-2
1511885850960955,-2,-2,0,-1,1,12,-2,1
1511885850960955,0,0,-1,-2,0,9,-6,-4
1511885850961937,0,-2,0,-1,-2,0,1,-2
1511885850961937,-2,-1,-1,1,0,0,0,-3
1511885850975895,-1,0,3,2,-1,-6,-4,2
1511885850975895,-1,-4,0,0,0,2,0,2
1511885850976898,-1,1,-3,-1,-4,-5,1,-1
1511885850976898,-4,-3,-1,-8,-5,-11,-1,-2
1511885850988929,1,3,-1,-1,2,-2,1,2
1511885850988929,-1,-3,-6,6,2,-9,0,-2
1511885850997954,1,1,15,5,0,-10,2,-1
1511885850997954,-1,-3,-10,-1,-1,-5,0,-1
1511885851012993,1,-1,10,4,1,1,1,0
1511885851012993,2,3,-4,-10,-3,0,-1,-2
1511885851014999,-2,-2,-3,1,-3,-6,-1,-2
1511885851014999,2,1,6,1,-1,2,1,1
1511885851036149,-1,2,9,0,-2,-3,-2,1
1511885851036149,7,27,-16,-2,2,-3,1,2
1511885851037059,-1,-15,14,4,-2,-4,0,0
1511885851037059,-18,-22,-26,-4,1,-9,0,-3
1511885851049107,-5,0,-3,-3,-2,-9,-2,-4
1511885851049107,1,-4,-4,-4,-1,-5,-4,-2
1511885851058116,7,28,12,-3,1,11,4,4
1511885851058116,-2,-21,-7,9,1,9,-5,1
1511885851072194,-6,-11,-2,-3,-2,3,2,-3
1511885851072194,-4,-1,3,0,-1,5,-5,-3
1511885851079204,3,2,-7,-7,-3,9,-1,1
1511885851079204,5,14,25,4,1,11,-2,0
1511885851095218,-3,-6,-29,-7,-3,7,0,2
1511885851095218,0,-2,18,9,-1,0,-5,0
1511885851097222,-6,-8,-21,-8,-1,-3,0,-2
1511885851097222,-2,-4,-8,-2,-2,-8,2,-3
1511885851118390,3,3,-2,-8,-1,0,-3,-1
1511885851118390,13,56,30,2,0,8,3,5
1511885851120279,-3,-51,-1,11,-1,-6,-1,3
1511885851120279,-15,-18,-17,-13,-2,-9,-2,-9
1511885851132318,0,-4,-42,-14,-4,-14,-3,-4
1511885851132318,-12,-14,14,7,-2,-16,0,-4
1511885851139383,7,33,10,1,0,-7,-1,2
1511885851139383,11,17,20,7,5,-2,13,7
1511885851155493,-1,-8,13,9,1,-2,-1,3
1511885851155493,-2,-6,-12,-10,-3,-7,-2,-3
1511885851157378,-1,6,-8,1,1,1,0,-1
1511885851157378,4,3,7,7,1,13,-3,0
1511885851178438,3,7,11,2,-2,2,4,3
1511885851178438,-1,-12,-6,8,2,10,0,2
1511885851179438,-7,-6,-1,-6,-3,-7,-3,-3
1511885851179438,2,23,-2,-6,-5,-13,-6,-2
1511885851192472,-5,-29,-2,1,4,17,-3,1
1511885851192472,2,-6,3,-5,-1,-7,6,-2
1511885851199495,1,14,-14,-6,0,-10,0,2
1511885851199495,-7,-1,3,2,-1,-2,1,2
1511885851215559,-4,13,9,3,-3,-10,1,-1
1511885851215559,4,-17,2,-1,0,4,-1,4
1511885851217557,-12,-17,-32,-9,-4,-2,-2,-10
1511885851217557,8,10,-19,2,-1,-3,1,0
1511885851238599,5,10,22,-3,0,-2,1,1
1511885851238599,-8,-19,-9,4,-1,5,-1,-2
1511885851239601,1,4,2,3,1,-7,-1,-2
1511885851239601,4,6,9,-13,-1,-9,0,2
1511885851252674,-2,3,-30,3,3,-4,2,1
1511885851252674,-4,6,32,6,-3,-22,1,-2
1511885851259669,-5,-18,-47,-23,6,-11,4,0
1511885851259669,0,-17,-23,2,3,-26,2,-1
1511885851275698,0,11,20,5,-12,-11,-7,-1
1511885851275698,1,5,-10,-10,-13,10,21,1
1511885851277704,-1,-6,16,21,40,33,-2,0
1511885851277704,-2,6,-7,-20,1,45,-7,-3
1511885851297770,2,-23,1,5,-14,39,-10,-5
1511885851297770,-4,-9,-14,-7,-1,32,-22,-6
1511885851299756,7,20,32,-5,-40,14,-11,-4
1511885851299756,5,-7,-6,11,19,19,-1,-1
1511885851312791,1,0,12,-2,-8,-25,0,-3
1511885851312791,-2,-3,-29,-9,5,-14,6,0
1511885851318810,-1,21,5,10,1,-35,1,-1
1511885851318810,-6,-21,22,1,-8,-40,-5,0
1511885851336019,1,13,25,2,3,-6,2,3
1511885851336019,0,-6,-20,7,6,6,7,2
1511885851337019,1,2,-1,-2,-2,-5,0,1
1511885851337019,-3,5,8,-1,-20,2,0,-1
1511885851357910,-2,-19,-30,0,40,13,0,-1
1511885851357910,1,9,19,3,8,-2,-7,3
1511885851359917,-4,-4,20,-2,-14,6,-2,-1
1511885851359917,-2,-4,-8,13,0,3,1,-2
1511885851373012,1,0,-26,-16,-5,-12,-2,0
1511885851373012,-1,2,5,-3,3,-11,-2,0
1511885851379062,0,-3,5,2,8,7,4,1
1511885851379062,5,14,15,3,-3,-6,-3,1
1511885851395034,1,1,0,0,2,-14,1,-1
1511885851395034,-10,-14,-24,-1,-15,-7,0,-4
1511885851397014,0,-4,6,2,26,-8,-4,-2
1511885851397014,0,5,8,9,-2,4,9,1
1511885851418125,2,8,6,2,-3,-2,0,-1
1511885851418125,5,3,6,2,-6,-8,-4,1
1511885851420082,-5,-8,-2,-3,-1,-2,-1,-3
1511885851420082,-3,1,-6,-7,4,5,2,0
1511885851432111,2,6,-18,-3,-9,-2,12,-1
1511885851432111,-2,-5,14,0,23,4,-1,-2
1511885851441133,6,3,-5,20,-5,6,3,1
1511885851441133,2,5,22,-2,-1,-1,-2,-1
1511885851456176,-5,-6,-14,-11,-11,-1,-4,-3
1511885851456176,-4,4,7,-9,-6,1,-3,-2
1511885851457179,-2,-9,-16,-1,-1,1,1,-2
1511885851457179,-2,-4,15,5,-2,-19,-5,-2
1511885851478350,-2,0,-6,0,-1,22,-2,-1
1511885851478350,3,1,-2,-4,-4,-2,0,1
1511885851480276,-3,1,11,-6,-3,-13,-4,0
1511885851480276,1,1,-5,8,-4,13,0,0
1511885851491265,0,2,-10,-7,4,6,-2,1
1511885851491265,-2,-5,3,11,8,0,-3,-2
1511885851501292,0,-2,-9,-7,-20,-4,1,-1
1511885851501292,2,5,-5,-7,0,-8,-4,-1
1511885851515331,-1,-1,9,10,1,-1,0,0
1511885851515331,-2,-5,-8,-11,-3,0,-4,-1
1511885851517339,1,2,2,-4,-1,-1,0,-1
1511885851517339,0,-2,-1,4,0,5,-2,-1
1511885851538394,3,7,12,5,1,5,1,1
1511885851538394,-3,-5,-18,-21,-8,-9,1,-1
1511885851539394,1,2,11,29,5,-2,-7,-2
1511885851539394,0,-2,-8,9,2,7,10,2
1511885851551426,0,1,9,-4,1,3,8,0
1511885851551426,0,-1,-1,8,3,3,-1,0
1511885851560591,-1,0,-5,-18,-6,-5,-2,0
1511885851560591,-2,-4,-11,-17,0,-10,-8,-2
1511885851575494,0,1,6,10,-5,-12,-4,-1
1511885851575494,0,0,-6,-19,-8,-2,8,-1
1511885851577496,-1,3,10,17,9,7,-10,0
1511885851577496,1,-2,-4,-3,-4,-9,2,-2
1511885851597548,-2,-3,0,-3,1,9,7,-2
1511885851597548,11,2,1,2,-3,-4,-9,0
1511885851599553,11,-3,-6,-17,-5,-7,-43,2
1511885851599553,-9,-4,-7,-10,0,9,69,-6
1511885851611714,-4,1,3,0,2,-12,-24,0
1511885851611714,17,1,1,0,5,-1,13,0
1511885851620610,-23,-4,-3,4,-8,5,12,-2
1511885851620610,9,0,-1,2,5,15,-15,3
1511885851635653,-1,0,3,-2,-3,2,4,1
1511885851635653,17,0,1,8,0,3,-2,-2
1511885851637659,-37,-5,-4,-9,21,-17,5,2
1511885851637659,2,0,-3,-5,-35,-6,-17,0
1511885851665733,-9,-2,-2,3,3,-6,5,-5
1511885851665733,-4,0,0,-2,-15,-14,-17,5
1511885851666841,33,1,-3,-10,7,23,17,-2
1511885851666841,-21,2,-2,2,5,-2,-20,-3
1511885851671975,5,0,-3,-8,5,-9,-1,2
1511885851671975,-12,-1,6,30,-10,1,-4,-3
1511885851681028,10,0,-1,-5,-11,2,5,-3
1511885851681028,3,1,-1,1,13,3,11,7
1511885851696068,6,0,0,0,-4,-20,-22,-5
1511885851696068,-8,-2,-2,-8,10,20,6,-3
1511885851697070,-7,-2,-2,-13,-8,-1,10,-4
1511885851697070,9,-2,-2,3,8,2,-3,2
1511885851718130,3,2,1,5,21,23,14,1
1511885851718130,-2,-2,1,4,-1,-9,-3,2
1511885851720159,-1,1,-1,3,-5,7,4,3
1511885851720159,-5,0,1,-6,5,-4,-43,-4
1511885851732164,2,-2,2,2,-1,-3,48,-1
1511885851732164,14,2,-1,-5,-8,9,7,-4
1511885851740189,1,1,-2,2,8,-7,1,2
1511885851740189,-32,-4,-1,-1,4,-12,-10,-1
1511885851755230,-38,-6,-3,-5,-7,-3,-16,-2
1511885851755230,7,1,0,-1,-27,-1,-10,1
1511885851757231,5,2,1,-3,-36,-6,14,-2
1511885851757231,5,-1,-5,-13,35,-4,7,-4
1511885851778319,13,1,5,10,-24,-8,-35,0
1511885851778319,-17,-1,1,-5,-4,45,19,0
1511885851780295,3,2,1,13,17,-13,-5,0
1511885851780295,7,-3,-2,2,-35,0,-14,3
1511885851791322,9,1,-4,-9,10,-4,-14,-5
1511885851791322,-10,-2,-2,1,-3,-11,-5,-4
1511885851800381,-5,-2,-4,-8,26,12,-3,0
1511885851800381,12,3,5,24,12,8,6,-1
1511885851815386,4,-1,-1,1,-3,-7,17,3
1511885851815386,-7,1,0,-4,6,-10,-13,0
1511885851817394,0,-2,-2,-4,-21,-1,2,-2
1511885851817394,4,-1,0,-12,24,2,21,-1
1511885851838450,1,0,1,-1,-31,-1,-9,0
1511885851838450,-5,-1,-2,5,19,-1,15,-2
1511885851839451,0,-2,-1,-2,-8,-4,-17,1
1511885851839451,0,-4,-4,-7,-28,-7,2,1
1511885851851486,-3,0,3,8,-21,6,-17,-1
1511885851851486,2,-1,-3,4,94,13,2,1
1511885851860507,-8,2,2,-4,-55,-4,-6,0
1511885851860507,-1,-4,0,-1,-10,-21,29,-4
1511885851875597,3,0,-3,-7,27,7,-1,0
1511885851875597,-4,-2,-2,3,-44,-9,0,-1
1511885851877563,4,-3,-3,-8,14,20,-1,-3
1511885851877563,2,3,1,2,-16,9,-20,1
1511885851897607,-1,0,2,16,36,3,24,1
1511885851897607,2,0,-3,1,1,-10,-48,-1
1511885851899609,0,-1,-2,-2,41,6,12,0
1511885851899609,1,-2,-2,-19,-40,-8,-4,-3
1511885851920669,-1,-1,-1,7,19,3,10,0
1511885851920669,-6,-3,-1,-4,-11,-6,4,0
1511885851922675,2,-2,0,2,-3,-1,-23,-3
1511885851922675,-10,-3,-4,-6,-17,-22,-11,-4
1511885851935822,1,0,-1,-7,-13,0,-14,-2
1511885851935822,-2,0,0,-2,-6,-19,14,0
1511885851937715,1,-2,0,0,0,-7,10,-1
1511885851937715,-6,1,0,0,10,12,4,-2
1511885851957840,-1,-1,1,-2,-2,-5,-5,2
1511885851957840,-2,-3,-2,-6,-47,-4,0,0
1511885851959809,-1,-1,5,2,13,-1,8,-1
1511885851959809,3,0,-2,4,16,2,-17,-2
1511885851971841,-1,-1,-5,-9,15,-2,6,-2
1511885851971841,0,2,0,3,-36,-10,1,-1
1511885851980865,1,-3,-6,-13,-5,1,-29,-1
1511885851980865,1,-1,3,12,-67,-13,29,-2
1511885851994905,0,1,-2,-4,21,19,0,2
1511885851994905,2,0,-1,-1,-12,-24,1,-1
1511885852001920,4,-1,0,-2,5,-11,-11,-2
1511885852001920,-2,-2,-2,-4,-22,10,-20,2
1511885852017966,1,-1,-1,-3,-2,4,3,0
1511885852017966,0,0,2,3,4,2,0,-1
1511885852019968,-9,-3,-3,3,50,-7,16,-1
1511885852019968,2,-1,-1,-2,7,9,1,1
1511885852032004,-1,0,1,0,-71,-19,-18,-3
1511885852032004,-1,-2,0,-1,74,23,-3,-1
1511885852041025,-1,3,3,-3,-29,-7,5,0
1511885852041025,2,1,-4,4,35,7,1,0
1511885852055066,0,-4,-3,-7,-11,1,-1,-1
1511885852055066,-5,0,-1,-9,-10,6,2,1
1511885852062289,2,2,3,28,-20,-16,3,0
1511885852062289,1,-1,-3,-4,32,-10,-6,-2
1511885852078239,-1,-1,0,-1,-14,1,11,0
1511885852078239,1,-3,-3,-4,8,-7,-18,-3
1511885852080129,-3,0,-1,-7,1,1,2,-1
1511885852080129,8,0,0,0,19,15,12,3
1511885852101196,1,1,-1,4,19,1,-31,1
1511885852101196,0,0,2,-7,-47,-10,6,-1
1511885852102187,-1,-3,-2,6,6,11,5,-1
1511885852102187,-1,0,0,-3,-11,-18,-8,-2
1511885852115350,0,3,2,7,10,17,10,0
1511885852115350,1,-1,2,10,41,34,2,-1
1511885852121409,-1,0,1,-2,-69,-16,-1,0
1511885852121409,-1,0,1,2,27,10,4,0
1511885852138446,0,0,-1,-12,6,-8,-22,1
1511885852138446,1,3,0,3,-9,17,45,2
1511885852139416,1,-4,-4,1,25,3,2,0
1511885852139416,-2,-1,-2,-6,-7,17,-1,-2
1511885852160656,-3,1,2,-1,-84,-19,2,-3
1511885852160656,1,-1,0,9,34,4,-10,0
1511885852162477,1,3,1,-2,7,6,0,1
1511885852162477,-1,3,-2,-1,-34,-6,1,1
1511885852174521,-8,-5,-7,-6,0,-20,7,-5
1511885852174521,-1,-1,-4,-9,5,-10,-5,-2
1511885852183635,0,-3,-2,-9,-16,3,4,-1
1511885852183635,-1,-3,1,9,4,-10,-3,0
1511885852197573,-2,0,1,4,20,26,5,-1
1511885852197573,1,0,1,-1,-23,-8,-6,0
1511885852199575,-1,1,-1,-7,-29,-28,5,-2
1511885852199575,1,1,7,-2,21,3,-29,1
1511885852220634,-1,-3,-16,4,69,12,9,0
1511885852220634,-3,-1,-1,-5,-48,-13,-6,-3
1511885852222637,2,-1,0,2,28,21,4,0
1511885852222637,-3,-5,2,-5,-5,-2,4,-2
1511885852234804,3,3,5,5,-26,-29,3,1
1511885852234804,-1,0,-4,0,13,2,-9,0
1511885852241691,-2,-6,-8,-5,27,-1,-3,-5
1511885852241691,3,2,-2,4,-9,9,6,0
1511885852257800,0,2,3,-2,-4,-18,-3,0
1511885852257800,-6,-5,-5,-5,13,1,3,0
1511885852259737,0,2,2,19,25,19,-1,-1
1511885852259737,-5,-4,-6,-7,-4,-12,-1,-3
1511885852280903,4,3,16,-4,-11,16,6,-3
1511885852280903,1,1,-17,-3,5,-8,-1,2
1511885852281915,-1,3,9,10,-22,-2,-6,0
1511885852281915,0,1,-3,0,66,23,2,1
1511885852294934,0,0,2,-3,41,6,2,-1
1511885852294934,-1,-3,10,-3,-66,-10,-1,-1
1511885852301850,0,-3,-16,-6,-5,1,-1,0
1511885852301850,-1,0,3,12,-20,5,-1,-1
1511885852318017,0,-2,1,-2,-5,1,-3,0
1511885852318017,-2,-2,0,-2,35,-5,0,-1
1511885852320019,1,0,-2,-7,27,2,5,0
1511885852320019,-3,-1,0,-1,-12,-17,-21,-5
1511885852341150,-1,-6,-8,-7,4,0,19,-2
1511885852341150,-1,3,0,3,-6,1,-5,1
1511885852342081,-1,-3,0,-4,-14,-15,-17,-4
1511885852342081,7,2,-3,0,-1,24,44,4
1511885852354152,-2,-4,-5,-3,0,-4,-8,3
1511885852354152,0,-2,0,-2,4,-1,-4,-1
1511885852363139,-3,-1,0,-1,-12,4,0,-1
1511885852363139,0,-1,-2,-2,-4,-10,-1,-2
1511885852378293,-2,-3,-3,6,-16,-1,-3,-1
1511885852378293,-1,1,10,-15,3,-1,5,0
1511885852379182,0,1,-10,25,-8,-4,-3,3
1511885852379182,-7,2,-2,-1,-45,-8,-8,-2
1511885852400235,2,5,29,-5,11,-4,0,0
1511885852400235,-2,-7,-40,6,6,-2,-9,-3
1511885852402237,-1,-3,13,-13,8,5,8,1
1511885852402237,-1,-1,-10,-8,-8,7,-8,-1
1511885852414269,-2,-2,0,-3,-10,-7,-1,-1
1511885852414269,9,4,18,16,9,-1,1,-2
1511885852423295,-20,1,-5,-24,-11,-9,16,-1
1511885852423295,5,-3,1,30,14,-2,-23,1
1511885852438373,3,0,-3,-11,-6,4,-4,3
1511885852438373,-2,-2,1,-3,1,-3,-2,-1
1511885852439342,2,-2,-10,6,1,-3,3,0
1511885852439342,-4,-2,4,-23,-8,-26,-1,-1
1511885852460395,0,2,-9,5,2,-2,-2,0
1511885852460395,0,-2,2,3,-8,2,-3,-2
1511885852462397,5,3,13,-4,26,1,-6,-1
1511885852462397,-4,-4,-26,0,-65,5,5,0
1511885852474431,2,0,0,10,7,-2,1,-1
1511885852474431,-4,-2,-2,3,2,-4,7,0
1511885852483453,3,0,10,-9,1,-5,-12,-3
1511885852483453,3,1,26,0,6,-2,1,0
1511885852498594,-1,-5,-34,9,15,5,0,-1
1511885852498594,-2,1,11,-5,4,2,-21,-1
1511885852499497,0,0,-8,-9,-16,9,34,-4
1511885852499497,-3,-1,0,2,23,0,-2,2
1511885852520756,-3,-1,2,-7,-6,-4,0,-2
1511885852520756,-3,-2,-1,1,9,10,-2,-1
1511885852522562,2,0,-5,1,-8,-7,0,0
1511885852522562,0,0,-1,0,19,-3,3,0
1511885852534720,-3,1,3,1,1,-2,-1,1
1511885852534720,0,-2,-3,-12,-11,-9,13,1
1511885852543622,5,-1,1,8,-13,1,-24,-1
1511885852543622,0,0,-5,-10,-33,0,3,2
1511885852557695,-1,-3,0,11,61,4,-2,1
1511885852557695,-1,-1,-1,0,15,6,-5,-1
1511885852559657,-1,2,0,15,-51,-13,18,3
1511885852559657,-1,1,1,-4,-1,-1,0,-2
1511885852580711,-1,-1,-1,-11,-34,-15,-34,-2
1511885852580711,-2,1,-4,-10,-36,-20,37,0
1511885852582721,-2,0,1,-5,59,6,-20,-2
1511885852582721,0,1,2,8,1,1,9,0
1511885852594838,-1,-2,-6,-9,-48,-20,3,-4
1511885852594838,0,1,3,0,35,30,-13,0
1511885852602774,-4,-3,-5,-5,-10,0,1,-2
1511885852602774,0,0,2,0,-10,-6,5,-1
1511885852617813,1,-1,0,-6,-16,1,2,-1
1511885852617813,-3,-2,0,6,9,-8,-14,0
1511885852619816,3,-1,0,1,5,15,21,3
1511885852619816,-2,0,-4,-11,29,-7,-12,-1
1511885852641051,-1,1,9,21,-2,10,10,-1
1511885852641051,-3,-1,-1,1,12,24,-3,-4
1511885852641876,-1,-2,-4,-2,-10,-11,2,-1
1511885852641876,0,0,-6,-5,12,0,-26,-2
1511885852654027,-2,0,-3,-11,-47,5,-1,0
1511885852654027,3,1,2,3,18,4,0,1
1511885852662930,1,0,1,1,-11,-17,-12,-5
1511885852662930,-2,-2,-3,0,13,5,-1,-3
1511885852678148,-3,-2,-3,-14,-10,5,2,-2
1511885852678148,-4,-4,-3,2,-43,-34,-19,-3
1511885852679979,-3,1,2,2,15,2,-3,2
1511885852679979,-4,2,2,0,-32,-1,11,-1
1511885852701033,-1,-2,1,-5,17,-13,1,0
1511885852701033,2,-1,-13,7,6,7,13,1
1511885852702035,-1,0,6,-12,29,6,-4,0
1511885852702035,1,0,9,21,-15,5,6,-3
1511885852714363,-1,-1,-5,-3,38,-1,2,0
1511885852714363,-3,4,18,-7,-43,-2,1,-1
1511885852723207,-6,-4,-15,0,-16,-7,-8,-1
1511885852723207,0,-1,-5,-7,13,9,-1,2
1511885852738251,-1,0,1,1,-1,2,2,-2
1511885852738251,0,0,-3,-3,28,0,2,-1
1511885852740252,1,-1,0,-2,-11,8,-2,0
1511885852740252,1,-3,3,-7,-12,-12,15,-2
1511885852760408,1,-1,-3,4,54,10,-16,2
1511885852760408,0,5,3,5,-56,-11,-4,1
1511885852762311,-2,-1,-1,-3,-52,3,-7,-1
1511885852762311,-2,-2,-6,2,65,-1,2,-1
1511885852774559,1,-1,1,-8,-18,5,8,0
1511885852774559,1,-1,-4,-9,-29,-11,-4,0
1511885852783367,2,1,1,3,-1,1,-3,0
1511885852783367,0,-1,0,1,-11,-3,-7,1
1511885852798411,-2,0,2,12,10,8,4,1
1511885852798411,-2,-3,-8,-12,8,2,1,1
1511885852799410,1,0,-5,14,37,-5,1,-1
1511885852799410,-3,-1,2,5,-12,1,0,0
1511885852820468,0,1,7,3,-21,-5,0,-2
1511885852820468,0,-1,-5,0,0,-7,3,-2
1511885852822474,1,0,2,-11,33,14,0,1
1511885852822474,-1,-1,2,-3,-20,3,-3,-2
1511885852834506,-1,-2,-5,1,-27,-4,0,-1
1511885852834506,2,-1,-1,-4,25,6,8,0
1511885852843527,-2,-3,-3,-1,-27,3,-5,-3
1511885852843527,-1,-1,1,-5,4,-9,-1,-1
1511885852858632,-2,-1,-2,-3,-29,0,2,0
1511885852858632,0,-1,2,-1,20,14,4,-3
1511885852859570,0,1,4,1,-6,-26,-4,0
1511885852859570,-1,-1,-7,-5,18,-2,-2,-1
1511885852880625,-3,-3,7,-13,-13,-10,3,-1
1511885852880625,1,-1,-16,12,60,13,-3,0
1511885852882635,-1,-3,6,-5,-15,-4,0,1
1511885852882635,0,-2,2,-1,4,16,0,-1
1511885852894836,-1,-1,-5,-6,22,-2,0,-2
1511885852894836,0,3,5,6,-6,-7,-3,1
1511885852903745,0,-2,7,6,-23,-2,-1,1
1511885852903745,-3,-2,-7,-10,-4,-23,-5,-2
1511885852917788,-1,1,1,-2,-13,0,-2,-1
1511885852917788,0,1,8,5,-17,0,0,-1
1511885852919789,0,3,1,0,73,5,0,-1
1511885852919789,-3,-10,-25,6,3,7,-3,-2
1511885852941025,-1,1,-8,-1,15,-1,-2,-1
1511885852941025,-1,2,20,-5,-22,-9,-4,0
1511885852941848,1,-3,-18,-5,5,10,3,1
1511885852941848,-1,2,10,-2,-44,-5,1,-2
1511885852953883,1,2,-2,5,15,3,-3,-2
1511885852953883,-2,-3,-3,-6,1,-9,-1,-1
1511885852963049,1,2,1,-4,-9,0,-2,0
1511885852963049,-1,-1,2,2,40,17,1,0
1511885852977023,2,-2,-6,1,-54,-15,-2,-1
1511885852977023,-4,-3,-2,1,4,-10,0,-1
1511885852985965,0,4,10,6,-27,10,3,3
1511885852985965,1,-2,-5,-1,38,4,-2,0
1511885853000238,0,-1,7,0,-34,3,-2,-2
1511885853000238,-2,-2,-7,-3,25,-11,-5,-1
1511885853002159,-2,-1,8,-2,-4,3,0,-3
1511885853002159,-5,1,-23,-3,-18,2,4,2
1511885853023309,4,-1,5,4,29,19,6,1
1511885853023309,1,1,0,-1,-19,-3,-1,0
1511885853024218,-4,-8,-13,-15,-80,-8,-3,-3
1511885853024218,0,4,21,9,55,3,0,-1
1511885853037255,1,4,12,-1,-16,-10,-2,-1
1511885853037255,-2,-4,-28,3,12,10,1,-1
1511885853044274,-2,-3,-1,3,-10,-6,0,-1
1511885853044274,0,-5,-1,-9,-14,-15,-2,-3
1511885853060438,-2,1,0,0,18,5,1,-1
1511885853060438,2,2,10,2,-20,-1,-1,0
1511885853062321,1,-3,-6,-13,1,-4,-2,-3
1511885853062321,0,1,13,12,54,-10,0,0
1511885853083382,-1,-1,-8,6,0,13,2,0
1511885853083382,-1,1,7,-1,-6,-2,0,-1
1511885853084408,1,3,10,3,22,14,2,0
1511885853084408,1,2,-24,-2,-35,-16,-1,-1
1511885853097536,-2,-6,-20,-9,22,-3,-2,-2
1511885853097536,-2,-1,4,-4,-15,0,-1,-3
1511885853104434,-1,1,4,8,23,0,4,0
1511885853104434,-1,2,20,1,-11,7,-3,0
1511885853120591,8,-1,3,1,0,-15,-2,5
1511885853120591,-3,-6,-17,-8,-15,-1,0,-1
1511885853122596,-1,3,8,4,18,0,-1,-1
1511885853122596,2,0,-3,-10,-6,7,3,2
1511885853143560,-4,-5,-20,2,16,4,-1,-3
1511885853143560,0,0,17,10,24,-5,-1,-2
1511885853144542,3,3,-2,0,-15,-6,-3,0
1511885853144542,0,-1,-5,-4,-20,-6,0,0
1511885853157689,-3,-2,4,-4,10,0,-2,0
1511885853157689,1,4,13,-7,-1,6,0,0
1511885853164594,-1,-3,-29,4,1,-12,1,-1
1511885853164594,1,-3,2,-4,-11,2,0,-1
1511885853180635,-2,2,16,2,-16,-7,1,-1
1511885853180635,-1,-1,-14,1,-1,-12,1,0
1511885853182643,-2,0,0,0,2,16,1,-1
1511885853182643,1,-1,2,-8,-10,-6,-1,0
1511885853202740,-6,-1,-4,4,14,0,-1,-3
1511885853202740,1,-6,3,0,-8,-2,3,0
1511885853210753,-4,-2,0,-12,3,-1,-11,-6
1511885853210753,-2,2,-4,0,-9,3,-2,3
1511885853217751,-1,4,10,20,1,-6,2,2
1511885853217751,-2,1,-3,0,2,8,2,1
1511885853223778,2,-3,8,-15,4,-7,2,1
1511885853223778,-1,-4,-10,1,-22,15,3,-2
1511885853240840,1,2,9,14,3,-3,-5,-1
1511885853240840,-3,-2,-1,-1,-5,-8,-3,-2
1511885853241797,1,0,0,2,66,5,2,1
1511885853241797,3,3,5,-11,-15,-11,-1,-1
1511885853262969,-1,-1,9,-3,-3,5,0,-1
1511885853262969,-1,0,-3,-5,-5,-1,-1,-1
1511885853264863,-1,-1,-8,10,-6,-3,-1,1
1511885853264863,0,-5,3,-13,3,-1,-2,-1
1511885853277007,0,1,5,16,-2,-8,0,-2
1511885853277007,0,6,20,3,0,3,0,1
1511885853285914,-2,-5,-27,-8,-16,-7,2,0
1511885853285914,-4,-4,-6,1,4,-4,-3,-3
1511885853301026,-1,-2,2,-14,-6,-1,0,1
1511885853301026,2,3,4,6,0,-1,-4,0
1511885853301964,-1,6,5,-12,-13,6,6,-1
1511885853301964,-1,-6,-8,2,8,-1,-1,1
1511885853323145,-2,-6,7,14,2,0,0,-1
1511885853323145,-1,0,-12,-1,-10,1,-2,0
1511885853325020,-2,2,9,-5,-29,-14,-5,-3
1511885853325020,1,0,-13,0,-8,-6,-1,-3
1511885853337052,0,0,-8,-13,20,13,0,0
1511885853337052,-1,-2,7,3,35,4,-1,0
1511885853346076,-1,-3,-12,5,-21,-11,-2,1
1511885853346076,-2,1,4,-2,-2,7,-1,-1
1511885853361115,-2,-4,-13,-10,-3,-4,2,-1
1511885853361115,0,-2,-3,-3,-1,6,1,-1
1511885853362117,0,1,20,10,30,25,3,3
1511885853362117,2,2,1,12,23,4,0,2
1511885853383210,-2,-4,-17,-17,24,1,0,-2
1511885853383210,0,0,-3,-8,-35,0,1,0
1511885853385178,0,-2,2,9,-4,-6,-3,-1
1511885853385178,-1,-2,6,15,-2,5,4,0
1511885853397212,0,2,-1,2,-16,6,-9,0
1511885853397212,-3,-3,-4,-15,43,7,-2,1
1511885853405283,-2,-4,-6,1,-4,-16,-1,0
1511885853405283,3,8,20,6,-2,-2,2,0
1511885853420322,0,1,-2,-13,1,-4,1,-2
1511885853420322,-1,-3,-2,10,2,1,1,0
1511885853422279,-1,-5,-8,5,-14,-2,-1,-2
1511885853422279,-4,-1,5,1,26,-1,-1,-1
1511885853443563,0,2,-3,-6,-25,-14,1,2
1511885853443563,-1,-3,-8,2,-6,-11,-4,-2
1511885853444446,3,2,0,-8,-2,8,1,-1
1511885853444446,1,-1,3,0,-13,-8,0,0
1511885853456583,-3,-2,2,4,4,8,1,-2
1511885853456583,-1,-1,-4,-10,-13,-5,0,0
1511885853465497,0,0,1,1,3,-8,-1,-1
1511885853465497,0,-1,3,5,-3,-1,-1,-3
1511885853480730,2,2,-2,-20,-13,-2,-1,1
1511885853480730,-2,-1,-3,3,7,-6,-2,-1
1511885853482543,-2,-3,0,-5,-4,5,0,-2
1511885853482543,-1,0,-5,7,-11,0,-2,-1
1511885853503667,-3,-5,-10,-28,6,5,-1,-1
1511885853503667,1,3,3,-30,-11,-5,2,2
1511885853504602,2,4,13,-5,1,-6,2,1
1511885853504602,1,3,-13,0,-5,0,-3,0
1511885853516725,-2,-8,4,31,7,-4,0,-4
1511885853516725,-4,-6,-24,-7,1,0,-1,-1
1511885853525656,-1,2,1,16,-1,-3,0,-1
1511885853525656,0,1,8,-28,-2,-4,-2,0
1511885853540701,0,1,5,-16,-14,-1,0,-1
1511885853540701,1,0,10,17,-4,3,-1,-2
1511885853542703,0,0,4,3,10,1,1,-1
1511885853542703,-1,-2,-6,11,-1,3,-2,0
1511885853562915,0,0,0,11,2,-5,-1,-1
1511885853562915,1,-2,0,4,-1,0,0,0
1511885853564761,-1,-2,-4,3,-4,-4,0,2
1511885853564761,-2,-1,0,-8,-1,-2,-1,-1
1511885853576968,-2,0,-12,-2,1,0,0,0
1511885853576968,0,0,2,6,-5,-5,-1,-2
1511885853585816,-2,0,12,-6,-4,1,-2,-1
1511885853585816,-2,-2,-29,-5,0,1,2,0
1511885853600859,-3,1,14,5,3,1,0,0
1511885853600859,-1,0,6,8,-4,-8,-2,-2
1511885853601861,-3,-2,4,0,3,-6,-1,0
1511885853601861,-1,-7,-22,-9,-2,-6,2,-1
1511885853623072,0,-2,-24,3,3,1,-4,-1
1511885853623072,-1,0,6,-3,-3,22,4,-2
1511885853624921,4,5,10,0,-2,-6,-6,4
1511885853624921,-3,-3,10,2,2,0,-12,-3
1511885853637069,1,1,4,3,-2,-16,-4,-2
1511885853637069,-2,-3,-4,0,-3,-7,-4,-1
1511885853645976,-2,-2,-6,-5,-1,1,-1,-3
1511885853645976,0,1,12,3,-5,-4,4,1
1511885853661130,-2,0,-2,-1,-1,5,-2,-1
1511885853661130,-1,2,2,-2,1,-8,4,0
1511885853662020,0,0,-7,3,-2,-1,2,-2
1511885853662020,-1,-2,3,-3,-1,4,-2,-2
1511885853683079,-2,-3,2,-1,5,17,-2,-3
1511885853683079,2,3,1,-9,-19,2,2,3
1511885853685084,-1,-2,-1,-2,6,0,0,-1
1511885853685084,-1,0,3,1,-11,-12,0,-2
1511885853697116,-1,2,-2,-2,-2,-7,1,-1
1511885853697116,-2,-2,4,5,10,4,0,-2
1511885853706137,-1,-1,-8,-2,-7,2,-1,0
1511885853706137,-1,3,8,2,1,-6,-1,0
1511885853721189,0,0,-6,-2,0,10,4,0
1511885853721189,0,-2,-11,2,4,0,-2,-1
1511885853722186,-1,-2,-2,-2,-2,-4,-1,-3
1511885853722186,-1,-1,-1,-1,3,-2,0,-3
1511885853743362,-1,0,7,0,-2,2,0,1
1511885853743362,0,-1,-3,1,4,-3,0,2
1511885853745247,-2,-2,-4,-1,0,2,1,-3
1511885853745247,0,-1,2,1,0,1,0,0
1511885853757274,1,1,-2,-1,-1,-5,1,0
1511885853757274,-1,1,3,1,0,0,-1,-2
1511885853765296,-1,1,-2,0,-1,-1,1,-1
1511885853765296,0,-1,-1,-3,1,0,-1,-3
1511885853780460,0,-1,-1,-2,-2,-5,1,-1
1511885853780460,-1,-1,-1,0,2,0,0,0
1511885853782345,0,-2,-1,-1,1,-2,-1,1
1511885853782345,-1,-1,-3,0,1,9,-1,0
1511885853803451,1,-2,1,1,-1,-4,1,-1
1511885853803451,3,-1,1,0,0,-3,-1,0
1511885853804403,-1,-1,-4,-2,-1,1,-2,0
1511885853804403,-2,-1,-1,0,-1,-1,-2,-2
1511885853816431,-1,-3,-1,-2,-1,-6,0,-2
1511885853816431,-3,-2,0,1,-1,-1,-2,-3
1511885853825459,-1,-2,0,-2,0,0,0,0
1511885853825459,0,1,-1,-3,1,0,0,0
1511885853840626,2,1,1,1,-2,-3,-1,1
1511885853840626,0,0,-2,2,-2,-2,-2,-1
1511885853842505,1,1,-2,-1,-2,2,0,-1
1511885853842505,-2,-1,1,0,-2,0,1,0
1511885853863643,-3,0,-1,0,0,-1,0,0
1511885853863643,0,-1,-2,0,0,-2,-1,-1
1511885853864559,-2,0,-2,-3,-3,0,-1,-2
1511885853864559,1,-1,0,-1,-1,0,-1,-1
1511885853876703,-1,-1,0,3,0,-1,-1,0
1511885853876703,-2,-1,1,-1,0,2,-2,-1
1511885853885613,-1,-2,-1,0,1,6,0,-2
1511885853885613,0,-1,-1,0,-2,5,2,1
1511885853899889,2,-1,1,-3,-2,6,-10,-1
1511885853899889,-1,-3,-1,1,1,7,15,-2
1511885853906895,-1,-1,-2,-2,-2,5,-6,0
1511885853906895,-1,-1,1,-4,-2,4,0,0
1511885853922980,-1,-1,-2,-2,0,1,-6,-1
1511885853922980,0,-1,-3,-2,-2,-1,-2,0
1511885853924867,-1,-3,-2,0,-2,-5,-3,-2
1511885853924867,-1,-2,-2,1,0,-7,7,-1
1511885853936902,2,2,1,4,-1,-6,7,3
1511885853936902,-3,1,1,8,5,-7,-6,-1
1511885853945922,0,3,2,-10,-3,-8,4,1
1511885853945922,-1,-2,-2,1,2,-10,-7,0
1511885853960135,0,-3,-1,-1,-1,-6,4,-1
1511885853960135,-1,1,-3,0,-1,-1,-3,0
1511885853966981,2,1,-3,3,-3,1,0,0
1511885853966981,0,2,-2,0,2,11,1,-1
1511885853983032,2,-1,2,5,2,9,1,-1
1511885853983032,1,-6,-2,-10,-6,6,-2,-3
1511885853985030,-2,-2,-1,-2,0,8,-4,-1
1511885853985030,-1,2,4,-2,-3,3,-1,-1
1511885854007084,-2,-2,-4,-5,0,-2,-15,-1
1511885854007084,0,2,3,6,0,-10,-3,1
1511885854008087,-3,-1,-2,-4,-3,-15,3,-1
1511885854008087,0,1,2,5,3,-9,-6,4
1511885854020119,-1,2,-1,-9,-5,-10,-11,1
1511885854020119,0,1,0,-2,2,-14,10,-1
1511885854027169,-2,-1,-1,1,0,-15,12,0
1511885854027169,-2,1,-1,3,-1,-22,-18,-3
1511885854043181,-1,0,0,-1,-2,-22,-10,0
1511885854043181,2,0,-9,-17,-8,-16,8,3
1511885854044184,4,6,5,10,11,-20,-22,-1
1511885854044184,0,1,-7,-12,-5,-11,9,-3
1511885854065240,-2,-2,2,1,-1,-6,66,-2
1511885854065240,0,-2,-4,2,1,-5,-3,6
1511885854067245,0,-1,3,12,7,-1,17,1
1511885854067245,0,-2,-2,-3,0,-13,-5,0
1511885854080279,0,4,-6,-6,-8,-61,-3,1
1511885854080279,-3,6,3,3,0,-94,12,-6
1511885854086298,0,4,-2,-4,-7,-62,7,1
1511885854086298,1,1,3,7,9,17,2,3
1511885854103466,-2,-7,-1,0,4,91,5,-3
1511885854103466,-2,-8,-3,0,-6,76,-14,1
1511885854104464,-2,-5,4,6,6,25,-29,-5
1511885854104464,-5,-8,-12,-15,-21,-17,-2,-6
1511885854125766,-2,2,20,22,26,63,0,4
1511885854125766,1,-4,1,9,11,75,-8,0
1511885854126868,-8,-12,-9,-8,-19,43,-4,-7
1511885854126868,-2,-8,1,4,13,104,-14,-20
1511885854139987,0,-10,-6,-2,-3,86,-26,3
1511885854139987,0,-1,-6,-13,-11,-16,-14,18
1511885854146820,4,3,6,6,7,-29,5,4
1511885854146820,-6,1,-2,-2,-13,-58,8,1
1511885854162866,-2,3,-4,-7,-9,-84,-7,-10
1511885854162866,-2,2,4,2,-3,-41,8,-12
1511885854164868,2,3,-4,-5,-7,-79,9,5
1511885854164868,1,4,2,-1,0,-33,14,0
1511885854186017,1,1,-6,-5,-1,9,3,2
1511885854186017,0,-1,2,7,10,20,10,-2
1511885854186944,-4,-5,-5,-3,0,24,-26,-11
1511885854186944,-3,-2,-1,2,-1,20,-3,-24
1511885854199965,-2,-3,-8,-12,-15,-31,-14,-2
1511885854199965,13,2,1,2,-2,-13,12,61
1511885854207095,5,-2,-6,-8,-6,16,0,16
1511885854207095,4,4,10,10,11,14,5,13
1511885854223023,0,2,-3,-3,-4,-42,-1,-14
1511885854223023,-10,-4,-6,-10,-12,-46,-5,-34
1511885854225032,-4,1,5,4,5,-4,25,3
1511885854225032,1,0,6,8,4,-26,-3,3
1511885854245206,-3,0,1,0,-2,-25,17,-3
1511885854245206,-1,-3,0,-1,-3,31,-11,-8
1511885854247209,0,-1,-3,0,2,43,-9,-4
1511885854247209,-1,-4,-6,-5,-6,23,8,2
1511885854259240,1,-1,2,5,2,19,-27,1
1511885854259240,-1,-2,-1,-3,4,28,34,-2
1511885854268264,-1,-2,-5,-5,-7,15,-5,-7
1511885854268264,0,-1,1,0,2,-3,-8,3
1511885854283308,0,-1,-1,-2,-2,0,0,7
1511885854283308,-2,-1,-1,-1,-2,-13,-13,-7
1511885854284312,-1,1,0,1,-2,-4,1,-7
1511885854284312,0,-1,-4,-3,-2,-9,3,7
1511885854305417,-1,0,-1,3,-1,-12,-8,1
1511885854305417,-1,0,1,-1,-2,-10,-5,-12
1511885854307375,-2,0,1,1,5,-7,5,-2
1511885854307375,0,-1,0,-4,-5,-16,-11,4
1511885854319524,-1,1,0,0,-1,-12,13,0
1511885854319524,-1,1,0,0,1,-2,-20,-9
1511885854328426,2,3,0,1,1,4,-10,8
1511885854328426,1,1,-1,0,-4,2,3,1
1511885854343466,-2,1,3,5,8,6,9,-1
1511885854343466,-2,-4,-4,-1,0,6,-8,-4
1511885854344469,1,-1,-2,-4,-1,10,-11,-2
1511885854344469,0,-2,-2,-1,2,2,1,0
1511885854365527,-1,-3,-3,-4,-4,0,2,-1
1511885854365527,0,1,3,3,3,-1,-4,1
1511885854367569,-1,-1,-1,-1,0,9,8,-3
1511885854367569,-1,-3,0,-1,-2,-2,2,-1
1511885854379698,-2,-1,-3,-4,-5,-10,-4,0
1511885854379698,-1,0,0,-1,-2,-5,1,0
1511885854388697,-2,-3,1,2,-2,0,2,-3
1511885854388697,0,0,-2,-2,1,-5,-1,-1
1511885854402915,-2,-2,0,-1,0,-2,-3,2
1511885854402915,-1,0,-1,-1,-2,-6,-2,-2
1511885854404809,0,0,0,-2,-3,-6,3,-1
1511885854404809,-2,-1,0,1,2,-4,-4,1
1511885854425866,0,0,-1,-3,-2,-5,2,-2
1511885854425866,-1,-1,0,1,-2,-4,-1,-1
1511885854426895,-1,1,-1,-4,0,-2,1,-2
1511885854426895,0,0,-2,-2,-1,-3,1,-1
1511885854439027,-1,0,-1,-1,1,-3,-1,1
1511885854439027,-2,0,3,0,1,2,-2,-1
1511885854448101,-2,-2,0,-1,-3,1,-1,-1
1511885854448101,9,1,-2,1,0,1,-1,2
1511885854463170,-8,-2,-1,-1,-1,0,0,-1
1511885854463170,-4,0,-2,-1,-1,4,-4,-2
1511885854465148,0,-7,-6,-2,-1,2,-1,-1
1511885854465148,-8,-7,-3,-3,-3,-1,-2,-3
1511885854485202,4,2,-4,-1,-1,0,-1,0
1511885854485202,-2,-6,1,-2,-1,2,-2,-2
1511885854487204,-3,4,1,1,-1,1,0,-1
1511885854487204,2,6,1,-5,1,7,0,3
1511885854499241,3,4,-9,0,-2,3,-1,0
1511885854499241,4,6,15,5,0,2,0,3
1511885854508263,-2,-4,0,-6,0,3,-2,-3
1511885854508263,-6,-11,-10,0,-1,-3,-2,-2
1511885854523489,-3,-10,-10,-6,-2,-2,-1,-3
1511885854523489,0,1,-10,-5,-3,1,1,-1
1511885854524406,4,4,8,-1,-1,0,0,1
1511885854524406,0,7,14,10,-1,-1,-2,0
1511885854545362,4,0,-12,-4,2,10,-3,0
1511885854545362,-7,-7,5,3,-1,3,-3,-4
1511885854547364,-1,-3,-13,-4,0,1,0,0
1511885854547364,-1,0,4,-2,-1,-10,-1,-2
1511885854559397,10,18,56,11,2,-3,2,5
1511885854559397,3,7,-34,3,1,2,1,1
1511885854568425,-14,-36,3,-16,-1,-3,-1,-3
1511885854568425,-2,4,-18,12,-2,-4,0,-2
1511885854583526,-10,-38,-29,-13,-1,-15,-1,-7
1511885854583526,0,10,33,5,-4,-11,-2,-5
1511885854584521,15,25,8,3,-1,-9,2,6
1511885854584521,1,3,25,7,2,2,-1,3
1511885854605619,-2,6,3,2,1,-6,-5,4
1511885854605619,-6,0,-7,-10,0,0,-3,-4
1511885854607586,-3,-10,-60,-6,4,18,15,0
1511885854607586,8,17,27,6,-1,-4,-1,4
1511885854619632,4,18,-3,-2,2,14,1,2
1511885854619632,-9,-51,6,2,-4,-15,-6,-2
1511885854628640,-10,-5,-10,-8,-7,-15,-10,-12
1511885854628640,-10,-12,-22,-5,-2,-21,-3,-5
1511885854642679,23,52,46,9,1,-1,2,4
1511885854642679,-7,9,3,0,7,3,5,5
1511885854644682,-8,-50,-38,4,0,-13,-2,-8
1511885854644682,-15,-44,-22,-6,-4,-4,6,-1
1511885854665737,-12,-20,-51,-15,-7,-7,-8,-8
1511885854665737,13,42,45,-8,-5,-15,7,-3
1511885854666741,13,37,29,15,4,4,-2,9
1511885854666741,8,21,-4,-8,3,1,5,7
1511885854679777,-4,-22,11,3,2,27,-4,-1
1511885854679777,-3,-8,-23,-3,-1,6,4,0
1511885854687839,-2,21,29,6,-1,-9,-5,-2
1511885854687839,9,4,-9,-1,3,22,-9,2
1511885854702838,-12,-26,-17,3,-2,-9,17,3
1511885854702838,-5,-18,-23,-5,-4,11,-3,-6
1511885854704841,-6,-3,11,-6,-4,-14,-5,-5
1511885854704841,2,15,21,2,-1,-6,-5,-4
1511885854725897,5,25,18,12,1,-15,-1,2
1511885854725897,9,30,20,6,1,1,0,4
1511885854726900,2,-44,21,7,-3,-9,5,2
1511885854726900,-21,-39,-95,-34,-3,9,-2,-9
1511885854739040,-5,13,-3,-6,-1,-15,-1,-6
1511885854739040,0,2,8,8,2,-2,4,3
1511885854747960,8,40,24,-1,0,0,1,3
1511885854747960,4,0,19,11,1,4,2,1
1511885854763113,5,-1,12,6,0,3,0,4
1511885854763113,-7,-15,-21,-10,-2,-13,-6,-2
1511885854765026,-5,-7,-6,4,-2,13,-7,-1
1511885854765026,0,-4,-9,-4,-2,12,4,-2
1511885854786117,-1,0,-1,4,-3,1,-2,-3
1511885854786117,5,10,11,2,1,7,-3,4
1511885854787115,-3,-3,-16,-6,0,6,0,-2
1511885854787115,0,5,11,-1,-3,-6,-5,-3
1511885854799146,5,2,8,-2,-2,-4,-10,0
1511885854799146,-1,-11,-25,-5,-1,9,-4,-1
1511885854808170,0,-2,-1,3,0,-2,12,2
1511885854808170,2,15,24,3,1,7,-5,1
1511885854822235,-6,-13,-8,0,0,7,-2,-4
1511885854822235,-5,-19,-14,-5,-3,0,-7,-4
1511885854829326,2,14,-5,0,0,7,-2,0
1511885854829326,3,6,27,5,-1,-2,3,3
1511885854845365,-8,-9,-13,-3,-1,-3,-2,-5
1511885854845365,3,-2,-17,-7,-1,-9,0,0
1511885854847274,1,10,12,5,0,-1,0,1
1511885854847274,-4,-2,-5,-2,0,-11,3,1
1511885854859306,-6,-13,-4,-5,-2,-8,0,-3
1511885854859306,1,3,5,-1,-2,-5,3,-3
1511885854868330,6,6,-1,0,3,4,-1,2
1511885854868330,-4,-5,2,-3,-1,-11,-5,-2
1511885854882503,-2,-2,0,4,2,-1,11,3
1511885854882503,1,3,1,2,-1,7,2,1
1511885854889525,-2,-5,-9,0,-2,-7,-3,1
1511885854889525,4,3,3,1,0,-5,-1,0
1511885854905619,0,2,11,-2,-3,2,-4,0
1511885854905619,-4,-6,-20,-6,0,-10,0,-3
1511885854907577,-4,-6,-10,-1,0,4,0,-1
1511885854907577,1,3,0,1,1,4,0,-2
1511885854927625,1,0,4,-1,-1,-1,0,0
1511885854927625,2,-2,9,0,3,1,0,1
1511885854929630,1,5,0,-2,-1,-7,-6,-1
1511885854929630,-3,-10,-5,-3,0,8,0,-3
1511885854942669,0,-4,-10,0,-1,-1,-1,1
1511885854942669,-1,4,6,6,0,-10,-4,0
1511885854949683,-2,0,0,-6,-5,10,2,-1
1511885854949683,1,2,2,-4,2,-6,4,1
1511885854965728,-1,1,0,11,-2,-8,-8,-2
1511885854965728,-1,2,23,3,-1,3,-1,0
1511885854966731,-2,0,-10,-1,2,-5,3,-1
1511885854966731,-2,-5,-9,-5,-4,-4,-1,-2
1511885854987787,-1,-2,-4,-6,2,2,1,-1
1511885854987787,0,1,2,2,-1,-1,-3,0
1511885854989790,0,0,6,-1,0,0,-3,-1
1511885854989790,-1,-4,0,-1,-3,0,2,-3
1511885855002824,0,0,-3,-4,-1,4,2,-1
1511885855002824,-2,-4,-13,-6,3,2,1,-1
1511885855008839,-2,0,11,3,-2,0,-2,-1
1511885855008839,0,1,1,7,2,-1,-2,-1
1511885855025918,-1,1,-3,-1,-4,2,1,-1
1511885855025918,-1,-1,-1,-1,-3,0,0,0
1511885855026920,-1,-1,-5,-6,-1,-1,0,-1
1511885855026920,0,2,3,0,-1,-4,-4,-1
1511885855047976,-2,-5,-4,-10,-2,-2,-1,-2
1511885855047976,0,-1,-4,4,-5,-4,-2,0
1511885855049985,-1,-3,-2,-5,0,4,10,0
1511885855049985,-1,1,6,14,5,-3,-12,0
1511885855063048,-1,0,-1,-5,-10,3,-9,1
1511885855063048,-2,-4,-8,-4,-4,-18,-2,-3
1511885855069033,-2,0,7,7,3,0,-1,-1
1511885855069033,-1,-1,0,-6,-7,9,13,-1
1511885855085075,-1,-2,-4,-3,9,8,1,-2
1511885855085075,2,3,1,7,3,7,-1,2
1511885855087079,-2,-5,-8,-11,13,-9,-4,-2
1511885855087079,0,1,4,16,-25,-16,-7,-2
1511885855108136,0,-2,-1,0,6,2,-5,0
1511885855108136,1,0,1,-4,-7,8,10,0
1511885855109139,-2,-1,-2,-5,4,-8,-5,-1
1511885855109139,1,-1,-5,-7,6,-3,-2,1
1511885855122216,0,-2,-2,2,-8,0,0,-2
1511885855122216,-1,-2,0,-1,3,4,9,-2
1511885855129194,0,1,3,4,-1,9,-13,2
1511885855129194,0,-1,-1,-1,3,-1,-18,1
1511885855145239,-2,-1,0,1,-1,-5,36,0
1511885855145239,-2,-2,-1,1,3,-5,-16,-2
1511885855147239,0,0,-1,-4,-3,5,3,-2
1511885855147239,2,1,-2,-7,5,4,8,2
1511885855168299,0,-2,0,6,5,-1,-13,-2
1511885855168299,0,0,2,0,-1,7,8,3
1511885855169303,-2,-2,1,4,-10,-11,4,-4
1511885855169303,-2,-2,-2,-5,-1,6,-12,0
1511885855181453,-3,0,-1,-5,-2,-5,-5,-2
1511885855181453,9,0,-2,2,1,4,-2,1
1511885855190556,0,0,-2,1,1,0,0,-2
1511885855190556,-2,-1,-2,-7,-9,-2,6,-2
1511885855205613,-1,2,0,3,-3,-3,4,1
1511885855205613,-5,-1,-1,-2,1,-2,-22,-1
1511885855207596,0,-1,-1,-6,0,-3,0,0
1511885855207596,3,-1,0,4,3,8,-1,-2
1511885855227615,-3,-2,0,0,2,-6,-2,-1
1511885855227615,-3,-1,-1,-1,-1,-1,-1,-1
1511885855229618,-2,-1,-2,-1,-9,4,10,0
1511885855229618,-3,-3,-3,-3,28,-13,-8,2
1511885855241650,0,0,-2,-4,-49,-2,-22,-2
1511885855241650,-3,0,0,-2,8,5,19,-4
1511885855250844,-2,-3,-1,-3,-70,-35,-8,-1
1511885855250844,-1,-1,-3,-8,35,12,7,1
1511885855265887,2,2,4,8,19,2,-5,1
1511885855265887,0,-1,0,4,6,19,0,-1
1511885855266890,0,-3,0,-2,-18,2,-4,2
1511885855266890,-2,0,0,-1,-18,-12,1,-4
1511885855287945,-1,-2,-3,-9,-2,2,11,1
1511885855287945,0,0,0,3,5,-6,0,-1
1511885855289952,1,-1,-1,4,40,16,0,1
1511885855289952,-1,-1,0,1,-16,-4,1,-1
1511885855301983,-5,0,1,-1,6,9,4,-4
1511885855301983,4,-2,-1,-4,-22,-18,-5,-1
1511885855311004,-2,0,1,-1,19,7,4,-1
1511885855311004,0,-1,0,-2,-56,-6,-5,-1
1511885855325041,1,0,3,9,66,15,13,1
1511885855325041,-4,-2,-4,-11,-44,-7,-12,1
1511885855327047,2,0,-1,-4,9,8,4,-2
1511885855327047,-2,-1,1,5,-8,-4,14,-4
1511885855348103,3,-3,-3,-2,-8,-6,-33,0
1511885855348103,0,-1,0,-12,10,-1,-25,-2
1511885855350201,-4,-2,0,8,10,-2,-9,1
1511885855350201,0,1,1,2,8,5,4,-2
1511885855362144,0,0,-4,-7,-15,-16,-8,-2
1511885855362144,0,-1,-1,4,29,-3,20,0
1511885855371165,-2,1,0,-5,-48,-7,-10,-1
1511885855371165,0,0,-1,2,11,-16,-9,0
1511885855385204,-3,-1,-1,-2,-5,-11,2,0
1511885855385204,0,2,1,4,19,10,3,1
1511885855387206,0,-1,-2,-4,-27,-19,4,-1
1511885855387206,0,-1,2,7,40,28,1,-1
1511885855408263,1,0,-2,-8,-28,-13,1,-1
1511885855408263,-4,-2,-2,3,8,-7,5,0
1511885855409265,1,0,-1,5,42,-1,-10,0
1511885855409265,1,0,-2,-11,-78,5,4,0
1511885855421301,-1,0,0,8,38,36,6,0
1511885855421301,-1,-2,-1,3,-27,-19,25,-3
1511885855430458,1,1,-1,2,17,15,-1,-3
1511885855430458,-3,-1,-4,-7,-48,-18,-2,0
1511885855445497,0,-1,-4,-2,6,2,1,-1
1511885855445497,0,0,3,4,12,12,-6,-1
1511885855447499,-1,-2,-2,-2,-8,1,2,-1
1511885855447499,2,-1,0,1,38,9,5,1
1511885855467556,-1,1,1,2,2,-7,12,1
1511885855467556,-1,0,-2,4,-11,-5,-13,0
1511885855469558,-1,-1,0,2,22,3,2,-4
1511885855469558,-1,0,-2,-4,-8,-5,-9,-2
1511885855481670,1,-1,-2,-4,-5,-8,-1,-2
1511885855481670,0,1,0,-6,-25,5,-3,0
1511885855490616,1,0,2,6,6,15,5,-1
1511885855490616,-1,-4,-2,-1,17,-16,4,1
1511885855505657,0,-1,2,-3,-8,-4,-16,-1
1511885855505657,-2,-1,0,4,29,9,-1,-1
1511885855506661,0,1,1,0,-7,-1,0,1
1511885855506661,-3,-1,-1,-2,19,11,2,0
1511885855528721,1,-1,-2,-4,-25,-14,0,2
1511885855528721,-2,-2,-1,1,20,10,2,-2
1511885855529722,-1,-2,-3,-5,14,-15,-6,2
1511885855529722,-1,1,0,0,-13,1,-4,0
1511885855549801,-1,2,2,-1,-12,4,6,1
1511885855549801,-1,-1,-3,-4,-29,17,-4,-1
1511885855550781,-1,-2,-2,3,66,8,4,-1
1511885855550781,1,-1,-1,-9,-61,-7,1,1
1511885855564863,-1,0,-2,-2,29,15,-3,-2
1511885855564863,0,-1,-1,1,-15,-12,-5,-1
1511885855565816,-1,1,1,8,-13,-2,-5,-2
1511885855565816,-3,-3,-2,-2,25,-2,-2,-2
1511885855587878,0,-1,-1,0,-12,-8,-1,-2
1511885855587878,-2,-3,-4,-11,0,-15,-1,0
1511885855587878,2,2,0,0,-5,-1,2,1
1511885855587878,-1,-2,-1,5,22,9,-1,-2
1511885855610123,-2,0,0,-3,32,-5,-1,0
1511885855610123,0,1,-1,3,25,1,0,-1
1511885855611088,0,1,0,-3,-41,-14,-4,0
1511885855611088,1,0,0,5,32,11,1,-1
1511885855624981,-1,-4,-3,-2,-17,-1,0,-3
1511885855624981,1,-1,0,-2,3,-12,-3,-2
1511885855626086,1,1,-1,-1,3,0,-1,1
1511885855626086,2,1,2,4,8,-2,-3,-1
1511885855647129,-2,-1,0,1,-7,11,3,-1
1511885855647129,-2,0,-1,-1,-3,-6,-3,0
1511885855648143,-3,-4,-4,-10,-29,-11,-3,-3
1511885855648143,0,2,0,16,-7,-3,14,0
1511885855670170,2,0,-1,4,-2,0,-26,3
1511885855670170,-1,0,0,0,-17,-4,2,0
1511885855671170,-1,-1,0,-5,1,10,6,0
1511885855671170,-2,1,-1,0,-4,-3,-9,-1
1511885855685345,-3,-2,-3,-2,-6,-13,-3,-3
1511885855685345,-2,-3,-2,-4,6,5,4,-2
1511885855685345,17,3,-1,2,5,15,15,4
1511885855685345,-24,-12,-8,-11,-13,-46,-28,-7
1511885855707556,-2,0,0,-2,-15,-11,10,-6
1511885855707556,-2,1,-1,-9,-13,-13,-7,-2
1511885855708368,5,1,5,6,-45,-9,-1,1
1511885855708368,7,1,-2,1,16,16,-7,2
1511885855729833,0,-1,-3,-17,-21,9,5,1
1511885855729833,-3,0,4,16,0,-13,-1,-5
1511885855730650,-8,-1,-2,-7,-6,17,-1,0
1511885855730650,4,4,3,-11,-5,-9,4,1
1511885855744866,-5,-2,-2,17,0,-4,3,0
1511885855744866,7,2,-6,-4,-7,10,4,2
1511885855745689,-6,-5,-5,-7,8,-12,-7,-2
1511885855745689,-3,-7,3,-10,-5,13,11,-3
1511885855767765,2,1,5,9,10,0,-21,1
1511885855767765,3,-1,1,-2,-10,-7,0,0
1511885855774766,-2,1,0,14,7,11,1,1
1511885855774766,7,2,-4,-7,9,17,9,1
1511885855789916,-12,-4,-3,-2,-15,-4,6,-2
1511885855789916,1,2,2,4,-13,-9,-2,-1
1511885855790808,3,2,24,-3,4,-5,-9,-3
1511885855790808,0,-10,-62,-6,-38,27,7,1
1511885855805030,3,3,6,-1,15,-11,2,0
1511885855805030,-3,0,4,14,6,8,0,1
1511885855805850,-7,-3,0,-13,5,-10,0,-2
1511885855805850,2,-1,15,16,-7,-3,-8,-1
1511885855827909,2,-3,-6,-11,-8,0,4,0
1511885855827909,-2,-4,-3,-13,4,1,-2,-2
1511885855827909,-2,4,4,2,-11,1,-3,-1
1511885855827909,2,4,14,0,30,-6,-3,-2
1511885855850016,-1,0,-8,3,-31,-2,3,2
1511885855850016,0,2,11,0,24,14,5,0
1511885855850974,-3,-7,-13,1,-20,-5,-6,-1
1511885855850974,-2,4,-2,2,28,5,5,0
1511885855865007,2,-1,6,-5,14,-5,-11,-4
1511885855865007,-4,-1,-6,2,3,8,-1,-2
1511885855866013,-2,-2,-12,-5,3,-4,-1,-3
1511885855866013,-1,0,10,4,22,1,4,0
1511885855887068,0,3,2,5,-13,-9,5,0
1511885855887068,0,-4,-6,-6,-3,1,-8,1
1511885855888067,-1,0,-3,7,21,7,4,0
1511885855888067,-2,0,9,-6,-16,-7,-4,0
1511885855910370,6,-3,-6,-11,-1,-4,-1,-3
1511885855910370,-2,-3,-2,3,-18,-2,-3,-1
1511885855910370,-3,-2,-3,2,10,-4,1,-1
1511885855910370,-1,4,5,0,2,18,2,0
1511885855924603,-1,2,0,0,1,5,-2,0
1511885855924603,-1,-2,-2,-9,-6,3,-4,-2
1511885855925415,0,1,-4,-2,-7,-4,4,-2
1511885855925415,1,-2,0,-3,4,-6,-7,0
1511885855947679,-4,-1,0,15,83,11,0,0
1511885855947679,-1,2,1,-11,-82,-10,4,-1
1511885855948514,-4,-5,-8,4,67,7,8,-2
1511885855948514,2,4,10,12,-41,-3,-25,3
1511885855969669,-1,-3,-6,-9,-21,12,6,1
1511885855969669,1,-3,-10,4,-18,-3,3,1
1511885855970668,-2,1,8,2,33,-9,-1,-2
1511885855970668,-4,-6,-19,-16,-27,-10,2,0
1511885855984705,-1,-1,7,-2,-74,-10,1,-2
1511885855984705,0,-1,1,7,83,20,-1,0
1511885855985708,1,1,-2,-3,-31,-11,-3,0
1511885855985708,1,4,12,-6,10,-2,3,-2
1511885856007768,-4,0,1,16,53,14,6,1
1511885856007768,2,-2,-6,-10,0,9,-2,-3
1511885856007768,-1,-1,2,-1,-41,-11,-7,1
1511885856007768,2,0,4,4,19,-5,2,-2
1511885856030831,-4,-3,-8,-17,-37,-10,-1,-1
1511885856030831,-5,-2,4,-4,8,-17,-4,-1
1511885856030831,0,0,2,10,13,14,16,1
1511885856030831,-1,0,-5,0,12,6,1,-2
1511885856044994,0,0,0,-3,-6,-2,4,-1
1511885856044994,-1,-4,-6,-4,2,3,-18,2
1511885856045871,0,1,1,-7,-30,-3,-13,-1
1511885856045871,-4,0,1,2,3,-10,7,-1
1511885856066930,1,-1,2,-1,22,7,1,0
1511885856066930,-1,1,1,3,-28,-6,7,0
1511885856067934,-2,-3,-4,-2,-15,-1,-6,-1
1511885856067934,1,-2,-2,-3,1,0,1,0
1511885856090112,1,-1,8,-6,16,-1,-8,-3
1511885856090112,-1,0,-10,7,-5,-10,4,-2
1511885856090990,-1,1,-9,-3,-8,21,-3,-2
1511885856090990,0,-1,12,11,-8,-9,6,-1
1511885856104060,0,-2,-3,-6,-35,-10,-2,-2
1511885856104060,-1,-2,0,-6,6,-4,2,-2
1511885856112080,-1,-2,-2,-7,9,-1,-1,-2
1511885856112080,-2,-4,-5,-8,-10,5,-5,-3
1511885856127226,2,-1,-1,1,42,-3,0,1
1511885856127226,-1,3,4,2,-3,4,-1,-1
1511885856128092,-1,-1,0,-8,-20,-3,-5,-2
1511885856128092,0,-2,-3,-1,0,-2,2,0
1511885856150148,2,0,2,5,-6,-5,-4,0
1511885856150148,-1,1,1,0,-13,-7,3,0
1511885856151153,2,0,-4,-1,12,-14,-1,0
1511885856151153,1,1,7,2,-17,8,-6,0
1511885856164187,-1,0,-11,-5,0,14,16,0
1511885856164187,-1,-1,2,0,-4,-5,-6,-3
1511885856172400,-3,0,20,12,-9,-1,-2,-2
1511885856172400,-2,-1,-18,-9,21,-14,-2,-3
1511885856187361,0,0,10,2,-17,-6,0,1
1511885856187361,-1,0,4,7,32,3,0,-2
1511885856188247,1,-1,-3,-10,-2,0,-1,-1
1511885856188247,0,2,6,6,-30,6,2,1
1511885856210306,1,2,-2,-9,2,5,-4,-2
1511885856210306,1,-5,-7,0,-13,-4,0,0
1511885856210306,-2,-1,0,11,19,-4,0,-1
1511885856210306,0,-2,-4,-4,-16,-6,0,1
1511885856224533,-1,-4,-4,-2,-13,-11,-7,-2
1511885856224533,-3,0,2,2,47,7,-2,1
1511885856232364,7,0,-2,-4,-53,-5,-3,-1
1511885856232364,-2,-3,1,-1,24,3,-2,0
1511885856247405,1,1,-4,2,-12,-5,-1,0
1511885856247405,-2,-1,1,-3,22,1,0,1
1511885856248407,-3,-1,-7,-11,0,2,-1,1
1511885856248407,-1,1,15,28,71,3,-1,0
1511885856270505,-1,-3,-4,-1,14,2,0,0
1511885856270505,2,2,5,-1,-52,-22,-1,0
1511885856270505,0,-1,-6,-9,36,11,0,2
1511885856270505,-2,-1,-13,-5,-38,-10,0,-3
1511885856284635,-5,-5,-8,2,-15,-5,-2,-2
1511885856284635,2,5,8,-2,20,3,-1,-2
1511885856292532,-2,-1,-2,1,3,-1,3,0
1511885856292532,-1,-1,3,-3,11,-14,-11,-1
1511885856307567,-1,0,2,1,-46,14,-1,0
1511885856307567,0,-2,-5,-1,-5,15,17,0
1511885856308571,-1,-1,1,3,6,3,-20,0
1511885856308571,-2,2,4,12,12,2,6,0
1511885856329800,1,-2,-3,-4,-4,-6,-4,-2
1511885856329800,-1,-1,-2,-7,-7,23,1,-1
1511885856330625,-1,2,10,5,17,8,6,-1
1511885856330625,-1,-6,-29,-16,0,-3,-1,-2
1511885856344707,1,4,8,9,25,-4,-2,0
1511885856344707,-2,0,6,5,32,-2,-2,-1
1511885856352687,-5,-3,-1,-2,-13,-9,-3,-3
1511885856352687,-2,-2,5,-8,53,15,-8,-3
1511885856367727,-1,-1,-6,-8,-15,-8,5,0
1511885856367727,0,-1,-5,-3,-35,-6,0,0
1511885856367727,2,2,0,4,-3,-6,2,-1
1511885856367727,2,4,8,-4,-8,-14,-4,0
1511885856389830,-1,-4,-6,1,7,12,-1,-3
1511885856389830,-5,-3,-1,-1,22,-3,4,0
1511885856390787,-2,-6,-4,-3,-30,-5,2,-1
1511885856390787,0,4,9,4,-32,2,1,-1
1511885856403915,1,2,13,0,16,-17,-5,1
1511885856403915,-2,-2,-22,-3,-21,-2,-4,0
1511885856412917,-4,-3,8,3,14,5,2,-4
1511885856412917,-1,1,18,2,-15,8,5,0
1511885856427919,-3,-4,-13,-3,-24,-3,-1,-2
1511885856427919,2,-3,-14,-12,9,-10,-8,-1
1511885856427919,3,1,8,4,-22,-12,-2,0
1511885856427919,2,-2,-6,-7,-23,1,4,0
1511885856449946,-1,3,14,6,9,8,-2,-1
1511885856449946,-2,-2,-3,-5,-17,-10,-2,-1
1511885856450949,-1,2,-8,-4,-6,-4,-2,0
1511885856450949,-3,-2,1,0,-32,-15,5,-2
1511885856463981,1,-3,-5,1,16,8,-3,-1
1511885856463981,-1,1,1,1,4,1,0,-2
1511885856472111,-2,1,-4,-46,-3,-12,-1,-1
1511885856472111,0,6,4,52,14,17,6,2
1511885856487044,4,-3,-4,5,32,-16,-13,-3
1511885856487044,2,-3,10,11,-14,1,-3,-3
1511885856488044,4,-1,-9,-1,6,-2,0,-1
1511885856488044,0,-1,1,-28,0,-4,-1,-1
1511885856510188,-3,0,-8,-13,0,16,9,2
1511885856510188,-2,-2,-18,5,5,-1,0,-1
1511885856511136,-2,-4,-1,3,7,10,2,0
1511885856511136,-1,-1,-4,-7,-1,-5,-3,-1
1511885856524338,0,2,8,3,-10,-2,-2,1
1511885856524338,-1,2,11,-4,2,0,-3,1
1511885856532304,-7,-4,-8,8,9,3,3,-3
1511885856532304,8,0,-4,-6,-5,-3,2,0
1511885856547202,7,6,9,3,-3,0,-23,-2
1511885856547202,-4,-1,1,-3,4,0,13,4
1511885856548205,6,2,-1,8,5,-6,-16,-2
1511885856548205,-10,-7,-10,-14,1,4,-4,-4
1511885856570323,1,0,3,1,-5,-5,7,-1
1511885856570323,2,2,4,7,3,0,-2,0
1511885856570323,0,1,6,8,3,0,0,2
1511885856570323,2,0,-4,-8,-4,-2,-3,1
1511885856584384,-2,-1,-12,-1,0,4,12,0
1511885856584384,-1,-3,-5,-15,-7,-5,-14,-1
1511885856592438,-4,-1,-1,22,3,2,4,2
1511885856592438,2,-1,-10,-8,-3,-2,-3,-1
1511885856607522,-6,-4,6,-8,-1,-1,9,-3
1511885856607522,-1,3,9,8,1,0,-3,-2
1511885856608422,4,2,0,-8,3,2,1,0
1511885856608422,-3,1,5,6,0,2,-1,-1
1511885856629658,-3,-5,-12,-9,3,-3,5,2
1511885856629658,1,4,32,3,-14,-10,-5,-3
1511885856630482,-2,-8,-45,-6,-2,-4,1,0
1511885856630482,1,3,24,2,-12,-13,0,-2
1511885856644642,-1,2,-4,-4,-9,9,6,1
1511885856644642,-2,-4,-1,6,5,0,1,0
1511885856652593,-5,5,28,6,2,-1,2,-2
1511885856652593,7,0,-4,-6,5,3,-1,0
1511885856667579,0,1,3,14,72,5,-4,-2
1511885856667579,-1,-2,-6,-9,-63,-10,-1,-1
1511885856668583,-4,-3,-7,-19,-32,-26,-4,-2
1511885856668583,-2,-8,-16,-7,16,17,-1,0
1511885856689974,-1,4,16,-4,20,2,-1,1
1511885856689974,1,-1,-9,25,24,4,2,2
1511885856690864,1,4,15,10,23,17,4,1
1511885856690864,-2,-3,-12,-16,0,6,-3,-1
1511885856712277,1,-3,-9,2,-33,-9,0,0
1511885856712277,0,-2,-4,-13,-5,-9,0,-1
1511885856713095,1,-2,-8,2,-33,0,0,0
1511885856713095,-2,1,8,8,14,1,4,-2
1511885856727295,-3,-3,-9,-2,-11,-7,-22,-1
1511885856727295,1,0,-2,-5,19,19,6,0
1511885856728295,3,1,4,2,10,4,6,-1
1511885856728295,-1,0,-8,-1,-5,-3,-16,-1
1511885856750353,2,-1,3,6,7,8,4,0
1511885856750353,-2,0,3,-3,-47,-9,-5,-3
1511885856750353,2,0,1,-1,25,14,0,-1
1511885856750353,-4,-3,-8,1,0,-5,4,-1
1511885856773515,0,0,7,2,-20,-3,2,-1
1511885856773515,0,0,-3,-4,10,-11,-5,-1
1511885856773515,-2,-4,-5,-5,1,15,1,-1
1511885856773515,0,1,2,7,10,-7,0,1
1511885856787510,0,-3,-2,-4,-18,-1,0,-1
1511885856787510,-1,-2,-5,-10,26,3,2,-1
1511885856788481,1,2,2,4,-1,-6,-5,0
1511885856788481,-2,-3,3,9,-1,-11,-1,-1
1511885856809647,-3,-4,-6,-6,-5,-3,3,-1
1511885856809647,2,4,1,3,0,6,-1,-3
1511885856810553,1,-1,1,-10,10,-3,5,0
1511885856810553,0,2,5,17,-15,-2,-13,-2
1511885856833576,0,0,-2,-1,0,-5,5,-3
1511885856833576,0,-2,-2,-3,12,-2,-12,0
1511885856833576,-3,-1,14,-2,-10,-4,-1,-1
1511885856833576,-1,-3,-19,-7,0,-5,4,-1
1511885856847730,-1,2,3,1,-2,-2,-2,0
1511885856847730,-2,2,-1,0,2,-2,-2,-2
1511885856848617,-1,0,4,3,0,1,-2,0
1511885856848617,1,-1,3,-2,0,1,2,-1
1511885856869712,0,-2,-7,2,-6,-6,-2,0
1511885856869712,-1,0,4,-10,3,5,4,-1
1511885856870677,-1,-5,-13,9,2,-4,0,-2
1511885856870677,0,2,8,1,-3,2,3,-1
1511885856892963,1,0,-5,1,-3,3,-2,-3
1511885856892963,-4,-3,5,3,13,-6,4,-2
1511885856893849,-1,1,-6,-6,-3,2,-2,0
1511885856893849,-2,-2,2,-12,9,3,0,-1
1511885856907927,-2,-1,-6,15,-14,-14,-1,-1
1511885856907927,0,1,-5,-7,2,-1,0,0
1511885856907927,0,-1,15,-10,-4,-1,-5,-1
1511885856907927,1,-2,-18,24,1,1,2,0
1511885856930109,1,-1,0,-21,7,0,2,1
1511885856930109,-1,-3,-1,8,-4,0,3,-1
1511885856930948,-2,0,-7,2,-3,-7,-2,-1
1511885856930948,0,0,11,-4,-11,-3,4,2
1511885856953122,-1,0,2,-4,0,3,-7,-3
1511885856953122,2,3,-1,25,3,2,-1,0
1511885856954009,-1,-1,1,-7,1,-2,-2,-2
1511885856954009,-1,0,14,-8,-4,0,4,-1
1511885856967116,0,0,-16,-2,2,-2,2,1
1511885856967116,-2,-5,-11,-16,2,2,1,-2
1511885856968045,0,2,4,11,7,-5,0,-2
1511885856968045,-4,-2,-3,-5,-7,-1,-4,-1
1511885856990158,-2,-3,9,-5,2,-3,-1,0
1511885856990158,0,-10,-42,-7,-4,0,-1,0
1511885856991131,-1,1,-2,-2,1,-2,0,0
1511885856991131,-1,2,6,-3,-4,1,-2,-2
1511885857013184,1,3,16,2,-9,0,-1,0
1511885857013184,-3,-4,9,9,11,1,2,-1
1511885857014170,-3,-8,-19,-25,-11,-7,-2,-1
1511885857014170,1,-1,-5,-6,4,-3,0,-1
1511885857027247,-4,0,0,-8,-1,-1,-2,-3
1511885857027247,0,3,10,15,0,2,1,2
1511885857028214,2,2,-1,6,-4,-1,0,1
1511885857028214,0,1,10,1,-1,-1,-2,-1
1511885857050268,2,7,7,1,-1,3,1,0
1511885857050268,-1,-10,-18,-3,6,-4,-1,-1
1511885857050268,-1,-5,-26,16,3,0,-1,-1
1511885857050268,0,-1,-13,-17,-7,-6,-1,-2
1511885857073371,1,2,16,-2,-3,0,1,1
1511885857073371,0,8,22,-8,-4,5,0,0
1511885857074347,-1,0,-7,-8,4,-2,0,-1
1511885857074347,-2,-1,4,24,5,0,-2,-2
1511885857087366,-1,-5,-12,14,1,0,-1,-1
1511885857087366,0,1,9,-14,-3,0,-2,0
1511885857088377,-1,3,5,-2,1,1,1,0
1511885857088377,0,0,0,-3,0,0,-1,1
1511885857110454,-3,-5,-5,5,-7,-12,-4,-2
1511885857110454,2,1,-4,-12,-7,0,-1,-2
1511885857110454,-1,1,11,-2,1,2,8,-1
1511885857110454,0,-1,-8,-9,5,-6,-23,-2
1511885857132482,0,-3,0,13,12,13,9,0
1511885857132482,-2,-2,2,-6,-10,-7,-3,-1
1511885857133538,3,4,2,-21,-9,-2,2,-1
1511885857133538,-1,-2,2,4,-12,6,-3,0
1511885857147623,-3,-3,-9,-15,-7,2,1,0
1511885857147623,-1,1,2,-12,-12,-3,-4,-1
1511885857148527,0,-2,5,24,5,4,-3,-1
1511885857148527,-1,-3,-5,5,3,-3,6,0
1511885857169668,1,-1,0,-12,-4,-2,-4,0
1511885857169668,1,2,2,11,3,5,7,0
1511885857170672,-4,-2,-2,4,-3,-5,4,2
1511885857170672,1,-2,-1,2,3,0,-9,-2
1511885857192780,0,1,-2,7,2,-3,-4,-3
1511885857192780,-1,0,2,3,5,-3,-2,0
1511885857192780,-1,-3,1,0,2,2,-1,-1
1511885857192780,-1,0,0,-1,-5,-2,5,0
1511885857215793,-1,-3,-2,-5,-2,2,8,-2
1511885857215793,2,0,-1,0,-1,1,-4,2
1511885857216797,-2,-3,2,3,0,-1,-6,-1
1511885857216797,-1,0,-2,-2,1,0,7,0
1511885857229869,-2,-1,-1,-2,-3,-3,-2,-1
1511885857229869,0,0,-1,-9,3,-1,0,0
1511885857230829,-2,1,0,2,-2,1,-5,0
1511885857230829,1,1,-1,2,1,1,2,-1
1511885857252911,2,-2,-3,10,3,3,4,-1
1511885857252911,-2,0,0,4,1,-2,-11,-3
1511885857252911,1,-1,0,-4,-4,-2,-1,0
1511885857252911,-2,-3,-4,-12,-4,-1,5,-2
1511885857267967,-2,-1,1,8,7,-1,-14,2
1511885857267967,-1,-1,-2,-4,-9,-5,2,-4
1511885857267967,0,-2,0,3,-3,-3,3,2
1511885857267967,-1,-1,0,-2,-2,-3,1,0
1511885857290030,1,1,-1,0,-3,0,-4,0
1511885857290030,-1,-1,-3,2,1,0,-1,-2
1511885857290992,2,1,-2,-6,1,2,-6,-1
1511885857290992,2,1,1,5,3,2,1,-1
1511885857312072,-1,-3,-2,-4,-3,4,5,0
1511885857312072,-3,-1,0,3,-3,5,-3,-1
1511885857313048,-1,-3,-4,-7,-2,3,23,-2
1511885857313048,-1,0,-1,-9,-6,-2,-37,-4
1511885857327111,-2,-2,2,0,6,-4,-27,1
1511885857327111,2,-1,0,-6,-4,-8,21,-11
1511885857328087,2,5,11,17,12,1,83,32
1511885857328087,-2,-1,0,1,-1,-16,4,0
1511885857350145,-1,3,-2,-5,-8,-14,9,0
1511885857350145,-1,2,1,1,3,-25,4,1
1511885857350145,-2,0,-2,-7,-5,-26,-20,-4
1511885857350145,2,3,-1,-2,-5,-28,18,0
1511885857372320,0,4,4,-1,0,-32,10,5
1511885857372320,1,0,2,11,10,-20,10,4
1511885857373206,2,3,3,2,1,-1,-19,-8
1511885857373206,-2,-2,-1,-2,1,5,2,4
1511885857386244,1,-3,-4,-8,-3,15,-8,-6
1511885857386244,1,2,0,-4,-10,-29,-3,3
1511885857395267,-2,3,0,-2,2,-66,-8,-7
1511885857395267,1,7,14,17,19,-32,9,1
1511885857410309,1,-2,-2,-2,2,39,5,2
1511885857410309,-2,-7,-3,-3,-5,78,-12,0
1511885857410309,-1,-11,-6,-9,-8,111,-35,-5
1511885857410309,-2,-6,-7,-8,-10,21,-4,-4
1511885857432501,-1,2,2,2,1,-75,6,0
1511885857432501,0,-2,2,1,4,49,-12,3
1511885857433590,-4,-8,-4,-4,-8,75,-30,-10
1511885857433590,-4,-10,-8,-8,-9,95,-17,-6
1511885857446514,-5,-8,-4,-4,-4,46,-13,-7
1511885857446514,-5,1,-3,-5,-7,-80,-1,-1
1511885857454652,-1,5,6,5,2,-122,10,2
1511885857454652,1,7,-1,-6,0,-106,22,5
1511885857469684,2,4,2,5,3,-59,16,6
1511885857469684,1,0,-1,2,2,7,6,-1
1511885857470575,0,-5,-5,-3,-3,37,-9,-6
1511885857470575,2,-3,-4,-3,-4,14,-5,-4
1511885857492634,-1,-1,-3,-2,-2,-16,0,-4
1511885857492634,3,1,1,3,3,-25,0,1
1511885857492634,-1,3,1,-1,-1,-13,-2,-2
1511885857492634,1,2,0,-2,1,-13,4,0
1511885857506778,-2,0,1,-2,1,3,-1,-1
1511885857506778,-1,1,0,1,-2,-16,3,1
1511885857514692,0,0,-1,-7,-5,-23,24,1
1511885857514692,0,-1,0,3,5,5,-7,-1
1511885857529736,1,0,3,5,2,-2,1,1
1511885857529736,-1,-1,1,4,6,-7,-1,0
1511885857530735,0,-3,-5,-3,-4,21,-11,-3
1511885857530735,-4,-5,-3,-3,-7,44,-4,-2
1511885857552919,-1,-7,-5,-4,-2,69,-12,-4
1511885857552919,-4,-6,-1,-1,0,53,-14,-7
1511885857553798,-5,-3,-2,1,-2,20,-9,-8
1511885857553798,4,-3,-3,-2,-2,7,-2,7
1511885857566943,3,1,-2,-3,-2,-33,-3,2
1511885857566943,-2,2,0,-2,-5,-35,3,2
1511885857574876,-1,0,1,0,-2,-48,0,-3
1511885857574876,-4,1,2,-1,-1,-28,6,-3
1511885857589978,0,2,3,-1,0,-28,9,-1
1511885857589978,-1,4,1,1,3,-21,4,0
1511885857590896,-1,2,-1,2,2,-18,2,3
1511885857590896,-3,1,0,1,0,-27,4,1
1511885857611954,-1,0,-1,-1,-2,-9,2,-1
1511885857611954,-2,1,-1,0,1,-1,1,0
1511885857612954,1,-1,-1,-1,-1,-5,-1,2
1511885857612954,1,-1,-2,0,0,-3,7,1
1511885857627169,-2,0,0,0,-2,14,-7,-2
1511885857627169,0,0,-2,-3,-3,6,-2,1
1511885857635016,1,1,2,2,1,1,-3,0
1511885857635016,-1,-1,-2,-2,-1,5,1,0
1511885857650163,-2,-3,-1,0,0,9,-2,-3
1511885857650163,0,-3,-3,-1,1,0,1,0
1511885857651145,0,-1,0,3,2,3,0,0
1511885857651145,-1,0,0,-1,-3,7,-7,-4
1511885857672238,-1,-2,-5,-8,-5,9,2,-2
1511885857672238,1,0,-2,-2,-1,2,-7,0
1511885857673124,-1,0,1,0,0,0,-1,0
1511885857673124,-1,-1,-1,0,-1,-7,0,-1
1511885857695301,-1,0,-1,0,0,-5,1,2
1511885857695301,1,-2,0,0,-1,9,1,0
1511885857696177,1,-2,-1,0,0,3,-5,-1
1511885857696177,0,0,-2,1,-1,0,-3,-1
1511885857710249,-1,-1,2,0,1,3,0,0
1511885857710249,-1,-1,-1,0,-2,-6,0,-1
1511885857710249,0,0,0,-3,0,-11,-1,1
1511885857710249,1,0,-1,0,-1,2,0,-1
1511885857732449,-1,0,-1,1,0,12,-2,0
1511885857732449,-1,-3,0,0,-1,12,-3,-2
1511885857733276,-1,-3,0,-1,0,9,-4,0
1511885857733276,-1,1,-1,0,-1,2,0,-2
1511885857755364,-1,-1,-2,0,-1,-3,-3,0
1511885857755364,1,-1,-1,0,-1,1,-1,-3
1511885857756336,0,0,-1,-1,-3,6,-2,-1
1511885857756336,-4,-2,1,-1,-1,2,-2,-2
1511885857769373,-1,-1,0,-1,-1,-4,-1,0
1511885857769373,-3,0,1,-1,-1,-1,0,0
1511885857770373,3,0,2,2,-1,-4,-1,0
1511885857770373,0,-3,-4,-4,0,1,-3,-3
1511885857792431,0,0,2,1,-3,-1,0,-1
1511885857792431,3,8,12,-3,-1,-1,2,0
1511885857793435,2,5,-23,-10,0,0,0,0
1511885857793435,1,-1,1,14,0,-2,-1,1
1511885857815495,-16,-15,13,1,-1,-5,0,-3
1511885857815495,-4,-17,-3,-6,1,-10,-1,-2
1511885857816497,1,0,-30,-3,0,-11,1,-2
1511885857816497,7,8,33,0,-2,-7,0,3
1511885857829534,7,16,-30,1,3,-7,2,-1
1511885857829534,1,11,49,-7,-3,-1,2,4
1511885857830538,0,-6,-37,2,4,3,-1,-1
1511885857830538,0,-5,-17,-14,-3,10,-2,-3
1511885857852782,-6,-19,-21,7,1,8,-2,-3
1511885857852782,2,9,30,7,-2,15,-5,-2
1511885857852782,11,14,-32,4,2,13,-4,0
1511885857852782,-12,-11,41,8,-12,-4,4,2
1511885857875841,-13,-35,-10,-29,1,-1,-5,-7
1511885857875841,-5,-8,-40,6,-3,-6,-2,-6
1511885857875841,-4,2,27,6,-7,2,1,-2
1511885857875841,10,26,15,-7,12,10,-1,2
1511885857890055,5,5,9,23,0,-12,4,8
1511885857890055,-2,-9,-11,-2,-1,-26,3,2
1511885857890880,-4,7,68,5,-2,-7,0,-4
1511885857890880,-4,-13,-103,-26,4,-4,2,-1
1511885857911939,4,8,11,-29,-11,17,0,0
1511885857911939,1,1,-2,23,0,9,-5,0
1511885857912938,0,-1,37,-8,-2,0,-3,1
1511885857912938,-4,-10,-47,-4,2,-2,-1,-2
1511885857936026,3,6,30,-4,-5,-7,1,-3
1511885857936026,2,-3,-20,-4,-4,1,-3,0
1511885857936026,-2,9,3,6,-1,-7,0,1
1511885857936026,0,13,24,8,-2,-13,2,0
1511885857950040,-3,-30,2,5,8,-5,1,2
1511885857950040,-9,-1,-35,-24,3,7,3,-3
1511885857951043,-7,-16,-2,2,0,-19,0,-4
1511885857951043,8,18,-2,0,8,-13,-1,2
1511885857972095,7,21,7,6,-8,-8,0,2
1511885857972095,-1,-5,26,6,0,-6,9,1
1511885857973099,0,-9,-33,-5,1,-2,0,3
1511885857973099,3,3,27,6,4,-5,-1,1
1511885857995162,2,5,4,15,-1,3,0,-1
1511885857995162,2,0,-5,-7,1,-4,-1,-2
1511885857996185,-14,-12,-4,-9,-1,-12,1,-3
1511885857996185,1,3,25,4,-8,-6,-4,-4
1511885858010234,1,8,-6,-7,6,9,5,2
1511885858010234,4,8,21,9,5,7,0,1
1511885858010234,1,-11,-14,-8,-3,1,3,-1
1511885858010234,-9,-30,-14,7,-5,-4,-3,-2
1511885858032260,-4,15,-3,-3,-3,-7,-3,-5
1511885858032260,-3,-8,-4,-6,-1,-2,-6,-3
1511885858033259,6,9,13,1,0,15,-4,0
1511885858033259,4,14,11,-3,-3,17,-3,2
1511885858055362,-2,-10,-7,2,1,8,-5,-4
1511885858055362,-6,-1,-14,-7,-3,-1,-1,-2
1511885858056319,5,4,1,5,0,7,-2,-1
1511885858056319,-4,-10,-8,-1,-5,2,-5,-5
1511885858069357,2,2,6,3,1,0,-1,0
1511885858069357,1,-1,-3,0,10,0,0,2
1511885858070356,-6,-9,-2,-6,-11,-2,-3,0
1511885858070356,-2,-7,-9,-2,3,6,4,1
1511885858092416,1,9,18,3,-1,-10,0,-1
1511885858092416,3,-1,-14,1,3,3,-3,0
1511885858093419,1,4,-1,3,3,-3,1,-1
1511885858093419,3,13,16,5,-2,1,0,-1
1511885858115476,-9,-29,-16,-5,-1,-2,-1,-2
1511885858115476,-2,-2,3,1,-4,-3,0,-1
1511885858116479,0,2,-1,-4,1,-3,0,-1
1511885858116479,-1,-3,3,1,-2,-5,-1,0
1511885858129515,6,14,4,-3,-3,0,3,2
1511885858129515,5,11,-4,0,-4,-3,0,2
1511885858130517,-11,-16,-8,-6,1,-3,1,-2
1511885858130517,-5,-18,-8,-2,3,-7,-3,-3
1511885858152619,3,6,-6,-2,-4,-8,-3,-1
1511885858152619,1,1,4,7,-2,-1,1,0
1511885858153579,3,4,8,-3,-3,-2,2,1
1511885858153579,1,-3,-3,6,2,1,1,0
1511885858175644,0,3,4,-2,4,-24,-4,-2
1511885858175644,-1,-1,-9,-4,-19,22,2,0
1511885858176640,3,4,10,5,5,2,0,0
1511885858176640,-1,0,10,-14,-2,-3,-3,-1
1511885858189716,-3,-9,-24,-11,0,0,-2,-1
1511885858189716,-2,1,11,16,5,-11,-1,0
1511885858190680,-2,-2,-20,-6,0,1,0,0
1511885858190680,-5,-4,2,-8,-4,-1,0,-2
1511885858212766,1,9,5,8,2,1,2,0
1511885858212766,1,0,5,-3,0,-1,-2,0
1511885858212766,1,0,-4,6,0,8,-1,-1
1511885858212766,-2,-3,-6,-5,4,-6,-1,-2
1511885858235856,-1,3,0,2,-5,5,0,-1
1511885858235856,-1,-4,-1,2,-2,-5,-1,0
1511885858236800,0,-3,11,-5,7,-1,-1,-2
1511885858236800,-1,-3,-12,-35,-3,4,0,0
1511885858249837,0,2,5,45,6,7,0,-3
1511885858249837,-2,-3,-1,-4,-1,-24,-2,-1
1511885858250836,0,2,3,1,-1,9,-2,-2
1511885858250836,2,0,-3,5,4,10,8,2
1511885858272923,-1,-4,-13,-65,-8,5,-2,0
1511885858272923,1,1,3,39,8,0,-1,-2
1511885858272923,0,1,6,-4,-4,-15,-4,0
1511885858272923,0,-2,1,5,3,3,2,-1
1511885858295978,-1,-2,0,-3,12,-2,-1,0
1511885858295978,-1,0,-6,-15,-24,-7,-3,-2
1511885858295978,-2,0,-2,-7,-1,1,4,1
1511885858295978,-3,-1,3,19,8,0,5,-4
1511885858309011,1,1,-4,-2,1,12,-9,4
1511885858309011,0,-3,-9,-20,9,2,-2,-2
1511885858317032,1,0,7,6,10,-3,2,-1
1511885858317032,1,2,3,3,-19,-5,5,2
1511885858332076,0,2,-2,8,4,-8,-2,-2
1511885858332076,-3,-3,-3,-6,3,4,1,-1
1511885858333074,-3,-1,-3,-11,-2,7,-1,-2
1511885858333074,-1,-3,-5,-16,-6,-10,-6,-1
1511885858355140,1,5,12,44,-7,-3,-2,1
1511885858355140,2,-2,-2,-8,-1,2,12,0
1511885858356174,-1,-2,-5,-14,-18,4,-7,-3
1511885858356174,-1,-1,0,9,9,7,0,2
1511885858369178,-2,-4,-4,-29,6,9,0,-1
1511885858369178,-1,0,-3,-8,-16,0,1,-1
1511885858377199,-1,0,1,10,-8,-17,0,1
1511885858377199,-3,0,-3,-8,-9,15,-5,0
1511885858392239,-2,-1,-2,6,8,-1,10,-2
1511885858392239,0,0,-2,-5,19,2,-3,6
1511885858393241,-1,-3,-2,-4,-15,-10,-13,-2
1511885858393241,2,2,5,15,6,-13,-44,-3
1511885858416328,-3,-2,-2,0,-7,22,19,-3
1511885858416328,-3,0,-2,-2,-1,-10,11,-4
1511885858417302,2,-1,-4,-1,14,16,28,7
1511885858417302,-1,0,10,14,-7,-13,-16,-2
1511885858438397,1,1,-2,5,2,-4,-10,-1
1511885858438397,-1,-2,-2,-3,-6,8,-5,-2
1511885858438397,1,0,2,13,22,6,1,1
1511885858438397,1,1,-4,-15,2,-3,15,1
1511885858452395,-1,-7,-12,-33,-32,-8,-8,-3
1511885858452395,2,1,12,36,74,29,11,2
1511885858453428,0,-1,-2,-5,2,-6,-15,-1
1511885858453428,-2,-1,-1,3,5,-7,4,-2
1511885858475460,-3,-5,-6,-15,-6,1,0,0
1511885858475460,0,1,1,-7,-35,-8,-10,-1
1511885858476460,0,-3,0,2,-2,6,-21,1
1511885858476460,-2,-1,-1,2,11,-13,0,-4
1511885858489493,-2,2,2,1,-13,-3,-4,-1
1511885858489493,-3,-3,-4,-8,-10,12,9,0
1511885858497511,0,0,3,7,5,-5,-2,2
1511885858497511,-1,-2,-1,-8,-10,8,9,3
1511885858512668,2,2,5,24,-11,-6,11,-2
1511885858512668,-3,-1,-2,-7,-27,-23,-18,-2
1511885858513668,0,-2,1,5,9,4,7,-2
1511885858513668,1,-2,-3,-6,-21,-2,-5,-2
1511885858535639,-6,-1,0,3,20,-5,-5,2
1511885858535639,-3,-4,-2,-1,11,13,1,-2
1511885858536725,-2,-4,-4,8,-10,-9,8,-2
1511885858536725,1,0,-2,-13,-13,-11,9,0
1511885858549661,2,2,3,22,15,19,-5,2
1511885858549661,-2,-2,-4,-10,-15,-12,-12,-2
1511885858557730,-4,-3,-8,-30,-45,-5,15,-4
1511885858557730,-1,1,5,25,45,34,-13,1
1511885858572844,0,-4,-4,-13,-3,-4,-2,-1
1511885858572844,1,2,3,13,27,-10,-2,0
1511885858573717,0,-1,0,-7,-16,-3,-10,-1
1511885858573717,-1,1,0,-8,-10,3,7,-1
1511885858595891,-1,-2,-3,-14,-2,-7,-3,-2
1511885858595891,0,-2,-1,-3,-26,-8,5,-1
1511885858596857,-1,-1,1,6,39,19,-1,0
1511885858596857,-1,0,0,5,8,-9,6,0
1511885858608807,1,0,0,2,-11,-16,-6,1
1511885858608807,0,-4,-6,-10,-7,17,15,4
1511885858617837,-1,2,2,-7,4,-4,-18,-6
1511885858617837,2,2,11,33,11,26,2,4
1511885858632004,2,-2,-3,2,-13,-7,7,-1
1511885858632004,1,1,0,-5,26,5,7,-1
1511885858633011,-1,-3,-3,7,-40,-37,-34,1
1511885858633011,-3,-4,-8,-20,10,12,1,-4
1511885858655070,-2,-1,2,9,14,-12,8,-3
1511885858655070,-3,-1,-4,-4,5,5,-1,-2
1511885858656068,-1,-3,-2,-17,-62,-3,3,0
1511885858656068,-1,-2,-1,8,71,-7,-6,-3
1511885858678130,2,1,2,1,-1,13,2,0
1511885858678130,0,-1,-6,-7,-22,-8,-12,-3
1511885858679133,-1,0,2,15,-2,-4,12,-3
1511885858679133,-1,-3,-7,-9,-20,1,0,0
1511885858692211,0,-3,-2,-12,-7,5,6,-1
1511885858692211,-2,-1,0,-4,1,-10,-4,1
1511885858693173,0,2,6,24,51,-7,-9,-2
1511885858693173,0,2,-3,-14,-10,15,6,1
1511885858715258,0,1,8,18,-57,-16,-4,4
1511885858715258,-1,-3,-8,-7,5,-6,-8,-2
1511885858716234,-2,-2,2,4,-24,-7,18,1
1511885858716234,-1,-1,0,7,6,-20,-1,-2
1511885858738290,0,-2,-3,-8,1,27,18,2
1511885858738290,3,0,-1,-4,-12,-4,-5,-1
1511885858739294,-2,0,-2,10,24,6,5,-1
1511885858739294,-1,-3,-4,-17,-39,-1,9,-1
1511885858752327,0,1,6,10,54,21,9,-1
1511885858752327,-1,-2,-3,-7,-64,-12,-1,-1
1511885858753327,1,0,-4,-7,31,3,-2,0
1511885858753327,-1,-2,-4,-13,-74,-22,-14,-3
1511885858775386,-4,-2,-5,-17,25,-15,-15,-4
1511885858775386,-3,-1,2,-2,1,-4,-1,-1
1511885858776389,2,1,4,18,-14,11,-4,-1
1511885858776389,1,1,0,9,-1,-10,-1,1
1511885858798448,2,1,-1,-3,-3,-12,-7,-1
1511885858798448,-1,-1,0,0,25,4,10,-1
1511885858798448,1,1,-2,-9,-2,-1,-14,1
1511885858798448,2,0,1,5,-49,-8,9,-1
1511885858812607,0,-1,-4,-4,20,-9,-32,0
1511885858812607,-2,-2,-1,1,39,1,-10,-1
1511885858813496,3,3,2,-7,-29,-5,9,1
1511885858813496,-3,-2,0,4,-21,17,-1,-1
1511885858834548,1,0,-2,-7,0,-12,-23,0
1511885858834548,-1,2,2,10,0,9,45,-1
1511885858842849,0,-3,-6,-12,37,-5,-5,0
1511885858842849,1,2,4,8,-45,-15,1,1
1511885858857805,0,0,0,5,78,25,4,1
1511885858857805,0,-3,0,5,-4,9,-8,0
1511885858858769,-1,0,-1,-5,-3,12,5,-1
1511885858858769,-2,-1,-1,0,37,-6,-1,-1
1511885858872833,-2,0,1,-1,-10,-18,4,1
1511885858872833,0,2,4,4,21,0,-15,1
1511885858872833,1,2,-2,-1,-2,11,8,0
1511885858872833,-3,-1,-2,-5,13,-2,-12,-1
1511885858895982,-2,-3,-3,0,-26,-5,13,0
1511885858895982,-1,-2,0,-1,1,5,-8,-2
1511885858895982,0,-1,-1,-2,10,9,-1,-1
1511885858895982,2,4,3,1,-39,1,7,2
1511885858917925,-5,-5,-5,-28,-12,1,19,-4
1511885858917925,1,2,8,49,14,19,-31,1
1511885858918925,-2,-6,-4,0,-3,6,3,0
1511885858918925,1,0,0,2,20,0,-2,-1
1511885858931959,0,-1,-5,-11,-17,-11,2,-2
1511885858931959,1,0,-4,-9,42,2,-5,-1
1511885858932962,-4,-2,-2,-15,-33,-17,2,-3
1511885858932962,-2,-6,-3,-1,28,-14,-4,-3
1511885858956047,-1,-2,3,18,-34,8,-2,2
1511885858956047,1,1,-2,-7,10,-5,6,4
1511885858956047,1,3,6,11,13,0,-4,-1
1511885858956047,-4,-5,-10,-37,12,4,2,-3
1511885858977104,-2,-4,-3,11,-16,-28,-8,-2
1511885858977104,-3,1,6,-1,-33,1,2,-2
1511885858985139,-2,-4,-2,-17,6,4,2,1
1511885858985139,0,1,7,17,-13,-7,-6,2
1511885858992216,1,2,-2,5,-5,-4,-5,-2
1511885858992216,1,0,1,-10,-42,2,3,0
1511885858993218,-1,0,-5,-25,14,-10,2,-1
1511885858993218,3,3,6,34,36,19,1,0
1511885859015278,-1,0,0,3,-10,7,0,1
1511885859015278,-9,-7,-7,-13,-11,-13,-5,-3
1511885859016281,0,9,-3,-12,-8,19,5,-1
1511885859016281,-3,-25,-10,-17,6,-12,0,-1
1511885859038340,-3,-1,1,6,29,19,0,-4
1511885859038340,1,3,-8,2,-51,-24,0,-1
1511885859039340,-1,-2,0,7,7,-1,3,1
1511885859039340,4,8,2,3,0,-2,-11,-1
1511885859052417,2,2,16,0,1,-2,-10,1
1511885859052417,-1,3,-6,-29,14,3,1,0
1511885859053377,2,-3,-1,48,-1,-9,-2,-1
1511885859053377,-1,3,-6,-8,6,5,9,0
1511885859075484,-4,-1,5,1,-12,-4,6,-1
1511885859075484,-1,2,2,-24,-2,-4,-30,-1
1511885859076438,2,0,-1,8,8,5,0,2
1511885859076438,-3,-4,-7,-3,13,13,3,-1
1511885859098496,1,1,-5,-12,-12,-11,-8,-2
1511885859098496,1,-1,8,18,44,11,10,-1
1511885859098496,-2,-4,1,-16,-51,-6,0,0
1511885859098496,1,9,6,14,0,-1,-4,1
1511885859112722,0,-4,-18,-22,27,7,5,0
1511885859112722,-2,-3,-1,7,-22,5,8,0
1511885859113678,-1,-5,3,6,56,-2,-5,-1
1511885859113678,-2,5,15,21,-22,-4,2,0
1511885859135598,1,-2,-11,-2,0,11,0,0
1511885859135598,-1,-2,-4,-5,-12,-22,2,-2
1511885859136601,-3,-1,2,-3,-1,4,-6,-3
1511885859136601,0,-1,-3,-17,-1,11,3,0
1511885859157774,-1,1,12,12,0,1,-6,-3
1511885859157774,1,-1,-3,-4,-1,-2,8,3
1511885859158740,0,0,1,5,-15,-6,0,-1
1511885859158740,-1,-1,2,4,72,-27,-8,-1
1511885859172806,2,-3,-4,5,-19,-4,1,-2
1511885859172806,0,1,5,-2,22,2,-3,-2
1511885859172806,-2,-2,-8,-13,-32,-4,-2,1
1511885859172806,0,-5,-22,-8,-2,8,3,1
1511885859195836,1,2,12,7,9,-8,-11,0
1511885859195836,-1,-1,-1,2,-22,3,12,-1
1511885859195836,0,2,2,4,-8,0,-1,0
1511885859195836,-1,3,10,2,1,12,7,0
1511885859217895,2,-3,-18,-18,34,-7,0,2
1511885859217895,-1,0,7,16,19,-1,6,-1
1511885859218919,0,-4,-5,-8,22,13,-13,-4
1511885859218919,0,2,7,-11,-18,-23,-2,-1
1511885859231932,0,3,2,5,-5,2,2,0
1511885859231932,0,0,-16,-1,28,-18,-3,0
1511885859232931,-1,-1,4,4,4,-2,5,0
1511885859232931,0,-5,-9,-19,-2,-6,-6,1
1511885859256126,-1,1,13,27,1,-5,-4,0
1511885859256126,0,-1,0,0,-21,4,-7,-3
1511885859256996,0,2,-2,-4,18,-7,0,-1
1511885859256996,-1,-1,-1,0,3,-1,-1,-4
1511885859278054,-1,-3,-3,-8,-27,1,8,0
1511885859278054,2,-1,9,18,53,-13,-11,-1
1511885859279058,1,0,1,17,25,6,4,0
1511885859279058,-1,-1,-3,-13,-24,11,3,3
1511885859292113,-2,1,-4,-19,-34,5,13,-2
1511885859292113,-1,-1,1,27,-4,5,-17,1
1511885859300113,-2,-2,0,-14,-15,-10,-1,-2
1511885859300113,0,1,0,9,29,-12,-3,-2
1511885859316262,-1,2,1,2,-60,0,4,0
1511885859316262,0,-2,-2,-15,7,8,4,0
1511885859317265,-2,-1,0,6,25,-4,-2,0
1511885859317265,-2,-2,13,-8,-51,-7,-2,0
1511885859338211,0,-1,-21,0,105,8,-7,-1
1511885859338211,1,0,5,3,-35,2,5,0
1511885859339218,0,-2,-3,-2,-14,5,-1,1
1511885859339218,-2,-3,-1,-1,15,-5,-2,-1
1511885859360451,-3,-4,4,-1,-23,9,0,-2
1511885859360451,-2,-3,-4,-9,-5,-7,-3,-1
1511885859361273,2,5,-2,-3,32,-2,0,-1
1511885859361273,0,-1,-2,-3,-14,0,1,0
1511885859375407,-2,0,3,1,-34,-4,-3,-1
1511885859375407,0,-4,-9,-13,-10,1,-1,-2
1511885859376315,0,0,7,22,7,1,-3,-2
1511885859376315,2,1,-8,-6,-7,-2,0,-2
1511885859398376,1,0,3,-4,-12,-8,-4,1
1511885859398376,-3,1,3,12,8,1,2,-1
1511885859398376,-3,-3,-8,-17,4,-5,0,-2
1511885859398376,-3,-1,-1,5,-53,10,-1,0
1511885859411509,-1,-2,0,-1,23,0,-2,0
1511885859411509,-1,-1,-3,-33,-22,1,3,1
1511885859419568,0,0,8,19,-29,-2,-1,0
1511885859419568,0,0,-3,5,24,0,-1,-1
1511885859435764,0,1,1,-6,-4,-6,-2,-2
1511885859435764,-2,-1,-2,-1,10,1,3,-2
1511885859436739,-1,-3,-4,-5,12,0,-9,-1
1511885859436739,-1,0,1,-3,-37,12,8,2
1511885859457971,0,2,4,7,37,16,2,2
1511885859457971,1,2,-1,5,-55,-9,-2,1
1511885859458784,0,0,-4,-14,-16,-6,3,-1
1511885859458784,-3,-1,9,25,44,19,2,0
1511885859471933,-1,-3,-6,-8,-2,-4,-5,-3
1511885859471933,0,2,1,-8,-22,-3,1,0
1511885859479946,1,-1,1,12,-14,1,2,2
1511885859479946,0,-1,-4,-6,-6,-10,-3,-1
1511885859496075,0,-1,-1,-1,-7,-8,1,-2
1511885859496075,-1,-3,-3,-6,20,3,-2,-1
1511885859496912,0,0,-2,-8,-8,-4,1,-1
1511885859496912,0,-2,-2,1,14,-2,-3,-2
