timestamp,emg1,emg2,emg3,emg4,emg5,emg6,emg7,emg8
1511883637695973,1,2,3,4,5,2,-1,-8
1511883637695973,1,-1,1,0,7,3,4,0
1511883637696475,-6,1,-2,1,6,-3,10,2
1511883637696475,-6,-17,-18,-14,4,-3,0,5
1511883637697786,4,14,14,13,7,-6,-1,4
1511883637697786,5,-5,-2,-2,-9,-4,-2,-2
1511883637697786,1,-9,-5,-2,-13,-3,-4,-4
1511883637697786,-4,-2,3,2,-8,2,1,-2
1511883637708800,-4,-5,-12,-8,-9,5,-1,-6
1511883637708800,0,9,-6,-5,-3,3,2,-2
1511883637718826,5,7,19,19,8,6,3,-2
1511883637718826,-6,-1,-11,-13,-9,1,1,-7
1511883637724842,-3,0,11,4,-3,0,-5,2
1511883637724842,-6,-9,4,-2,1,2,-1,-7
1511883637739882,-4,3,-8,-12,7,-1,-1,0
1511883637739882,5,2,13,4,8,-4,-3,3
1511883637748935,1,0,-14,-9,5,-6,3,5
1511883637748935,1,-1,-11,1,3,-10,-6,2
1511883637753946,2,1,10,14,5,-4,-8,-1
1511883637753946,2,1,2,-1,-6,-4,-8,-7
1511883637768960,3,2,-4,-2,-9,-1,-6,-1
1511883637768960,1,-6,4,5,-3,6,-2,3
1511883637777018,-7,-10,-11,0,3,6,-4,1
1511883637777018,2,2,5,3,0,9,1,13
1511883637817149,-5,1,1,1,2,-2,6,1
1511883637817149,0,2,6,4,2,1,2,1
1511883637818152,-6,-4,-1,-3,0,0,-1,-9
1511883637818152,2,-1,2,-9,1,-1,-4,-8
1511883637818152,1,-4,1,-5,-3,-1,-2,0
1511883637818152,3,14,3,-1,-2,-2,3,1
1511883637822162,-2,3,-2,-4,-7,-6,-1,2
1511883637822162,-2,-4,-12,-2,-9,-5,-1,-2
1511883637828179,-4,3,-3,4,-11,-6,-1,1
1511883637828179,-1,-8,-4,-2,-7,-2,1,9
1511883637836231,1,-1,1,6,1,-1,4,4
1511883637836231,3,-3,2,-7,1,3,9,-5
1511883637845223,1,-11,1,-7,6,3,0,-5
1511883637845223,-7,-2,5,4,7,0,-6,-7
1511883637858297,-1,-3,-8,-7,-1,0,-7,-1
1511883637858297,-2,0,-1,2,-1,-4,3,3
1511883637867292,-1,2,-4,-4,-7,-6,0,-1
1511883637867292,7,3,0,-3,-3,1,-2,8
1511883637873336,5,1,2,-2,2,1,-2,5
1511883637873336,-3,-5,1,0,6,3,1,-1
1511883637888845,4,16,5,-2,-1,6,-1,-7
1511883637888845,-1,-13,-1,1,0,2,-2,-14
1511883637896444,2,-4,-4,1,-1,1,2,-7
1511883637896444,-1,2,-1,16,12,-2,6,6
1511883637904896,3,-4,-4,8,9,-6,9,1
1511883637904896,-2,-6,-9,-1,1,-3,9,2
1511883637919055,2,3,7,-2,0,-2,6,1
1511883637919055,-11,-3,5,1,-4,0,-6,5
1511883637926065,-2,-6,3,0,-2,4,-5,10
1511883637926065,-2,0,8,-6,-9,-2,-5,-1
1511883637934081,13,4,3,0,-7,-4,0,-1
1511883637934081,28,4,-5,-8,-8,-4,-3,0
1511883637949014,25,1,-12,-7,8,-5,-5,-4
1511883637949014,22,-3,-8,-4,6,-2,-1,-8
1511883637956157,6,2,-4,3,-2,4,-3,-7
1511883637956157,-4,6,4,6,-7,2,-4,-5
1511883637965052,-3,-1,6,0,-11,8,0,3
1511883637965052,-6,6,-1,-7,2,2,-4,2
1511883637979093,-6,-1,5,-4,8,0,-4,-2
1511883637979093,-7,-2,3,-4,6,5,-1,-7
1511883637986113,4,-3,-1,3,3,7,9,-3
1511883637986113,2,3,-1,3,-1,0,4,6
1511883637993629,1,0,-8,0,-1,-5,-2,1
1511883637993629,-6,-10,-4,4,-6,-9,-8,-1
1511883638008860,-17,1,3,5,1,-4,-2,0
1511883638008860,-15,2,7,3,-13,0,-3,-1
1511883638015997,-13,-3,-5,-6,-11,1,0,5
1511883638015997,-9,4,2,0,9,1,2,3
1511883638024889,-9,1,-3,-4,8,-4,1,3
1511883638024889,-6,-5,-7,-2,7,-4,2,4
1511883638038958,-2,2,4,2,1,0,0,1
1511883638038958,11,-5,7,-1,-2,-2,-1,-4
1511883638047981,-1,-10,1,-1,-5,0,-11,-7
1511883638047981,-1,2,-4,1,-5,0,1,-6
1511883638053985,-6,2,-3,5,-4,3,6,-1
1511883638053985,-13,-4,-10,-8,-12,-4,0,-3
1511883638069010,2,8,-1,4,4,0,-5,4
1511883638069010,13,8,-2,-6,-5,-4,-10,5
1511883638076155,2,-6,4,2,6,-2,-9,3
1511883638076155,-3,0,5,-11,-5,-4,5,3
1511883638085248,-9,-2,-9,-10,4,0,6,-1
1511883638085248,-13,-5,4,3,-7,1,3,-7
1511883638098960,0,-3,-1,-1,-7,4,-5,-7
1511883638098960,6,5,-5,-12,-9,3,-7,-7
1511883638107984,9,-2,1,8,-4,-3,-7,-2
1511883638107984,-3,10,-2,3,11,-3,3,-5
1511883638114000,-5,-8,2,5,5,-10,3,0
1511883638114000,-7,11,2,12,15,1,5,-3
1511883638128037,-7,-10,-4,-10,-4,-5,-2,-1
1511883638128037,6,-7,-5,-6,-4,-10,-6,5
1511883638136090,-6,0,9,-5,3,-6,-1,6
1511883638136090,7,0,-3,-8,1,-2,3,9
1511883638145081,1,4,2,6,-2,5,2,2
1511883638145081,-6,0,2,3,-4,-1,-4,1
1511883638158141,3,-1,-9,2,-5,0,-3,3
1511883638158141,2,-5,-3,3,3,3,2,10
1511883638167140,1,-2,-2,-1,8,6,-1,-9
1511883638167140,-7,-13,-2,-4,1,7,7,-7
1511883638181737,-2,3,8,3,4,4,2,-5
1511883638181737,0,-11,1,-1,-11,-5,-9,-8
1511883638188753,-2,-1,-5,-1,-18,-9,-3,-4
1511883638188753,-2,9,2,2,-5,5,5,1
1511883638196273,-8,0,-6,-2,1,3,2,2
1511883638196273,-5,0,2,-1,8,0,-6,-7
1511883638205322,9,8,0,4,14,2,-8,-7
1511883638205322,2,-5,5,3,14,0,-1,-8
1511883638218357,10,2,0,-11,3,-2,5,-2
1511883638218357,-5,-3,3,2,11,4,3,1
1511883638227353,-5,-5,-2,-3,2,0,2,7
1511883638227353,-2,-3,-8,6,5,-3,0,4
1511883638241391,-1,-8,-4,3,5,1,5,0
1511883638241391,-4,-1,-9,7,-1,6,3,4
1511883638248409,0,-4,-6,-5,-3,6,2,-3
1511883638248409,-8,-9,-7,-3,-8,4,1,4
1511883638256458,-4,7,5,-6,5,3,0,1
1511883638256458,4,6,5,-1,0,-4,-2,-1
1511883638265455,-6,-3,1,-6,5,-3,-5,6
1511883638265455,4,-8,1,-10,-1,-8,-8,2
1511883638278490,6,1,2,-8,-6,-8,-19,-9
1511883638278490,3,-6,5,-4,-6,-5,-8,-9
1511883638295539,1,-5,5,4,3,2,-2,-10
1511883638295539,2,7,0,11,12,4,-1,-3
1511883638301381,0,6,-7,4,1,-2,7,-2
1511883638301381,-3,1,-13,-1,9,-2,12,8
1511883638308400,-7,0,3,-8,-3,-9,5,7
1511883638308400,-1,13,0,5,4,7,8,5
1511883638316422,-12,-4,-8,-4,-2,8,2,-6
1511883638316422,3,-2,-3,-4,-6,2,-6,-6
1511883638325472,1,12,5,1,-5,-4,-6,-2
1511883638325472,-6,-2,3,-2,-3,0,-5,-2
1511883638338509,-5,-9,-6,-3,-1,0,-1,1
1511883638338509,-2,-5,7,8,6,-2,-4,-2
1511883638347504,5,-3,1,-6,-4,-10,-1,-1
1511883638347504,6,-5,-7,-6,0,-5,3,1
1511883638361543,-1,-4,10,6,-4,-3,4,3
1511883638361543,-2,8,-3,-7,-11,-4,-4,0
1511883638368561,-1,-3,-3,5,1,10,2,5
1511883638368561,4,7,4,3,-13,-2,-6,-2
1511883638375606,0,-11,-3,1,-14,-5,-2,-7
1511883638375606,9,-8,7,6,-12,-4,-2,0
1511883638385134,2,-5,2,8,-7,-3,4,0
1511883638385134,5,7,1,-16,-1,-4,-9,1
1511883638398726,8,5,8,3,13,8,-2,6
1511883638398726,3,-9,0,-6,-6,8,5,10
1511883638407723,15,17,0,-3,-13,1,5,6
1511883638407723,11,-4,-10,0,-15,4,2,2
1511883638421787,-6,-5,-5,1,-10,-2,-3,-3
1511883638421787,-7,15,-2,3,0,-3,7,0
1511883638428779,-8,-3,-3,-7,-9,-9,1,-8
1511883638428779,-4,2,5,-2,-4,-5,5,-5
1511883638435798,8,8,0,2,-10,-2,2,2
1511883638435798,7,4,-5,-1,-24,-5,-8,4
1511883638444821,7,-5,-3,0,-11,-1,1,3
1511883638444821,7,5,3,3,-8,-1,-6,-2
1511883638466879,-7,-6,-4,-8,-13,8,1,-5
1511883638466879,-3,-1,-1,-9,-21,0,-1,-3
1511883638468884,2,10,2,-12,-19,-4,-5,-3
1511883638468884,-8,-29,-1,2,-6,-4,2,-2
1511883638481919,9,-2,-2,-1,-3,-4,1,-4
1511883638481919,-2,13,2,9,9,-1,-2,0
1511883638488964,-3,-13,-4,6,3,-1,3,1
1511883638488964,3,7,-2,0,6,0,2,8
1511883638496468,-5,7,-7,-3,2,-1,-2,0
1511883638496468,5,-20,-3,0,16,4,-4,-1
1511883638511025,-2,6,8,2,19,2,-8,-8
1511883638511025,-2,10,5,1,4,1,6,-4
1511883638518070,5,-9,-2,-2,-12,-5,7,-2
1511883638518070,6,12,1,-6,-4,-8,5,-5
1511883638527096,-4,1,-4,2,-2,-2,-3,-1
1511883638527096,3,0,-15,-2,8,-3,-10,-4
1511883638542106,-8,0,-8,-4,8,-6,-13,9
1511883638542106,-10,-13,-1,5,14,-3,-9,2
1511883638548143,6,-3,4,4,5,-4,-5,2
1511883638548143,-3,-23,-1,-4,-7,3,-7,-4
1511883638556171,9,12,9,14,4,7,9,-2
1511883638556171,7,-3,6,-6,0,6,15,-3
1511883638571211,-8,-7,0,-1,8,2,13,-6
1511883638571211,2,14,-2,-4,4,-10,8,-3
1511883638578231,3,-4,-1,-3,1,-5,-1,10
1511883638578231,0,7,-4,1,3,5,-8,3
1511883638587761,6,4,-2,-5,-1,5,-11,10
1511883638587761,-8,-10,-5,-6,12,2,-3,-13
1511883638601848,-4,14,-1,-2,10,1,3,6
1511883638601848,0,7,2,2,6,0,3,-6
1511883638608873,-10,-24,-4,0,2,-2,-6,-8
1511883638608873,-5,17,12,2,4,-7,-8,-16
1511883638615885,9,-7,5,1,8,-4,-2,1
1511883638615885,-6,-8,-10,0,9,-6,0,0
1511883638630933,-1,1,-3,1,1,-3,7,3
1511883638630933,3,-1,-2,-4,-6,-2,2,6
1511883638638925,-4,-4,1,-1,1,-1,-5,-1
1511883638638925,10,6,-1,-5,-1,-4,-4,9
1511883638647949,2,2,0,-3,8,1,3,1
1511883638647949,1,-1,-1,3,0,1,4,6
1511883638662013,3,-8,-2,-5,-3,2,-6,-3
1511883638662013,-13,16,3,-4,-8,0,-8,-9
1511883638669036,2,5,-4,-2,-7,-7,-9,-3
1511883638669036,-4,-4,2,6,5,3,-6,0
1511883638676051,3,-4,-1,-3,-1,1,-5,-8
1511883638676051,-3,-10,1,-1,2,0,-10,0
1511883638691120,9,7,4,-1,-3,2,-7,7
1511883638691120,12,2,-2,-2,-5,-3,-2,8
1511883638698840,-4,-8,-2,3,7,-1,-5,0
1511883638698840,7,0,1,-4,0,-3,-2,-15
1511883638707836,-6,3,-2,3,2,5,6,10
1511883638707836,-10,-11,-12,-4,-2,-1,1,-1
1511883638721873,-4,0,-8,2,-4,-3,4,-2
1511883638721873,-14,-13,-1,6,1,1,-3,-4
1511883638728919,0,-8,0,-4,-2,2,7,2
1511883638728919,-9,-8,9,5,-2,-3,1,3
1511883638743959,12,36,11,-1,-6,-2,1,3
1511883638743959,4,-9,0,2,5,5,7,5
1511883638750978,-5,-4,0,-1,1,1,3,-4
1511883638750978,-15,-6,-1,-2,2,-5,12,5
1511883638758999,5,-10,-7,-7,-12,-6,7,-6
1511883638758999,-8,10,-2,-5,-6,-1,5,-4
1511883638767021,0,4,-4,-4,-6,1,-3,-3
1511883638767021,4,-6,-8,-2,-4,-3,-4,-3
1511883638781058,7,5,6,6,1,-7,-3,-4
1511883638781058,9,-4,1,0,-4,-2,-2,2
1511883638790085,-6,7,6,-2,2,9,5,-8
1511883638790085,8,8,5,0,0,6,2,0
1511883638804176,-8,-9,-5,6,7,0,0,1
1511883638804176,-1,-13,-6,2,0,0,0,4
1511883638811168,-8,-4,-8,-3,-4,-11,-5,-1
1511883638811168,1,6,5,1,7,1,1,6
1511883638827240,-7,-4,3,-7,-2,-4,-4,11
1511883638827240,1,-1,2,3,-1,2,3,8
1511883638829216,5,0,4,-1,-4,1,-6,-3
1511883638829216,4,-4,3,-3,-2,2,-8,-10
1511883638841274,-5,-8,0,5,2,-3,-8,1
1511883638841274,-1,12,-7,3,2,-11,-5,5
1511883638850272,6,0,-9,-1,1,-6,11,6
1511883638850272,13,-1,-4,-7,-9,-4,6,7
1511883638864347,-1,2,4,-3,0,6,7,-9
1511883638864347,0,2,7,0,-9,6,1,-3
1511883638871386,3,-7,2,4,-7,2,1,1
1511883638871386,-4,-7,2,1,-1,6,-6,3
1511883638887954,-2,-3,-3,-7,-4,3,-3,-7
1511883638887954,2,-15,-6,-4,6,2,10,-3
1511883638889437,4,4,-7,-4,-1,-1,3,-4
1511883638889437,0,5,-2,0,-2,6,-5,-7
1511883638901562,-6,0,-4,-1,-5,7,-13,3
1511883638901562,-1,-3,1,-2,-1,0,-5,-6
1511883638910582,7,-1,4,3,-5,-5,1,-5
1511883638910582,-1,-8,-4,1,1,-11,5,2
1511883638924819,-11,-15,0,2,15,-7,5,-7
1511883638924819,8,26,11,-8,-4,-5,0,1
1511883638931691,-12,-8,-2,5,3,-3,-1,4
1511883638931691,-4,2,-4,5,-4,-6,-5,4
1511883638947864,1,-9,-4,14,-2,4,0,6
1511883638947864,3,-1,1,-2,-3,-1,-11,-7
1511883638948825,5,-2,4,-6,-4,-1,-7,-7
1511883638948825,-2,9,5,-3,-4,6,1,-3
1511883638960760,-3,6,3,-11,5,0,9,-1
1511883638960760,-3,5,-4,-5,5,-3,2,8
1511883638969761,-2,8,0,2,4,5,-2,-4
1511883638969761,-1,-10,-16,2,-4,-5,-3,-7
1511883638984358,-3,22,-6,-3,-4,-7,-4,-6
1511883638984358,4,-6,-10,-4,-11,-7,-4,-8
1511883638991374,6,-6,-4,-3,2,3,-6,-5
1511883638991374,1,-2,2,5,7,5,-1,1
1511883639007437,4,-1,2,-2,-1,6,0,1
1511883639007437,3,-1,16,28,21,6,1,9
1511883639009622,-2,13,-5,-5,-2,-2,-2,3
1511883639009622,-6,-1,-3,-2,-8,0,4,-1
1511883639021508,-3,-4,6,-5,-13,5,2,-2
1511883639021508,-5,-15,-7,-8,-5,2,1,-13
1511883639030507,5,16,7,2,8,6,10,-3
1511883639030507,6,4,-3,-8,11,2,-3,3
1511883639044534,7,2,2,-7,-4,-10,-9,4
1511883639044534,-9,-2,7,-5,-10,2,1,5
1511883639050661,-7,-7,0,3,-1,0,0,3
1511883639050661,-6,-19,-6,-4,-14,-12,0,-2
1511883639067604,-6,9,-3,8,-2,-5,-3,0
1511883639067604,3,1,-1,-13,-14,-4,-3,-7
1511883639068601,4,-1,1,2,10,-4,-4,6
1511883639068601,-1,-4,4,-3,-16,-4,-1,3
1511883639081672,-9,-9,-2,7,4,1,1,5
1511883639081672,-7,6,-2,5,3,-2,-1,3
1511883639090207,-3,-11,-14,-10,-11,-6,-4,5
1511883639090207,-9,3,-1,2,8,9,0,-3
1511883639104492,2,-6,-6,-2,2,1,8,-14
1511883639104492,2,5,-4,-14,0,4,18,-10
1511883639110506,-2,6,7,5,4,6,5,-6
1511883639110506,1,7,1,-4,4,2,-1,6
1511883639127552,1,-3,6,0,3,4,-5,0
1511883639127552,3,-15,-1,-2,-12,-10,-11,6
1511883639128555,-1,8,9,10,7,6,-3,2
1511883639128555,-9,-3,-2,-2,-7,-6,3,-3
1511883639140614,1,15,4,-13,3,1,4,1
1511883639140614,1,-14,-16,1,0,4,-5,6
1511883639149611,0,-34,-12,-3,-9,-5,-3,2
1511883639149611,-1,15,6,11,-3,-9,-3,4
1511883639164651,1,-17,-5,-6,-2,-15,-6,4
1511883639164651,2,5,13,7,5,-5,-2,-3
1511883639170694,-4,-6,-8,-15,-19,-6,1,-8
1511883639170694,-4,-1,2,3,2,12,8,-10
1511883639187743,10,12,4,7,3,7,3,-2
1511883639187743,2,-4,0,-5,11,7,2,5
1511883639189247,-6,-4,-2,13,19,5,-4,1
1511883639189247,10,3,0,-4,0,-7,-1,2
1511883639200809,-2,13,2,4,-6,-3,0,2
1511883639200809,-3,-8,-15,-2,-7,0,0,1
1511883639209833,-1,19,-5,4,1,2,6,-4
1511883639209833,5,3,6,2,1,5,3,-6
1511883639223902,5,1,-3,-8,-8,0,-4,-3
1511883639223902,1,4,12,13,10,7,9,-4
1511883639230919,1,-7,2,-2,1,-2,-3,2
1511883639230919,0,-8,8,-1,-1,-5,-11,-4
1511883639262004,4,-8,1,1,-2,6,-11,-4
1511883639262004,-3,-1,-9,-4,4,4,-7,5
1511883639268989,-9,1,4,5,13,6,2,2
1511883639268989,-12,-6,-4,4,2,6,2,6
1511883639292621,6,-2,-3,-1,-4,-5,-5,11
1511883639292621,-1,0,-7,0,-10,-7,-2,0
1511883639305687,3,9,-3,-7,-9,-10,1,-13
1511883639305687,8,5,-1,-7,7,-4,-3,-5
1511883639314709,-1,-8,-1,-2,7,-4,-3,-11
1511883639314709,-16,-7,-5,-3,-2,-4,-6,-7
1511883639316715,3,-5,9,3,-3,0,1,-1
1511883639316715,-8,-7,0,-5,-11,5,-3,-2
1511883639336761,6,9,7,9,-1,5,-2,-5
1511883639336761,8,-15,3,6,-3,-3,-4,0
1511883639343780,-5,2,4,4,-1,1,-3,-3
1511883639343780,-3,-6,-12,-9,6,1,5,-7
1511883639358822,-8,-7,-5,-7,-1,-7,9,-1
1511883639358822,-7,3,2,-5,6,-6,5,3
1511883639367818,-6,-3,1,-6,-6,-6,-3,0
1511883639367818,0,5,4,4,2,-1,-5,-6
1511883639390907,-9,-12,-18,7,1,4,-5,0
1511883639390907,9,15,0,2,-3,4,-2,5
1511883639393413,6,-3,-10,-7,-2,1,-4,7
1511883639393413,-1,3,-7,4,-1,3,5,11
1511883639410971,-4,-5,8,-1,-7,5,11,0
1511883639410971,-9,-9,-6,-4,-13,1,1,-4
1511883639420005,2,2,7,0,-11,-1,-9,-4
1511883639420005,3,-6,-3,-8,-6,0,-8,2
1511883639443047,-1,5,7,-2,7,1,4,-3
1511883639443047,-2,-11,-2,-5,8,-2,4,-7
1511883639445053,-5,-3,1,-3,-3,-4,4,1
1511883639445053,11,19,12,8,8,-8,1,-1
1511883639463127,-3,-1,-22,2,2,-4,3,5
1511883639463127,-6,0,-4,-1,4,1,5,-3
1511883639472158,-4,8,7,8,2,0,-4,-12
1511883639472158,-16,-12,-2,4,-2,0,-11,-9
1511883639495190,-3,-6,0,1,1,-5,-12,-2
1511883639495190,4,9,-2,1,-2,-5,-6,3
1511883639496694,2,-7,-3,-6,-8,1,3,17
1511883639496694,7,2,6,-5,-16,-1,6,15
1511883639517276,3,0,1,-6,-7,3,1,9
1511883639517276,15,2,-1,-1,0,-1,1,1
1511883639519281,1,-1,-3,-3,5,-6,-5,-6
1511883639519281,-4,-7,-9,2,13,2,5,-9
1511883639538332,-3,9,5,3,16,-2,-3,-10
1511883639538332,-5,12,2,3,10,-4,-3,-3
1511883639558358,-1,2,-3,-6,-4,-7,-1,-3
1511883639558358,-5,3,6,-6,-4,2,1,3
1511883639558358,-10,-2,-2,-8,-14,2,4,2
1511883639558358,-8,5,1,3,-6,9,4,7
1511883639563372,-1,-6,-1,2,2,-2,6,-3
1511883639563372,2,-6,-2,9,10,-2,-6,2
1511883639563372,3,6,-1,-2,-9,-3,-7,5
1511883639563372,6,-3,7,-2,-2,-7,-8,-2
1511883639564374,8,-7,-7,-13,-9,1,-1,-10
1511883639564374,4,-4,-6,-10,-1,-3,-3,-14
1511883639578439,1,-7,-8,-5,-1,3,-1,2
1511883639578439,-6,10,-2,-14,-8,1,2,8
1511883639578439,-3,8,5,4,9,8,4,9
1511883639578439,1,3,3,0,-7,-1,3,-1
1511883639579414,-7,1,0,12,2,1,4,-6
1511883639579414,-8,-2,-7,5,-9,-1,5,-8
1511883639580418,-6,-3,0,8,-3,3,4,-4
1511883639580418,-3,-9,-4,-4,11,14,4,-1
1511883639584932,14,-5,9,-6,6,1,-4,-5
1511883639584932,6,0,4,-4,-1,2,-5,-11
1511883639586962,4,1,3,0,0,-7,-6,-6
1511883639586962,-12,3,1,4,-3,-8,-5,-4
1511883639591975,-11,4,-3,-1,-4,-5,-2,3
1511883639591975,-3,1,0,-3,4,5,11,7
1511883639592953,2,5,-2,-13,-9,-3,0,11
1511883639592953,-1,-5,2,-3,-4,-3,0,6
1511883639606542,0,-5,1,-1,0,-6,-3,0
1511883639606542,5,-1,-5,0,-4,-4,-1,-3
1511883639613533,2,-1,1,6,-2,4,0,-1
1511883639613533,16,2,1,-4,-4,2,-19,3
1511883639629577,5,1,3,-6,-3,3,-66,4
1511883639629577,-1,3,2,4,-2,0,-102,6
1511883639631582,-8,-6,-8,-2,4,-1,-97,-1
1511883639631582,-8,5,-6,0,3,-5,-60,-4
1511883639644617,-3,-2,-3,-7,-8,-1,-33,-1
1511883639644617,-1,-9,0,0,6,0,-5,-6
1511883639650653,-3,2,1,4,2,3,9,2
1511883639650653,5,-1,0,-1,-8,-2,15,-2
1511883639666675,-4,-3,0,5,7,3,32,-6
1511883639666675,-3,-8,0,-3,3,1,27,-7
1511883639673720,-5,-1,2,0,5,5,35,-10
1511883639673720,6,14,-2,-7,-3,-3,33,-3
1511883639690298,6,-3,-8,2,4,2,25,-4
1511883639690298,10,7,-2,9,3,1,25,-1
1511883639691803,9,-4,1,-3,-4,-4,22,-1
1511883639691803,1,-5,4,2,6,2,26,4
1511883639703926,1,-20,-3,-7,-2,-7,23,-1
1511883639703926,3,13,-2,-3,0,-6,25,10
1511883639710922,-4,-4,-7,1,3,-11,11,14
1511883639710922,-4,-10,-6,3,-1,-1,-1,9
1511883639726993,-2,-1,1,5,-6,-6,8,3
1511883639726993,3,12,2,1,-7,-9,3,-5
1511883639734009,1,2,-3,2,-10,-7,-1,-5
1511883639734009,-3,21,3,4,-6,1,2,-5
1511883639750041,0,11,-6,11,6,5,4,-8
1511883639750041,6,0,-3,-2,-2,8,-5,-3
1511883639751057,2,-11,-12,-4,-3,7,2,-1
1511883639751057,-8,-5,6,0,3,-5,3,5
1511883639763087,-11,-2,-2,-5,-2,-2,7,4
1511883639763087,-7,-6,1,-5,-4,-3,8,-9
1511883639772110,-6,-6,-1,-2,-1,4,2,-8
1511883639772110,2,-10,2,-5,-5,4,5,6
1511883639787166,-5,-2,-2,4,-3,2,8,1
1511883639787166,30,15,9,-1,4,2,7,2
1511883639793694,39,-8,13,1,2,-3,9,-7
1511883639793694,19,15,-4,0,9,-2,1,-8
1511883639810243,-3,2,-2,-3,4,-4,-1,1
1511883639810243,-22,-16,-6,6,-4,-3,2,-1
1511883639811246,-22,3,-14,1,-6,-3,6,-4
1511883639811246,-22,-3,-7,2,5,4,5,-9
1511883639823303,-17,13,3,-3,5,3,-1,2
1511883639823303,-19,-17,-3,3,4,-6,-2,11
1511883639832301,-13,8,13,-3,-2,-8,-3,12
1511883639832301,-7,-9,4,-4,-3,-11,3,1
1511883639846364,1,-7,0,-6,-6,1,8,-9
1511883639846364,-4,2,-2,-2,-1,7,3,-10
1511883639853395,-3,-4,-6,0,-3,3,-7,-2
1511883639853395,1,-6,-8,6,-1,-5,-6,-1
1511883639870423,11,-10,-13,-7,-10,-4,-1,-2
1511883639870423,5,4,-1,7,2,2,9,1
1511883639871406,-2,-1,-13,1,3,4,4,3
1511883639871406,-7,-20,-4,-5,-6,0,-1,0
1511883639883984,11,28,8,-3,8,1,7,8
1511883639883984,-1,-1,3,-12,2,-6,4,3
1511883639893004,-4,-10,-3,-1,4,5,-3,-1
1511883639893004,6,5,12,19,5,-5,-8,4
1511883639906923,0,-17,-10,-1,-13,-15,-14,1
1511883639906923,0,2,-6,-2,-7,-2,0,4
1511883639913940,-11,-12,7,-9,-2,0,6,-2
1511883639913940,2,7,-2,-14,-12,-2,11,-2
1511883639929981,7,-7,24,19,15,11,11,-2
1511883639929981,3,10,1,-3,-1,-1,-3,-2
1511883639930984,10,-1,-4,-6,-1,-5,-6,-1
1511883639930984,0,-7,-11,-7,-8,-5,-11,-14
1511883639944109,-1,11,-5,3,4,5,-6,-3
1511883639944109,-12,-23,-9,5,-9,-2,-3,3
1511883639953148,-1,6,2,-1,1,5,4,0
1511883639953148,9,12,0,-9,-9,3,4,8
1511883639967190,0,-4,4,1,5,8,4,12
1511883639967190,6,-1,-5,-3,-4,0,-7,9
1511883639974121,0,4,2,3,6,-6,-5,9
1511883639974121,-7,8,2,0,0,-3,6,1
1511883639990328,-3,13,4,5,8,-7,2,-13
1511883639990328,-3,-8,6,3,-1,-10,8,-9
1511883639991741,1,-11,-10,-8,-12,-3,9,4
1511883639991741,-3,-3,2,14,1,12,9,3
1511883640003858,-9,-3,0,-10,-3,4,1,2
1511883640003858,-8,-2,4,-6,-11,-7,-5,-7
1511883640012880,-1,0,8,2,15,2,-1,-4
1511883640012880,14,6,5,-6,12,2,-8,-2
1511883640026920,9,0,0,-4,0,-3,5,-6
1511883640026920,8,9,-2,-2,16,4,3,-4
1511883640033938,-1,14,-3,-1,-9,3,8,-9
1511883640033938,-7,-8,0,10,-3,0,0,3
1511883640050132,9,2,4,2,-20,-12,-8,6
1511883640050132,1,-4,1,2,17,9,-2,-1
1511883640052068,-2,0,2,-7,-1,-8,-5,1
1511883640052068,6,-3,4,5,9,2,2,-6
1511883640064082,-5,-11,-1,-16,-21,-2,-3,-8
1511883640064082,-8,-11,-11,8,6,14,-3,1
1511883640073043,1,10,-8,4,1,9,-10,1
1511883640073043,-1,-16,-4,5,-1,-5,-9,-1
1511883640087288,0,-9,3,-3,-8,-14,5,-2
1511883640087288,6,32,17,5,2,-5,7,-2
1511883640093875,-3,-5,7,2,13,6,7,1
1511883640093875,-2,7,-3,-4,-1,2,-2,-9
1511883640110350,-3,-2,-6,-5,-5,12,-5,-8
1511883640110350,-1,-5,-4,-10,-16,1,-7,-3
1511883640111352,-3,1,3,-1,-16,-8,1,2
1511883640111352,-1,0,0,0,8,7,-1,6
1511883640132426,7,-4,-5,0,-13,-5,-1,2
1511883640132426,-1,-10,-5,0,-9,3,-3,7
1511883640134420,-4,-22,-6,7,15,5,-13,8
1511883640134420,-4,20,7,-8,10,-3,-11,7
1511883640146473,-12,1,3,10,30,10,-11,-6
1511883640146473,3,-5,-1,-13,-35,-21,-7,-5
1511883640153464,-4,-8,-1,-1,-8,-9,12,-1
1511883640153464,4,4,-5,4,18,5,8,-4
1511883640169508,9,6,-10,-3,13,3,18,4
1511883640169508,1,7,-10,-8,11,0,49,1
1511883640175524,-5,-5,4,-1,-8,-4,66,2
1511883640175524,1,-6,-1,-9,-13,-7,56,2
1511883640183547,-4,-5,-3,7,-4,4,44,0
1511883640183547,0,-10,2,3,7,6,24,-4
1511883640192571,0,5,2,-2,-14,0,8,-4
1511883640192571,1,1,-3,-3,-7,0,8,-14
1511883640206611,-8,-9,-2,-7,-15,-4,-3,4
1511883640206611,-2,10,7,8,6,6,-8,5
1511883640213630,-3,-5,1,-1,11,2,-20,-3
1511883640213630,13,-2,2,0,-20,-10,-23,-1
1511883640229671,3,-6,5,7,13,1,-25,8
1511883640229671,14,1,-1,-8,-5,-7,-34,7
1511883640231676,-1,-10,1,0,-3,0,-32,-3
1511883640231676,4,-2,5,3,-1,-3,-18,7
1511883640243710,16,-4,-7,-5,-9,-7,-17,-2
1511883640243710,8,-7,3,0,0,-1,-11,0
1511883640252734,0,3,-5,3,7,-3,-15,-2
1511883640252734,-10,-9,-9,0,10,0,-12,3
1511883640266770,8,4,3,-4,-3,-7,-12,-4
1511883640266770,-8,0,3,10,2,6,-17,-4
1511883640273789,-3,7,-5,2,-5,3,-15,-6
1511883640273789,-13,-9,-7,-6,-9,1,-7,-13
1511883640290340,2,3,1,-3,-4,9,-3,3
1511883640290340,-6,-1,-2,0,-8,1,-12,-4
1511883640291840,2,7,0,-2,-6,1,-11,0
1511883640291840,-10,-3,3,1,-8,-2,-9,5
1511883640303426,-1,4,-2,-1,3,-6,-8,-14
1511883640303426,-16,-11,-7,-9,-8,-14,0,12
1511883640312450,14,12,-4,-4,-7,-12,-11,-1
1511883640312450,-12,0,-9,-8,-4,-3,-5,-7
1511883640326489,-14,-4,0,-3,-1,-6,-6,-4
1511883640326489,-4,-3,-4,-1,-2,2,-10,-18
1511883640340524,4,-3,1,6,5,8,-8,-11
1511883640340524,32,8,2,-6,8,7,-8,-1
1511883640349583,-17,5,0,2,7,6,-11,-19
1511883640349583,7,3,7,-2,8,-3,-3,-2
1511883640351553,7,2,0,0,-1,-9,-3,11
1511883640351553,1,-9,-6,0,-9,-7,-4,3
1511883640363587,11,-5,-3,3,-2,-3,4,1
1511883640363587,-5,6,5,4,6,5,2,-8
1511883640372609,-2,3,4,2,-2,9,9,55
1511883640372609,-4,-4,4,2,1,2,-4,41
1511883640387201,-9,7,4,-4,4,-2,4,47
1511883640387201,-7,-3,4,-7,5,0,6,47
1511883640393726,-11,0,2,0,8,-6,-5,16
1511883640393726,-1,-3,-5,-1,3,-3,-4,8
1511883640409803,11,-3,-5,2,-1,-3,-6,8
1511883640409803,13,-7,-8,1,-12,-5,-10,-26
1511883640415788,35,1,-8,-6,-11,-5,-6,-40
1511883640415788,41,-1,-4,4,-6,-4,4,-1
1511883640423837,32,-1,2,-1,-6,0,1,-9
1511883640423837,24,-11,4,-3,5,2,1,3
1511883640432834,0,2,6,-8,4,4,0,-6
1511883640432834,-17,-9,0,0,5,9,1,-5
1511883640446898,-6,8,2,1,6,-3,-1,-4
1511883640446898,-1,-9,-12,5,2,-8,-6,-14
1511883640453917,-1,7,0,7,5,-9,3,1
1511883640453917,-11,4,6,6,6,-5,-8,-11
1511883640468930,-29,-1,2,4,-2,-4,-2,-9
1511883640468930,-21,9,-6,-9,-10,-3,6,-6
1511883640475976,-53,-20,-7,-7,-8,4,4,-25
1511883640475976,-39,30,5,-5,-7,4,10,-30
1511883640484013,-33,-11,-4,-1,-4,7,5,-33
1511883640484013,-20,9,1,0,-3,1,0,-39
1511883640492508,-3,-4,-1,1,1,4,5,-46
1511883640492508,8,-14,2,-8,0,-5,2,-28
1511883640507106,10,1,2,-5,6,-2,-4,-23
1511883640507106,13,5,11,4,4,-7,1,-15
1511883640513120,5,9,-2,1,1,-9,-2,-7
1511883640513120,0,0,-1,-1,1,-4,-11,-7
1511883640529165,-3,-26,3,7,3,4,-1,-2
1511883640529165,-8,12,-2,1,10,11,2,4
1511883640536177,5,1,1,4,1,5,-2,11
1511883640536177,6,-1,-6,0,-10,-2,-3,8
1511883640552227,1,-12,-13,-7,1,-8,-1,4
1511883640552227,-4,-11,0,-7,-2,-8,-6,6
1511883640554202,12,11,12,-3,1,-7,-8,13
1511883640554202,3,-5,-11,2,-3,1,-2,3
1511883640566234,2,12,-6,-4,-6,3,4,18
1511883640566234,-10,-3,-4,2,3,1,7,2
1511883640573252,-4,26,-8,-6,2,1,10,-4
1511883640573252,4,-4,-3,1,-3,6,3,1
1511883640589323,4,4,0,3,-1,3,-2,8
1511883640589323,1,-8,-1,5,-3,3,-5,10
1511883640596339,3,-3,12,8,-1,-1,4,-1
1511883640596339,3,2,-7,-8,-1,-1,-5,9
1511883640612387,-4,8,-2,-1,2,0,-5,13
1511883640612387,1,7,-6,-4,-3,1,-7,2
1511883640614392,-11,-23,3,-1,-1,1,1,22
1511883640614392,-3,-7,-2,5,-1,-12,0,-4
1511883640626424,1,7,8,3,-1,-8,2,-16
1511883640626424,7,4,-4,0,1,0,20,25
1511883640633425,-2,-8,-3,-3,-4,-4,7,-6
1511883640633425,-7,-9,0,-11,-2,-6,0,-10
1511883640649485,0,13,9,-3,-8,3,-8,11
1511883640649485,-1,-15,-11,2,-3,0,-8,-3
1511883640656477,3,6,4,11,2,2,-8,1
1511883640656477,-2,-6,5,-1,5,1,-3,-3
1511883640672520,-5,-4,2,1,4,-2,1,5
1511883640672520,14,-10,5,0,-6,1,3,3
1511883640673549,-1,25,-4,-6,-10,2,1,-6
1511883640673549,0,14,0,2,5,9,1,6
1511883640686599,-12,8,-11,-3,1,4,-11,-4
1511883640686599,27,16,1,0,4,0,1,29
1511883640695095,-14,-11,-11,-1,2,-6,4,-3
1511883640695095,11,6,-14,-3,-4,-2,13,17
1511883640709227,-3,-4,-21,-7,-9,-2,6,-13
1511883640709227,-9,-2,-18,-1,-2,-1,3,15
1511883640716214,-1,-8,-12,-2,7,0,-6,0
1511883640716214,5,-6,4,-7,0,0,3,29
1511883640732284,-1,-10,-3,-6,-1,1,0,3
1511883640732284,3,-11,1,2,-3,0,-5,-17
1511883640734290,-27,4,-1,3,-7,-7,-8,-13
1511883640734290,-6,0,-2,5,8,-5,-7,-31
1511883640746321,-7,-13,2,-1,4,-5,6,10
1511883640746321,10,15,10,3,5,-1,2,-2
1511883640755340,1,-8,0,-4,-4,-1,-5,-1
1511883640755340,-4,1,5,3,-9,0,6,3
1511883640769357,3,-3,11,10,1,5,-6,2
1511883640769357,5,1,13,-5,-1,6,-3,-5
1511883640776402,16,11,3,-6,3,2,2,7
1511883640776402,-22,-23,8,-1,0,-1,-9,-5
1511883640792476,19,11,3,2,-5,-16,10,8
1511883640792476,-14,0,8,2,1,-7,-6,-1
1511883640793953,-9,-7,6,-4,1,6,-9,-36
1511883640793953,-19,0,1,2,2,13,4,28
1511883640805486,2,1,-6,1,-6,4,-2,-10
1511883640805486,5,-3,-10,6,0,-7,4,-7
1511883640815539,-11,-7,-11,1,-4,-8,5,4
1511883640815539,22,13,1,3,0,0,-3,-15
1511883640829577,-3,-8,1,-2,-1,-1,-8,-8
1511883640829577,-14,0,9,-1,-7,-1,-4,-7
1511883640835593,12,-10,4,-3,0,-5,10,15
1511883640835593,2,-5,-4,0,0,-5,13,-10
1511883640852637,-11,-1,2,4,4,10,10,2
1511883640852637,-1,-4,-8,-6,-2,4,2,-3
1511883640854628,2,8,3,-3,-5,10,2,17
1511883640854628,16,2,4,-8,-11,-2,-12,9
1511883640865772,-2,-9,2,-7,-2,-7,-4,-3
1511883640865772,4,-18,-8,-2,5,-2,-7,-3
1511883640874794,17,14,0,8,13,9,4,13
1511883640874794,-27,0,4,-5,2,2,2,-14
1511883640889724,-1,7,-7,-2,-4,-3,-1,-20
1511883640889724,-2,-9,1,0,-8,-4,-3,17
1511883640896232,15,-13,3,-1,-12,-4,-10,7
1511883640896232,4,-2,0,6,1,2,-5,-8
1511883640911426,5,3,5,-5,9,0,1,1
1511883640911426,5,13,4,-5,8,-9,3,-1
1511883640920448,-14,3,-4,-3,-2,-11,-8,-8
1511883640920448,-10,-4,-3,-1,-3,-7,-1,-1
1511883640926510,2,-5,-5,1,-2,5,0,-2
1511883640926510,3,1,-9,-1,-6,5,4,-6
1511883640935490,14,5,-2,5,4,4,8,4
1511883640935490,-1,-2,-1,-1,-3,-9,-3,-2
1511883640950530,6,1,4,5,8,-9,0,15
1511883640950530,-8,-3,2,-1,4,0,1,7
1511883640956633,-3,-10,-6,-7,4,7,4,7
1511883640956633,-4,-1,-9,1,1,2,3,-8
1511883640971697,18,10,-1,-6,-10,-1,2,-9
1511883640971697,-24,-22,2,5,8,10,-1,1
1511883640972587,-3,27,6,-2,-10,1,1,6
1511883640972587,10,0,3,0,-7,4,0,16
1511883640994674,-4,-14,1,-2,1,-2,-1,21
1511883640994674,-6,-1,3,-11,-7,-8,-10,-4
1511883640995158,-2,-17,-3,-2,-7,-10,-3,17
1511883640995158,11,6,0,-4,-5,-9,7,23
1511883641010452,1,1,-5,4,-9,-1,0,13
1511883641010452,-1,-1,-4,3,-5,4,0,-1
1511883641016442,1,-10,6,0,7,5,-5,-10
1511883641016442,-2,-4,-2,4,9,-1,-10,2
1511883641031607,-9,-3,6,-2,4,0,-9,2
1511883641031607,-1,13,3,4,7,-5,3,3
1511883641032488,-3,7,1,2,16,-3,1,4
1511883641032488,-7,-3,0,-9,4,-1,-7,-8
1511883641054692,-6,-2,-9,-6,2,-6,0,-10
1511883641054692,-8,-3,0,-2,-2,-2,2,-12
1511883641055549,-4,8,0,7,-8,8,3,-13
1511883641055549,8,2,10,2,-10,3,8,-2
1511883641070587,2,6,3,2,1,3,-4,-3
1511883641070587,4,10,-2,-2,2,-4,-9,3
1511883641076631,3,-12,1,2,-2,0,-10,-13
1511883641076631,8,-16,-6,4,0,7,-4,-13
1511883641092259,6,3,12,-2,-12,1,9,-4
1511883641092259,2,-9,-8,8,8,0,11,-10
1511883641092688,-7,-2,-15,-5,-1,-12,-2,-8
1511883641092688,11,9,-9,15,11,-8,-8,-6
1511883641114366,24,-4,-3,6,6,-11,-9,2
1511883641114366,27,3,9,-2,-4,-9,-1,5
1511883641115330,33,-4,-3,-15,-9,2,4,-5
1511883641115330,19,5,7,-10,-6,-5,-1,-9
1511883641130370,12,-9,5,-9,3,7,3,-10
1511883641130370,22,3,-3,-13,-6,-2,1,-9
1511883641136385,18,9,3,9,17,7,3,-3
1511883641136385,2,6,-6,-6,-9,-4,3,-3
1511883641151425,-8,4,-7,-11,-6,-1,-9,-3
1511883641151425,-21,-5,2,-1,6,14,-11,-10
1511883641152427,-2,-11,-2,-19,-15,-1,-1,-14
1511883641152427,-6,-3,2,5,-4,3,3,-9
1511883641174486,0,5,-4,7,6,6,7,-13
1511883641174486,-9,7,5,-8,-5,12,6,-13
1511883641175489,-13,-16,-16,-6,-5,-7,-5,-9
1511883641175489,-20,11,14,3,7,6,2,-2
1511883641190534,-20,4,-3,-3,-12,-12,-5,7
1511883641190534,-20,5,-5,6,-11,-4,-2,4
1511883641196048,-16,0,8,3,4,9,-2,6
1511883641196048,-13,-12,-8,-6,-3,-3,-2,-1
1511883641233726,-25,-11,5,2,7,9,4,-6
1511883641233726,-7,-5,1,-11,-9,-5,2,4
1511883641242749,-12,4,-4,7,-9,-7,-4,10
1511883641242749,-10,-8,-8,6,1,-7,-8,5
1511883641257762,-1,-7,6,5,-11,-4,3,5
1511883641257762,2,10,0,-2,-2,0,0,-5
1511883641258765,-11,-4,9,-1,3,-2,3,-2
1511883641258765,-4,4,-13,-6,10,8,1,-1
1511883641272830,1,18,-7,-14,-8,-7,-5,-2
1511883641272830,-12,-10,-4,3,3,3,-3,2
1511883641273805,-12,-7,0,7,0,-10,-4,4
1511883641273805,-1,-3,0,-16,-11,-3,-7,-2
1511883641286345,-9,0,11,23,25,17,-6,-2
1511883641286345,1,-5,-11,-4,5,-1,-8,-4
1511883641295369,-3,8,-1,-4,11,0,-4,-2
1511883641295369,-1,-5,-3,2,-5,-5,0,6
1511883641310107,4,2,-9,-13,-16,0,5,6
1511883641310107,6,10,4,16,-1,1,4,0
1511883641311111,-7,-18,5,0,-6,5,3,-11
1511883641311111,-2,7,12,3,0,-3,7,-7
1511883641326150,-10,-8,-6,-8,1,-5,-1,-4
1511883641326150,-5,-2,5,-4,7,-8,5,-3
1511883641328156,-1,-3,-10,-13,-15,-14,-1,7
1511883641328156,-11,-10,-12,3,2,-2,-1,10
1511883641346203,1,25,-5,11,8,2,-1,-3
1511883641346203,10,-11,-8,-3,3,-3,-6,6
1511883641355226,-20,-1,5,8,12,1,-12,-4
1511883641355226,0,-6,-1,1,0,1,5,2
1511883641377285,1,-7,1,-3,9,0,-1,-1
1511883641377285,-2,-2,-6,-5,1,0,0,-2
1511883641379291,6,6,-5,-4,-3,9,10,-4
1511883641379291,-1,9,-7,5,5,3,-5,-8
1511883641400348,-6,-7,-6,6,-10,-7,0,-4
1511883641400348,-8,-1,-1,7,-19,-8,5,-2
1511883641401353,6,7,8,6,-5,-3,-1,11
1511883641401353,-1,-1,2,-3,2,0,3,6
1511883641421433,2,-10,4,-8,-1,7,8,5
1511883641421433,1,-9,-5,-5,-5,5,-7,0
1511883641430457,-3,4,-2,4,-9,2,-8,-3
1511883641430457,-11,-8,0,-2,-10,1,-2,-12
1511883641453492,1,8,4,-6,-10,0,-1,0
1511883641453492,8,-3,-1,-2,6,0,-1,-2
1511883641455498,27,-3,-2,0,17,4,2,1
1511883641455498,39,-4,2,-3,-3,-2,-6,1
1511883641473572,28,-12,1,4,-2,-12,-14,1
1511883641473572,15,5,-3,-6,-11,-8,-12,-9
1511883641482570,24,-5,-7,-12,-3,0,-9,1
1511883641482570,-34,-3,5,-4,6,7,-6,-24
1511883641504632,-4,-5,-16,0,5,8,7,21
1511883641504632,-15,0,-5,5,0,3,6,5
1511883641519694,-15,-2,-4,0,-2,-2,12,-1
1511883641519694,-7,-6,-3,1,7,-2,8,5
1511883641525687,-9,10,2,1,4,-7,-2,-6
1511883641525687,-10,23,19,9,2,5,-3,-5
1511883641534712,-26,-1,3,6,-4,5,0,3
1511883641534712,-30,2,8,0,-5,1,-1,10
1511883641541730,-30,-10,-3,-1,-7,-5,-12,-3
1511883641541730,-28,17,7,-8,2,-7,-2,1
1511883641542733,-31,-26,-7,-4,5,-1,-5,-5
1511883641542733,0,13,0,3,8,2,-8,5
1511883641549778,-3,-5,2,4,0,10,-11,-3
1511883641549778,3,-14,-6,2,-7,4,-11,3
1511883641551783,3,-6,-2,13,2,1,-7,2
1511883641551783,10,11,8,5,-6,-2,8,1
1511883641556800,6,-9,-7,1,-12,-1,6,-1
1511883641556800,11,-3,-9,-8,-15,6,1,-8
1511883641557799,7,10,5,-8,-10,-2,-5,-5
1511883641557799,10,-4,-12,-14,2,-4,-4,1
1511883641564818,-3,1,3,-13,8,-10,4,2
1511883641564818,1,-6,-2,-9,10,-5,3,12
1511883641565794,11,11,7,-9,3,-2,2,6
1511883641565794,12,4,-13,5,-1,5,8,4
1511883641570808,18,-5,-2,8,1,4,6,-9
1511883641570808,8,-4,-4,7,-1,-1,8,5
1511883641578857,6,6,-2,3,-8,-9,-2,-4
1511883641578857,0,-10,6,0,-6,-12,-7,-5
1511883641595377,-2,6,4,-4,-5,-7,3,-10
1511883641595377,-8,-6,-1,6,4,-10,-5,-5
1511883641595878,-1,-9,-4,-2,5,-1,-19,-2
1511883641595878,7,1,0,-4,-8,9,-18,10
1511883641609917,-2,-13,-1,-6,4,8,-15,7
1511883641609917,2,-3,-4,-7,3,4,1,2
1511883641615933,-3,-3,-10,1,-5,-3,16,-5
1511883641615933,-7,-6,-5,2,9,-9,6,-2
1511883641630973,1,6,4,2,3,-6,1,-5
1511883641630973,4,-4,8,2,4,-2,-5,-3
1511883641638994,5,-3,-13,-11,-3,1,0,-5
1511883641638994,16,15,7,2,4,3,5,1
1511883641654060,1,3,7,7,-3,7,0,1
1511883641654060,-3,0,9,-5,-6,-4,-7,-1
1511883641655063,-3,3,13,-2,1,-8,-5,-4
1511883641655063,-4,6,10,-3,-11,-1,-3,-12
1511883641670076,-3,0,-1,5,-4,-2,6,-3
1511883641670076,-1,3,-15,7,-3,-2,12,5
1511883641676123,-2,3,-11,3,-10,2,14,0
1511883641676123,-5,-3,-19,8,7,4,12,-5
1511883641691133,2,3,-10,1,4,1,6,-4
1511883641691133,10,-4,-3,4,8,1,4,-4
1511883641698653,-2,-2,10,-3,5,1,3,2
1511883641698653,-11,-4,9,-10,4,-5,-1,7
1511883641714196,-8,-6,17,-11,-7,-3,-8,-4
1511883641714196,-12,0,-7,-12,-1,-3,-2,-3
1511883641715199,2,0,-9,-3,-7,-2,1,3
1511883641715199,1,-6,-6,2,7,3,-7,4
1511883641730239,-1,-6,-6,-2,1,-9,-2,2
1511883641730239,3,15,-1,-5,-6,0,1,1
1511883641736285,13,5,-4,2,6,-9,-5,1
1511883641736285,6,-9,-7,6,-11,-6,10,0
1511883641751294,4,1,-5,-2,0,-7,6,4
1511883641751294,4,-9,5,-5,-8,6,3,2
1511883641758313,3,3,0,-4,-4,6,0,6
1511883641758313,6,9,-4,8,-1,0,0,0
1511883641774384,7,8,-7,7,1,-5,-1,-2
1511883641774384,-2,0,-1,10,12,-1,-1,-8
1511883641775386,-5,-6,-2,3,2,5,6,-3
1511883641775386,-3,-11,3,0,-3,4,8,-2
1511883641790457,-8,6,2,-4,-10,-6,0,-5
1511883641790457,-12,-3,10,-8,-8,-7,-5,1
1511883641796468,-12,0,7,-4,8,-2,-4,-2
1511883641796468,-10,3,0,-7,2,1,-6,3
1511883641810579,-4,-6,-1,2,-7,4,-3,1
1511883641810579,8,-4,-6,3,-8,-4,-5,-6
1511883641818600,14,3,-6,5,-5,-1,-9,0
1511883641818600,6,-4,-6,-6,1,-2,-2,-1
1511883641834645,5,-4,-7,-11,8,0,2,3
1511883641834645,-1,2,-1,-7,-1,6,-6,1
1511883641834645,0,-2,6,7,-6,9,1,1
1511883641834645,6,-2,7,1,-4,2,-4,-3
1511883641849685,-9,1,0,2,2,1,3,3
1511883641849685,-4,-6,-9,-2,9,-3,4,12
1511883641855830,-4,11,-1,0,7,-6,5,8
1511883641855830,3,-5,5,0,-1,-7,-1,8
1511883641870742,3,1,-1,-4,3,8,-3,0
1511883641870742,11,-3,3,-2,3,9,-2,3
1511883641878930,-5,-3,4,1,-2,13,-7,11
1511883641878930,-6,-10,-6,8,-3,2,-4,13
1511883641894310,3,-10,-4,5,-2,-3,0,6
1511883641894310,-6,2,-13,12,-1,-2,0,-4
1511883641895312,-1,11,-6,-2,1,-11,0,-17
1511883641895312,-11,1,0,-4,3,-12,2,-10
1511883641909784,-9,-7,-1,1,4,-12,-1,-4
1511883641909784,4,4,10,-13,-7,-12,10,16
1511883641915670,-3,-8,12,-8,-6,-7,-2,0
1511883641915670,-6,-2,1,-11,-9,-2,0,-7
1511883641930710,-6,7,0,-6,-3,2,-7,-19
1511883641930710,2,-7,-3,-3,-6,-5,-13,-25
1511883641938735,5,-2,1,1,-7,-7,-4,-21
1511883641938735,12,15,-4,-4,-7,-4,-4,-17
1511883641953776,10,5,-1,4,4,-1,1,-3
1511883641953776,3,3,1,8,3,0,1,3
1511883641954776,0,-5,2,6,5,3,6,-6
1511883641954776,1,-14,4,0,-3,3,-1,-5
1511883641969820,-4,11,8,-9,-8,7,1,5
1511883641969820,-14,-11,-2,-2,-8,6,1,3
1511883641975873,-7,-2,-14,-11,-4,6,-4,6
1511883641975873,-7,-1,2,-4,1,7,4,3
1511883641991387,4,-6,-13,-3,9,-2,1,6
1511883641991387,-3,-6,-6,1,11,-1,-2,-2
1511883641998903,3,4,-9,3,14,-6,-1,3
1511883641998903,-3,8,8,10,2,-3,1,-1
1511883642014763,0,-11,13,6,-3,-2,5,3
1511883642014763,-6,3,7,8,1,-7,-1,1
1511883642014763,0,-4,-3,2,-4,-1,-4,-8
1511883642014763,10,8,0,-1,3,2,-13,-5
1511883642029770,11,-2,9,1,-3,6,-1,-4
1511883642029770,-4,6,5,-2,4,6,5,-2
1511883642035786,-8,2,-3,-4,3,-3,-5,2
1511883642035786,-7,0,-7,-10,5,-7,-6,-2
1511883642050853,-5,-4,-12,-3,-4,-10,-2,1
1511883642050853,2,1,-8,0,-10,-4,3,4
1511883642058847,-6,0,8,3,-8,-2,6,4
1511883642058847,2,-6,-21,-3,-8,-4,1,8
1511883642075893,-3,-2,-5,3,9,-1,-2,-1
1511883642075893,10,7,9,2,5,3,-3,7
1511883642077022,4,-14,-1,-4,1,5,2,12
1511883642077022,5,-3,3,1,-2,11,7,-1
1511883642090456,1,-1,-9,-6,-9,9,-1,-14
1511883642090456,-8,-6,-15,-3,-5,-1,-1,-11
1511883642096473,8,20,6,-8,-5,-6,2,-9
1511883642096473,-5,3,0,6,-3,-5,-5,-3
1511883642110650,3,2,-6,3,-10,-2,-6,1
1511883642110650,1,-6,2,6,8,0,-3,-4
1511883642118672,-7,-2,8,7,4,-6,-5,9
1511883642118672,-2,-4,3,-1,13,-4,4,14
1511883642133713,4,0,4,-9,-5,-7,0,10
1511883642133713,7,12,-1,-5,-8,2,-4,1
1511883642134715,-7,-2,-2,3,0,4,-5,2
1511883642134715,2,1,5,0,3,11,5,8
1511883642149754,1,-2,-2,1,10,3,4,8
1511883642149754,5,-9,-7,-12,6,3,5,5
1511883642155770,-1,-6,-7,-3,1,-1,4,-8
1511883642155770,8,2,-2,0,-4,-2,-7,-6
1511883642170837,19,6,6,4,-5,10,-10,-4
1511883642170837,4,-9,8,3,4,18,-1,-12
1511883642178859,10,4,-4,-6,-14,-10,2,-1
1511883642178859,-1,2,-4,13,3,-10,0,6
1511883642209496,-5,-8,-8,5,3,-9,-7,6
1511883642209496,21,-3,-6,-1,-10,-6,-3,8
1511883642211478,13,-2,13,-3,6,11,1,6
1511883642211478,7,-7,6,-7,-9,-8,1,-4
1511883642230527,5,13,3,5,4,-9,15,9
1511883642230527,-4,-4,-3,-7,11,-6,4,2
1511883642239551,10,-3,-12,-6,-2,-4,5,6
1511883642239551,-26,-7,-5,-14,-8,-2,0,4
1511883642247600,-41,8,13,4,4,4,0,4
1511883642247600,-50,-1,-5,-5,-11,2,3,-4
1511883642248602,-33,3,-1,5,1,1,3,-6
1511883642248602,-9,5,7,4,0,3,-8,-3
1511883642253616,-1,-16,-8,5,-4,2,-2,-10
1511883642253616,5,9,1,1,-12,-6,-12,-1
1511883642260634,9,26,3,1,-1,3,-3,-5
1511883642260634,6,3,-6,-6,6,2,1,-13
1511883642269655,14,-5,-3,-8,-4,3,5,-8
1511883642269655,29,-4,4,0,8,3,5,0
1511883642275671,22,-1,5,8,2,5,-5,-1
1511883642275671,11,-5,2,4,-7,-1,3,1
1511883642291191,2,7,2,2,0,-5,3,-7
1511883642291191,4,-8,3,2,-5,-4,-2,-11
1511883642298712,9,-20,-5,-1,2,2,-12,-6
1511883642298712,7,8,-9,-3,2,8,-4,-8
1511883642313754,2,-6,4,-5,-2,14,-2,1
1511883642313754,1,-4,-8,-2,-2,3,3,0
1511883642320772,2,1,9,3,-5,-1,2,1
1511883642320772,11,8,0,1,-1,1,-4,4
1511883642329795,-2,6,-20,-1,4,0,-1,3
1511883642329795,-10,-6,1,0,6,-7,0,-2
1511883642335838,-4,0,3,-1,-2,-2,6,-3
1511883642335838,-18,-8,-1,-6,-4,0,-2,-7
1511883642350878,-29,-11,5,-2,-1,-3,-1,-1
1511883642350878,-38,-3,5,9,9,14,0,-2
1511883642358900,-50,-6,-12,-2,11,0,2,-3
1511883642358900,-33,-1,-4,2,0,-2,6,-7
1511883642373940,-26,-4,2,-4,-7,-8,-6,-5
1511883642373940,-19,5,1,4,-5,-11,-4,4
1511883642380958,-15,-4,-1,1,-6,-8,-3,11
1511883642380958,-2,-2,-8,1,1,-1,-13,14
1511883642397032,5,3,-3,-2,-1,4,-14,8
1511883642397032,7,-4,8,2,0,4,-8,-3
1511883642397505,-3,-3,8,-13,-12,7,2,-5
1511883642397505,-10,15,-3,-3,-3,8,9,-6
1511883642410619,-1,2,3,4,-9,5,8,-2
1511883642410619,2,12,1,4,-23,-6,-5,-9
1511883642418645,1,-2,-4,1,-1,-1,-5,3
1511883642418645,7,7,5,-11,-8,-5,-3,-10
1511883642433657,3,9,-4,-4,6,-2,7,-13
1511883642433657,4,7,3,-10,0,-6,7,-5
1511883642440707,-3,-10,7,-6,-11,-8,-1,-20
1511883642440707,14,2,7,9,-7,3,0,-36
1511883642456745,5,-1,2,13,4,5,-12,-88
1511883642456745,20,26,-6,6,-2,4,-10,-50
1511883642457748,21,7,-5,4,5,-1,-2,-32
1511883642457748,9,-12,-3,-2,2,-7,1,18
1511883642470783,2,9,3,-7,-3,-9,1,33
1511883642470783,-7,-4,1,-13,-2,-3,6,26
1511883642478804,9,6,0,-7,7,5,-1,22
1511883642478804,-3,-7,-7,-11,3,7,0,18
1511883642493864,3,-2,12,1,1,5,1,28
1511883642493864,-4,-9,-3,-5,8,1,-2,30
1511883642500889,-6,7,1,0,8,8,4,30
1511883642500889,0,-16,12,-8,7,8,0,15
1511883642516931,8,-5,1,0,5,5,-4,30
1511883642516931,7,-18,2,0,5,2,-10,17
1511883642517965,8,-23,-66,11,8,11,-7,1
1511883642517965,9,-3,-82,8,11,1,-8,-2
1511883642530996,6,-4,-86,0,5,-1,2,-2
1511883642530996,-7,1,-71,5,4,-6,4,-5
1511883642538990,10,-17,-44,-4,-5,-16,-7,-8
1511883642538990,-14,0,2,-4,-15,-11,0,-8
1511883642553027,7,-15,20,-6,-2,-11,3,-5
1511883642553027,2,-19,29,-2,1,1,10,-1
1511883642561055,0,-11,37,0,-9,3,4,-4
1511883642561055,7,13,37,1,-8,5,2,2
1511883642576121,0,-2,33,-3,-9,-5,2,4
1511883642576121,3,-1,28,4,-12,-2,6,5
1511883642577125,11,3,31,4,2,-2,5,-1
1511883642577125,-5,-14,19,5,3,2,-5,-2
1511883642592662,7,10,12,-1,-6,5,-6,-3
1511883642592662,20,5,-2,-7,-1,4,-6,-7
1511883642598678,6,-3,0,-4,0,-1,-3,-11
1511883642598678,6,0,6,3,9,-7,2,-5
1511883642613244,-5,-4,8,4,3,-10,-6,-11
1511883642613244,-9,-8,12,4,1,0,2,6
1511883642621266,-10,3,20,-5,-8,-1,7,6
1511883642621266,1,-2,14,-9,-4,-7,9,-2
1511883642636278,5,-2,4,-3,-4,-7,1,-6
1511883642636278,5,4,-5,-1,0,-6,-5,-13
1511883642637281,-2,7,-5,-3,-5,-7,-4,-19
1511883642637281,3,4,2,5,-2,-4,0,-18
1511883642652322,-14,-4,7,-2,1,5,2,-25
1511883642652322,-9,-4,9,-2,10,3,6,-25
1511883642658358,-9,0,-1,1,14,0,-3,-28
1511883642658358,-31,-5,-8,0,-5,-4,0,-37
1511883642673378,9,-4,-7,4,-6,5,-3,-17
1511883642673378,1,2,-2,8,-4,8,-3,-10
1511883642681399,4,16,6,-2,1,4,0,13
1511883642681399,7,-1,-4,-4,4,10,4,22
1511883642696970,2,-9,0,-7,-2,2,0,7
1511883642696970,10,6,18,2,-1,-5,-5,1
1511883642697443,-1,-3,14,2,1,-8,0,0
1511883642697443,3,-6,13,1,-1,-10,2,-7
1511883642712511,2,-5,6,-5,-3,-2,2,-8
1511883642712511,2,-1,2,-6,-11,-4,-8,-9
1511883642718551,8,1,11,3,-8,3,-5,-9
1511883642718551,29,-7,5,3,-3,9,-1,-6
1511883642733594,7,-1,1,-1,-3,7,4,4
1511883642733594,7,3,-15,-7,2,-2,3,-5
1511883642740613,17,1,-5,-7,4,-4,2,0
1511883642740613,22,0,4,2,1,-3,-8,-6
1511883642756657,10,-3,-16,0,-1,-5,-4,0
1511883642756657,30,3,-8,-8,-1,-8,-2,-13
1511883642757659,-30,0,2,-2,-7,-8,-6,-16
1511883642757659,-8,-1,-3,-3,-5,-8,-2,-22
1511883642772672,-11,3,8,11,7,-5,7,-15
1511883642772672,-19,-2,-8,9,0,-7,6,0
1511883642778715,-21,4,-8,3,-4,-5,-6,-13
1511883642778715,-20,12,-3,6,-4,-8,5,39
1511883642793728,-32,-13,-8,-9,-8,-3,-5,15
1511883642793728,-22,-4,0,0,4,5,10,23
1511883642801248,-6,2,0,3,6,5,8,24
1511883642801248,-23,5,9,-2,3,0,0,18
1511883642816800,-10,7,3,-6,-1,-2,0,17
1511883642816800,-28,2,3,-7,-11,1,-4,14
1511883642817794,-36,-24,-11,-1,-5,7,-3,18
1511883642817794,-10,-12,-22,3,4,4,-6,10
1511883642832844,16,25,0,4,-3,-1,2,12
1511883642832844,19,1,-4,1,-6,-11,-2,-6
1511883642838877,8,6,1,4,5,-3,8,2
1511883642838877,4,-21,-1,5,12,3,2,6
1511883642853928,-4,-4,3,-13,7,-3,-5,2
1511883642853928,12,-5,2,2,7,1,-2,17
1511883642860910,2,-5,0,-5,-5,-5,-8,0
1511883642860910,19,3,10,-8,-8,-9,-3,3
1511883642876977,8,-4,-14,-2,0,1,-6,0
1511883642876977,-14,-1,-4,2,4,-3,-4,-7
1511883642877960,11,-5,-14,-2,4,4,0,6
1511883642877960,4,10,-9,-6,-3,2,-6,-17
1511883642892513,-4,0,8,4,3,5,11,20
1511883642892513,3,4,6,-5,2,3,-3,-2
1511883642898550,25,-8,6,1,7,8,11,20
1511883642898550,-16,22,3,-3,-6,-2,-4,-13
1511883642913682,26,3,-2,2,-8,3,-3,0
1511883642913682,13,-22,-14,0,-10,6,1,5
1511883642920740,12,10,3,-7,-6,0,-4,0
1511883642920740,4,-9,-8,-7,-4,-1,11,-7
1511883642936782,7,13,10,0,5,-3,11,15
1511883642936782,2,7,5,1,6,-5,3,1
1511883642937768,3,-4,2,-2,-1,-5,3,-5
1511883642937768,6,2,-5,2,3,-2,2,5
1511883642952808,-10,-13,-12,4,1,-1,5,-1
1511883642952808,5,8,0,4,1,-2,-4,0
1511883642958841,3,2,6,-1,2,2,2,8
1511883642958841,3,-4,-2,-5,6,8,8,-3
1511883642973843,-3,15,-1,-7,1,7,4,-11
1511883642973843,-23,1,-5,-7,8,2,6,10
1511883642980880,-5,5,3,-2,3,-4,2,0
1511883642980880,2,-10,7,2,-2,-8,7,8
1511883642996981,-3,1,-2,4,-8,-12,0,-14
1511883642996981,2,-6,-7,0,-9,-6,13,-4
1511883642997940,-1,-3,0,2,-9,-6,5,-6
1511883642997940,-2,1,1,1,1,0,-5,-5
1511883643012899,-1,-12,-2,-4,-1,3,-16,-7
1511883643012899,-19,-8,1,-1,2,8,-10,-10
1511883643018938,-4,-8,0,6,0,7,-10,-11
1511883643018938,9,1,3,-2,-1,-5,-9,0
1511883643033953,14,-2,2,2,-1,-13,-9,6
1511883643033953,58,1,2,3,-4,-3,-7,3
1511883643041092,68,2,-5,-1,-2,-5,-1,1
1511883643041092,37,9,0,4,7,-6,-2,11
1511883643057045,-8,4,3,-6,2,-5,-9,-5
1511883643057045,-25,1,-4,-4,-2,4,-13,-12
1511883643057045,-41,8,-6,0,-11,3,-9,6
1511883643057045,-26,-8,-4,2,-6,-3,-8,0
1511883643072257,-26,-12,1,4,9,0,-5,5
1511883643072257,-18,-3,1,0,12,-6,-8,5
1511883643079101,-9,-8,8,-6,7,-5,-7,-2
1511883643079101,-1,10,-8,-2,5,0,-2,-6
1511883643093621,11,-6,-14,-7,-5,7,7,-5
1511883643093621,5,-3,-9,-5,-10,-5,5,-12
1511883643101138,16,8,-16,-4,-12,-8,-4,-5
1511883643101138,22,-3,3,0,-2,-2,-1,12
1511883643116706,21,3,9,4,0,1,0,6
1511883643116706,11,7,5,-4,-5,7,3,8
1511883643117709,-18,2,4,3,-3,0,-2,3
1511883643117709,-19,1,10,-5,-5,5,-11,-15
1511883643132777,-12,11,2,-2,-4,8,-6,-8
1511883643132777,-1,11,2,-1,2,3,4,1
1511883643138764,1,-3,-6,8,10,1,-1,3
1511883643138764,0,-6,-6,1,-1,1,-1,5
1511883643153805,-10,-10,-5,2,5,-5,-6,-8
1511883643153805,-12,-5,1,0,8,-1,1,-13
1511883643160824,-6,8,0,2,-3,3,10,19
1511883643160824,-17,-5,-4,2,-11,-6,3,10
1511883643176896,-1,13,3,2,-5,-4,4,10
1511883643176896,-11,8,9,0,-5,-4,-5,5
1511883643177869,-5,-10,5,-5,0,0,-2,-4
1511883643177869,-6,6,8,-3,-1,9,-5,-1
1511883643192947,-7,0,12,1,-8,10,1,3
1511883643192947,-3,-10,-6,0,-11,3,-2,7
1511883643198954,-1,1,-1,-9,-7,-6,-4,-2
1511883643198954,0,-13,-1,-3,-10,0,7,9
1511883643213523,-3,5,-1,-13,-5,-6,1,10
1511883643213523,-1,-2,2,-1,7,1,3,3
1511883643220541,-3,-8,-7,1,7,5,-2,-12
1511883643220541,3,-6,-5,2,1,5,-3,-3
1511883643244579,19,0,-5,9,4,8,1,0
1511883643244579,29,0,-3,2,-7,1,-1,3
1511883643244579,7,8,-8,-3,-2,-3,0,-3
1511883643244579,-2,10,-5,-2,5,-1,0,-7
1511883643259618,2,-1,-12,-12,-5,-9,-4,-4
1511883643259618,-8,-5,-1,-2,-1,-7,-9,-10
1511883643259618,-9,-5,0,5,4,2,-2,-11
1511883643259618,-8,1,-9,0,3,2,-3,-6
1511883643273683,-7,3,9,10,9,3,-1,-15
1511883643273683,-3,3,-2,2,10,-6,5,-11
1511883643280701,-4,-4,0,-3,-3,-5,4,-2
1511883643280701,-11,-3,-4,-12,-10,2,8,5
1511883643296246,-3,-4,-7,-3,-4,7,6,5
1511883643296246,-4,-12,-11,-3,8,7,2,-3
1511883643303805,-5,-19,11,6,10,2,1,-7
1511883643303805,3,18,10,2,6,2,1,4
1511883643312798,2,1,-9,-3,-6,-5,-9,-1
1511883643312798,-7,-17,-9,-12,-13,-14,-5,3
1511883643318814,-5,10,-1,-2,-7,-10,3,1
1511883643318814,1,-21,0,9,11,-6,2,-11
1511883643333853,-4,-14,-14,-3,6,-2,-8,1
1511883643333853,0,6,1,-9,-6,9,-6,4
1511883643340872,-1,4,-3,-11,-3,8,-4,16
1511883643340872,4,-9,2,-2,-9,10,-6,12
1511883643355912,2,-4,8,1,2,4,3,8
1511883643355912,-4,-1,0,10,0,-3,-6,11
1511883643363938,-5,-5,1,16,-2,-5,5,7
1511883643363938,3,7,5,2,-11,-9,10,11
1511883643372977,-13,-32,-6,-1,-2,-3,11,4
1511883643372977,-1,14,4,-4,-3,0,12,4
1511883643377971,3,15,2,-5,0,-1,0,1
1511883643377971,-5,-4,-6,-12,-9,-5,-6,-7
1511883643393515,-7,-3,-5,-11,3,-3,5,-6
1511883643393515,-11,5,5,3,11,-1,2,-6
1511883643401065,-5,-3,-10,-4,13,-3,-5,-11
1511883643401065,-1,-2,-4,9,-2,-13,-8,-9
1511883643416075,0,7,13,4,-3,-7,-3,-3
1511883643416075,8,-2,-3,7,3,2,-2,-2
1511883643423093,-3,-6,-9,-7,3,5,4,2
1511883643423093,-4,-7,-3,-5,1,-4,3,-2
1511883643439166,-1,15,6,8,0,4,0,-5
1511883643439166,9,11,-6,6,-5,0,4,3
1511883643440167,4,4,1,6,-4,10,-2,4
1511883643440167,13,1,-2,-4,-1,10,-5,4
1511883643468213,0,-4,3,1,-7,-3,-10,9
1511883643468213,0,-16,0,-4,4,-3,1,7
1511883643477239,0,-21,-7,-4,-5,-14,-2,-3
1511883643477239,10,37,5,-1,-1,-11,6,8
1511883643500361,-3,3,-3,-4,5,-6,3,6
1511883643500361,-5,6,-2,-4,-3,4,-8,3
1511883643501865,-4,-11,0,-15,-2,-1,-5,5
1511883643501865,-18,0,1,-1,9,4,-5,3
1511883643522456,-15,-6,2,3,2,1,1,4
1511883643522456,-7,4,7,6,-9,-5,4,8
1511883643524456,10,-2,-2,11,-12,2,2,-6
1511883643524456,3,-9,-3,9,-3,7,-1,-11
1511883643529467,12,-9,35,-5,-12,8,-4,-17
1511883643529467,-2,-19,76,-5,-3,5,-1,-20
1511883643536458,-8,17,61,2,-6,5,0,-18
1511883643536458,-4,-4,44,-2,0,-7,-6,-15
1511883643537460,-3,2,-6,7,9,-3,2,-18
1511883643537460,8,0,-39,-1,5,11,-2,-14
1511883643543476,2,11,-24,-2,2,18,-11,-7
1511883643543476,1,4,-48,-16,-1,21,-7,-1
1511883643559546,-9,6,-34,-12,-2,19,-3,3
1511883643559546,4,0,-25,8,2,12,-1,8
1511883643559546,-5,-2,-18,3,1,-15,5,7
1511883643559546,5,-2,-17,6,-3,-35,6,4
1511883643573584,8,5,-12,3,-6,-42,3,-2
1511883643573584,13,-2,-4,1,-6,-34,0,-1
1511883643580604,15,-4,-6,-2,2,-21,-3,1
1511883643580604,7,1,2,-3,5,-1,0,-3
1511883643596165,0,1,-8,7,12,4,5,-3
1511883643596165,-2,-2,-17,-5,0,0,3,0
1511883643603724,-11,-4,-4,1,6,-4,3,4
1511883643603724,-7,-5,-4,-3,5,-6,7,6
1511883643618768,4,19,10,-3,-3,0,7,1
1511883643618768,-8,8,9,0,4,2,-7,2
1511883643619743,2,-1,-6,2,5,5,-4,14
1511883643619743,-7,-14,-1,2,-5,-2,-5,11
1511883643633781,-12,-8,5,4,-1,-1,-1,8
1511883643633781,-13,9,-13,4,-4,-4,3,0
1511883643640800,4,0,-5,-5,-16,3,3,-2
1511883643640800,2,-6,1,-2,-7,-2,-1,-4
1511883643655870,8,2,7,2,-1,1,-2,3
1511883643655870,-4,-8,3,-15,-3,-4,-2,4
1511883643663890,-13,1,4,-8,18,0,-2,-1
1511883643663890,-4,-4,-1,-4,13,7,2,-7
1511883643678927,12,9,8,-1,7,4,0,-1
1511883643678927,5,-4,-9,4,2,-4,-4,5
1511883643679904,2,-1,-13,7,4,-12,-8,-5
1511883643679904,6,-3,-2,8,-2,-8,-17,-1
1511883643693466,16,-17,4,2,-10,-4,-8,-3
1511883643693466,7,11,15,1,-16,3,5,-3
1511883643700986,10,7,-5,2,-16,1,6,4
1511883643700986,1,4,15,8,-7,4,8,-2
1511883643716053,-5,-7,-11,-10,-5,6,4,-3
1511883643716053,-7,1,5,2,9,7,12,-9
1511883643723070,2,-16,0,-8,-3,14,7,-5
1511883643723070,-4,-10,-6,-11,2,6,-6,-4
1511883643739114,-4,-2,-7,0,-6,-4,-10,6
1511883643739114,-6,6,1,-3,-2,-12,-5,6
1511883643740117,-10,7,7,1,-2,-14,-3,0
1511883643740117,-7,-6,-11,2,2,-14,-1,8
1511883643753156,-1,-7,-7,1,4,-5,-4,6
1511883643753156,-1,0,-7,3,3,-1,5,-1
1511883643761147,-6,-10,-3,-4,-6,-14,2,-8
1511883643761147,4,18,16,2,-6,-19,-1,-6
1511883643776213,-14,-8,-7,-5,-4,-32,-12,3
1511883643776213,-3,13,2,-7,-5,-32,-12,-4
1511883643783209,6,6,6,5,4,-26,-1,-2
1511883643783209,-7,-9,-4,-1,-2,-9,-3,4
1511883643799275,-1,-8,-2,0,0,10,0,0
1511883643799275,5,-10,-9,4,7,21,-2,3
1511883643800252,6,4,0,-2,2,24,-2,5
1511883643800252,5,5,3,-2,1,20,-1,0
1511883643813866,1,0,5,-2,1,14,2,1
1511883643813866,-7,-7,8,1,6,40,0,-5
1511883643820858,-9,4,6,3,0,60,3,-6
1511883643820858,6,3,-1,-4,-7,65,-3,0
1511883643835898,2,-2,-12,-6,-9,77,-2,6
1511883643835898,10,2,-9,-5,-12,59,-2,-4
1511883643843950,-2,2,2,2,-10,22,-2,-4
1511883643843950,-6,9,-8,6,0,2,16,-5
1511883643858999,-8,4,0,0,3,-24,15,-10
1511883643858999,-4,1,-1,0,4,-27,5,2
1511883643859963,-4,-8,-6,-4,6,-16,-2,-6
1511883643859963,-4,-1,-2,3,16,-20,-1,1
1511883643874057,1,2,0,-4,1,-36,1,2
1511883643874057,3,-5,1,-8,6,-36,-11,5
1511883643881043,-8,-6,8,0,0,-35,-9,-4
1511883643881043,6,-1,-1,-5,0,-34,3,1
1511883643896138,5,4,2,2,-4,-26,2,-8
1511883643896138,-8,-5,-1,2,-2,-21,-9,-2
1511883643903831,1,1,-10,-8,-9,-17,-2,1
1511883643903831,-2,1,-8,-4,2,-9,-1,2
1511883643918871,-8,-6,0,-12,3,10,6,1
1511883643918871,-4,-6,11,9,16,4,5,-8
1511883643919853,-3,1,4,5,-1,-3,-4,-3
1511883643919853,-3,-5,5,7,-8,3,-6,0
1511883643933910,-2,-2,3,4,-1,-3,-9,-1
1511883643933910,-7,-8,-9,-3,-4,-7,2,7
1511883643940948,-3,1,0,-10,-3,-5,7,3
1511883643940948,3,4,-5,-6,-6,1,8,2
1511883643955994,11,8,0,2,3,2,-3,-11
1511883643955994,11,2,-2,-2,-7,-3,-3,-8
1511883643964011,1,-3,-1,4,8,-3,-2,7
1511883643964011,-3,3,2,0,-5,-4,-4,7
1511883643979016,-6,-1,-3,1,-9,-5,2,6
1511883643979016,-8,-6,-3,1,-9,-5,8,4
1511883643980014,8,-2,-13,-5,-5,0,-2,9
1511883643980014,1,-3,2,2,-3,7,-4,10
1511883643994053,7,1,3,5,-2,16,2,6
1511883643994053,0,3,7,11,4,14,-1,-3
1511883644001076,1,-2,0,-1,2,4,-1,-4
1511883644001076,-5,3,3,-7,5,-3,-1,-8
1511883644015908,-4,0,2,-5,6,-12,3,0
1511883644015908,-10,-7,-2,-7,-1,-10,5,-5
1511883644023935,-3,-2,5,-2,-6,3,1,2
1511883644023935,-8,-2,4,0,2,1,-3,-9
1511883644038898,-7,1,6,-1,-5,5,-1,-13
1511883644038898,-9,24,3,-11,-14,5,-7,-4
1511883644039847,-11,-2,-6,1,8,11,-5,-15
1511883644039847,-10,-7,-10,-4,2,1,-6,-7
1511883644053945,2,3,-4,1,8,3,-2,7
1511883644053945,14,-2,4,1,2,3,5,6
1511883644060936,1,-7,5,12,-1,3,4,7
1511883644060936,-7,-9,1,9,-8,9,0,5
1511883644075993,2,12,3,5,1,6,-10,4
1511883644075993,21,4,-17,-8,0,-3,-6,-4
1511883644083962,21,8,-2,-8,-5,-1,9,-6
1511883644083962,20,-4,-6,-3,-6,-5,-1,-14
1511883644099510,14,0,5,-3,3,1,-2,-11
1511883644099510,5,-9,-2,-2,0,1,-6,10
1511883644100517,6,1,-2,-1,0,-1,5,15
1511883644100517,0,2,-6,0,-2,0,-2,4
1511883644113692,-2,5,-1,-8,1,-2,-11,-1
1511883644113692,-7,-1,5,-2,-2,-4,-10,-9
1511883644120738,-11,-2,4,1,1,-3,-3,-6
1511883644120738,-7,3,3,6,-4,5,4,3
1511883644135784,-9,-2,-3,5,-2,4,7,3
1511883644135784,-5,-3,-3,7,9,5,9,1
1511883644143801,-9,2,0,0,-8,-10,-2,-5
1511883644143801,-4,-7,-4,1,9,-3,4,-13
1511883644158836,4,-15,-4,0,0,-2,1,-3
1511883644158836,-3,-2,4,-9,-11,2,1,-3
1511883644166846,6,-5,5,-3,-1,6,-1,-4
1511883644166846,7,-1,-9,-10,2,-1,-3,-1
1511883644173886,3,13,7,-6,4,-9,-1,-6
1511883644173886,-4,-1,-9,2,0,3,0,1
1511883644180898,1,-11,-1,0,-3,10,-5,-5
1511883644180898,12,-8,3,5,-8,1,-3,1
1511883644196461,3,-5,-5,3,-8,-3,-9,2
1511883644196461,5,0,-2,2,3,-2,-14,0
1511883644203568,-1,11,-1,-4,11,-6,-6,1
1511883644203568,5,3,-8,1,5,4,1,3
1511883644218608,-6,-13,-6,3,-4,-6,1,-2
1511883644218608,-3,-2,14,3,-9,-4,2,-1
1511883644226631,-8,-13,-2,-4,1,5,1,-6
1511883644226631,-6,8,10,-11,6,3,3,-3
1511883644233643,-4,10,-2,-5,-1,-1,7,-3
1511883644233643,-6,-5,-7,2,-12,-5,4,-3
1511883644240644,9,17,2,5,-15,-8,4,5
1511883644240644,-1,-4,-9,-5,-15,-3,1,6
1511883644255711,0,-9,-3,-3,-3,6,2,6
1511883644255711,-1,-1,-3,-4,-5,-4,-3,5
1511883644263732,7,-4,4,1,-8,-2,-5,3
1511883644263732,-3,-25,2,1,-1,3,2,-2
1511883644278769,-3,9,19,-1,-4,9,5,-6
1511883644278769,4,0,-7,-4,7,13,4,-1
1511883644295293,-4,5,-7,-3,10,21,2,2
1511883644295293,-1,12,-3,-3,13,13,2,-1
1511883644296797,-13,-8,-8,-6,-1,16,-4,-4
1511883644296797,-9,-1,13,-3,-3,14,3,-1
1511883644301309,-1,-6,-4,-3,-11,3,3,-8
1511883644301309,7,16,2,3,-14,5,-4,3
1511883644315850,2,-11,-3,6,4,12,2,4
1511883644315850,4,-5,-4,3,13,5,-2,2
1511883644323891,0,-6,-9,0,6,-6,-1,5
1511883644323891,-6,0,-3,-6,5,-12,5,-4
1511883644338928,-1,4,-4,-4,-7,-20,4,-5
1511883644338928,-8,1,3,8,7,-9,4,-4
1511883644346963,-9,5,1,-1,9,-2,4,-2
1511883644346963,-10,8,10,13,-2,-8,1,-9
1511883644361972,-19,3,-11,2,-2,-13,-6,-5
1511883644361972,-20,-7,-9,2,-9,-14,-7,-7
1511883644361972,-10,8,4,-1,-10,-12,-8,-10
1511883644361972,-5,-2,9,-2,4,2,-1,0
1511883644376036,0,-7,-3,-7,0,6,6,4
1511883644376036,-4,-6,-3,-8,1,2,6,2
1511883644383055,-11,-14,-4,-2,-2,-5,-5,9
1511883644383055,3,-1,-5,-12,-19,-8,-12,9
1511883644398570,10,5,5,0,-5,-1,-10,-6
1511883644398570,19,2,1,-5,-9,-3,1,-6
1511883644406118,10,14,-2,2,-8,-8,3,1
1511883644406118,3,-6,6,5,9,-9,-1,-4
1511883644421187,7,6,-12,5,10,-19,-4,7
1511883644421187,9,9,5,-2,15,-10,-5,3
1511883644422169,-1,-1,5,2,15,-4,0,0
1511883644422169,-2,-13,1,-3,8,-6,6,3
1511883644436219,1,-3,7,-8,-13,-9,3,5
1511883644436219,8,-1,0,3,-13,-1,0,-2
1511883644443243,4,-7,-14,3,-9,-3,-5,-9
1511883644443243,0,4,-8,1,-9,-7,-5,-3
1511883644458258,14,4,3,1,1,-6,3,5
1511883644458258,13,5,7,-6,1,-8,1,3
1511883644466279,3,-9,-2,-7,-7,-9,-1,-2
1511883644466279,-1,7,-4,1,4,3,-4,-3
1511883644497382,12,1,-5,-3,2,-2,-7,-2
1511883644497382,8,10,6,-2,5,0,1,1
1511883644499387,16,3,1,0,2,0,4,4
1511883644499387,9,-4,-6,1,2,2,4,5
1511883644519442,5,-3,-8,1,-1,-1,-4,-4
1511883644519442,1,0,-4,3,7,-1,-4,-6
1511883644521448,-5,4,2,-3,1,0,0,-7
1511883644521448,3,12,16,7,2,1,-5,4
1511883644540499,2,-11,6,3,-3,6,0,1
1511883644540499,1,-13,-15,-4,-8,-5,3,-1
1511883644550525,0,6,-2,4,13,1,7,2
1511883644550525,-3,3,-4,-3,9,1,-1,4
1511883644572614,-4,-7,0,5,7,5,2,-5
1511883644572614,-2,-5,-2,-6,3,6,-7,-1
1511883644574590,-2,0,-6,-11,3,14,-8,-2
1511883644574590,0,5,11,17,5,14,1,-1
1511883644593641,-10,-1,-5,-8,-10,-3,-4,4
1511883644593641,-10,-4,-1,-2,-2,-4,-4,4
1511883644602665,-1,-1,7,10,-5,1,-8,2
1511883644602665,-3,-6,-10,-1,-9,-1,-1,0
1511883644624752,-6,3,-2,12,1,1,16,9
1511883644624752,-3,1,0,5,-3,-7,11,9
1511883644626758,-10,1,0,2,5,-13,-4,-2
1511883644626758,1,-4,1,-8,-4,-9,-13,-14
1511883644632746,0,-5,6,4,3,1,-10,-7
1511883644632746,4,-5,-12,-4,0,3,-10,-4
1511883644633749,12,7,16,-1,1,4,-9,3
1511883644633749,8,-3,-5,-13,8,-5,0,4
1511883644638790,-6,-3,-5,-10,11,-4,-9,-7
1511883644638790,-3,5,3,1,-8,-7,-1,-9
1511883644639765,-3,3,17,22,2,1,1,-1
1511883644639765,-6,-12,-28,3,-13,-8,3,6
1511883644647787,-9,4,16,9,6,-1,4,-4
1511883644647787,-7,-10,2,-13,-1,0,7,-7
1511883644647787,1,-16,-10,-20,-9,-7,12,-4
1511883644647787,0,-8,4,-2,-1,-1,12,-4
1511883644661824,0,-13,-7,5,-4,5,0,8
1511883644661824,-6,-2,7,5,4,5,-11,4
1511883644662854,-1,-6,3,6,3,5,-6,-6
1511883644662854,2,-2,7,-11,-1,-4,-10,-7
1511883644699929,-5,13,7,-1,9,-1,-9,-10
1511883644699929,-3,-11,-19,3,6,-2,-10,-3
1511883644701949,-1,-5,-22,-11,-23,-3,-2,8
1511883644701949,0,22,4,9,-6,-4,-5,-7
1511883644722042,3,8,12,-4,-12,-8,3,-7
1511883644722042,-8,13,9,14,0,0,0,1
1511883644724020,-9,-9,-7,-8,-13,-4,0,-1
1511883644724020,-4,-7,-3,-4,14,4,-1,-5
1511883644744100,3,-7,2,-6,-3,-2,1,-3
1511883644744100,7,10,4,0,0,-3,4,-1
1511883644752095,1,-1,-1,-7,4,1,-5,2
1511883644752095,0,4,13,-3,3,5,-11,-1
1511883644775155,-5,-8,-15,-9,-5,3,-2,6
1511883644775155,1,-7,-4,4,-2,3,7,2
1511883644776167,1,-2,-2,11,4,-3,9,-7
1511883644776167,-5,-8,-5,7,-3,-1,19,2
1511883644797717,3,4,-11,3,-5,3,11,-7
1511883644797717,-11,1,1,7,-11,3,11,-4
1511883644799221,-7,4,1,4,5,1,-1,0
1511883644799221,-4,-8,-2,-3,-4,-1,-6,-10
1511883644804234,11,7,1,-4,1,-7,2,-9
1511883644804234,-30,-11,-11,-16,2,0,-7,-18
1511883644805238,3,1,2,0,13,2,-3,10
1511883644805238,0,-2,-4,-1,0,1,5,5
1511883644812257,-2,2,1,-4,-8,1,0,-1
1511883644812257,7,-8,8,-13,-10,9,12,10
1511883644814262,-1,1,-5,-8,-10,-1,7,6
1511883644814262,-1,-2,1,-13,-9,-5,8,12
1511883644818273,9,1,-14,-9,2,-4,13,-1
1511883644818273,-2,2,16,1,13,-6,1,-9
1511883644826322,-6,0,17,-3,11,-11,-7,2
1511883644826322,-16,9,11,-7,5,2,-6,5
1511883644841364,-11,-1,2,-3,2,7,-3,4
1511883644841364,5,6,-7,3,-12,2,2,-5
1511883644842364,-5,1,-5,10,-5,3,7,-8
1511883644842364,14,-12,-7,21,-14,-5,5,-11
1511883644856503,3,-11,-6,13,-7,-7,-4,1
1511883644856503,16,6,-6,1,-1,-7,-5,3
1511883644863526,14,1,1,-8,4,-7,-10,7
1511883644863526,8,8,4,-7,2,10,-8,12
1511883644878434,7,-2,-7,-5,-3,10,-5,9
1511883644878434,-17,-3,3,3,3,3,-4,5
1511883644886553,14,-14,-9,7,9,1,9,4
1511883644886553,-7,4,5,4,1,-5,1,-4
1511883644902222,5,7,-1,5,-2,-12,-10,2
1511883644902222,11,-12,-24,-7,-12,-3,-10,6
1511883644902656,23,0,-8,-5,-7,5,-6,15
1511883644902656,-30,-27,-25,-11,-7,-4,1,-3
1511883644915940,-5,-3,20,4,4,0,1,-4
1511883644915940,4,22,12,-4,3,-3,-1,6
1511883644923961,-6,6,7,1,-1,1,-7,-15
1511883644923961,-4,7,13,-4,0,6,-2,-7
1511883644938893,-10,-2,3,-6,6,1,3,4
1511883644938893,3,0,12,-2,-2,-7,-4,-2
1511883644946084,6,2,7,-4,-9,4,-3,-9
1511883644946084,14,1,-6,-5,-10,6,-6,8
1511883644961951,-1,3,-1,-1,-2,4,0,-5
1511883644961951,4,-8,-9,4,-2,-1,3,-1
1511883644961951,-11,1,18,7,-7,-1,13,1
1511883644961951,-3,11,1,6,-2,-10,0,-2
1511883644976101,-18,3,8,15,4,-1,-2,4
1511883644976101,0,-8,-13,-6,3,2,-7,3
1511883644983006,-18,-4,-7,7,5,-5,-16,-12
1511883644983006,-6,-2,-2,9,5,-4,2,12
1511883644999053,0,-5,-13,-3,-10,-6,-4,-1
1511883644999053,0,6,3,1,-5,0,2,7
1511883645005792,-16,-6,-7,-5,-2,-2,12,-4
1511883645005792,18,1,3,6,0,-2,4,-8
1511883645021832,10,4,9,2,-14,-6,-2,-3
1511883645021832,8,1,17,1,-3,-4,-1,-3
1511883645022838,-5,-1,-15,-10,-5,0,-10,-1
1511883645022838,16,3,3,-7,13,8,-5,5
1511883645035748,-35,-6,-6,-6,9,7,-5,-3
1511883645035748,-11,-1,-3,0,0,-10,-5,-2
1511883645043794,2,9,-17,-2,4,-4,2,-3
1511883645043794,-11,-12,-19,-2,0,-5,-3,-8
1511883645059811,21,16,14,0,7,2,4,2
1511883645059811,3,-4,-2,-1,-8,-2,3,-8
1511883645065825,-12,-3,16,9,-1,1,-2,-41
1511883645065825,-7,-9,-14,-6,-13,-6,-6,-18
1511883645097528,5,-7,-9,-6,-2,-4,-2,-8
1511883645097528,-24,-3,2,3,12,0,-1,0
1511883645099534,5,-5,-5,-5,10,-3,2,-1
1511883645099534,-1,24,26,7,9,-6,8,-4
1511883645127664,-4,4,-5,2,12,-1,1,-7
1511883645127664,-20,-11,-8,-8,0,2,5,12
1511883645128665,-11,-15,-9,-8,0,6,4,12
1511883645128665,-16,-10,-3,3,-6,1,-2,2
1511883645134708,0,-14,-12,-5,-13,-4,2,8
1511883645134708,-43,12,4,0,5,4,-3,-21
1511883645136687,-2,12,8,6,4,4,0,3
1511883645136687,-12,3,5,7,-4,3,-1,3
1511883645140698,7,-8,-4,3,-14,0,-10,17
1511883645140698,24,-1,-9,-1,-8,5,-9,8
1511883645148720,0,5,0,3,-12,4,1,8
1511883645148720,-1,-3,3,-7,-10,3,-1,12
1511883645155739,-42,-17,4,-10,-8,0,4,-3
1511883645155739,17,0,-6,-1,0,-3,-5,12
1511883645163786,-13,-14,-5,-5,-4,-2,-8,8
1511883645163786,25,0,3,0,-6,-5,-4,7
1511883645178798,16,2,-4,-6,-8,-4,-2,2
1511883645178798,14,-5,1,1,0,0,5,-4
1511883645185818,11,1,-2,-2,2,-9,6,4
1511883645185818,19,0,-5,11,9,-4,2,-1
1511883645201362,8,11,5,2,4,0,-1,1
1511883645201362,3,1,6,-1,-2,2,-6,-6
1511883645209386,-1,4,1,-6,-1,3,0,22
1511883645209386,4,-1,-11,-15,4,-6,7,9
1511883645216405,7,3,5,1,3,1,9,12
1511883645216405,8,5,5,-4,1,6,7,24
1511883645223423,8,-11,-13,1,-7,3,-3,4
1511883645223423,1,8,6,4,-1,2,-9,10
1511883645238463,-26,-2,-20,2,-1,3,-9,-7
1511883645238463,4,4,-10,2,-1,-2,4,5
1511883645246485,9,9,6,-5,1,-8,0,-6
1511883645246485,-5,-3,1,-2,0,-3,-3,-26
1511883645260522,18,-3,6,-1,5,7,-4,-18
1511883645260522,1,-8,0,0,1,3,-14,-28
1511883645269546,2,7,-2,1,2,-1,-8,-24
1511883645269546,11,-7,-7,-5,-9,2,-7,-29
1511883645284585,18,1,9,0,-4,-7,-14,-27
1511883645284585,-31,-13,0,-2,-10,-5,2,-21
1511883645284585,-3,5,-2,1,-6,7,3,-14
1511883645284585,-14,0,9,-4,-6,8,4,9
1511883645298625,-3,-2,3,-3,-14,-2,8,-6
1511883645298625,5,-11,-2,-2,-3,-1,11,1
1511883645305646,18,-2,16,6,2,1,-8,-6
1511883645305646,-7,-5,-2,-1,9,2,-10,-19
1511883645320686,-23,-14,-10,1,17,7,-8,-20
1511883645320686,17,2,0,9,8,-2,-5,-22
1511883645328707,-36,-9,-10,0,5,1,5,-4
1511883645328707,17,2,-2,6,7,1,-1,7
1511883645343746,10,18,4,0,6,1,-2,5
1511883645343746,-9,0,-108,-8,3,-2,5,5
1511883645344748,11,11,-123,-5,9,3,2,-5
1511883645344748,-17,7,-120,-2,3,5,11,33
1511883645358787,-2,1,-72,2,6,-6,9,19
1511883645358787,10,7,-2,0,2,-1,-6,30
1511883645365806,5,-5,25,-7,-5,-6,-15,11
1511883645365806,-6,-20,35,-3,8,-8,-5,17
1511883645380846,13,6,39,2,7,-2,2,4
1511883645380846,7,5,56,-3,5,1,2,-7
1511883645389371,-3,-2,59,1,-1,-4,4,-10
1511883645389371,-5,5,62,-1,-8,-1,3,-30
1511883645404411,14,2,37,-5,-5,9,3,-9
1511883645404411,-12,-8,34,1,-5,6,-3,-23
1511883645404914,7,0,42,-1,-2,4,2,-2
1511883645404914,0,-2,45,0,-5,1,5,-12
1511883645418951,-3,-8,8,1,3,0,-1,0
1511883645418951,28,18,44,7,0,0,6,2
1511883645425971,-19,8,27,9,7,5,3,0
1511883645425971,-13,-4,10,1,-3,8,1,-2
1511883645441009,-5,-9,5,0,-9,-3,-1,-1
1511883645441009,4,-7,12,2,-2,-6,-4,-6
1511883645449031,6,-4,14,-1,-4,-3,6,4
1511883645449031,7,-4,-5,-6,5,-2,1,14
1511883645464071,3,1,-5,-2,2,5,-4,8
1511883645464071,1,-5,-9,0,3,4,-2,20
1511883645465074,14,-14,-18,2,-3,0,-2,17
1511883645465074,-10,0,-13,-4,-12,-11,1,3
1511883645478108,-11,0,-12,-2,-3,-10,2,1
1511883645478108,-21,4,-9,1,7,-8,2,4
1511883645486130,-11,0,-18,-13,2,-9,6,4
1511883645486130,13,4,19,2,7,-12,-5,10
1511883645501172,14,-3,10,-6,-3,-1,4,22
1511883645501172,3,-12,6,5,-1,6,-1,8
1511883645509196,12,5,22,5,-1,8,-3,-6
1511883645509196,15,-1,-6,-3,-5,-1,1,-16
1511883645524236,2,1,-15,-6,-6,-7,-5,-4
1511883645524236,2,5,4,-1,-3,-9,-4,5
1511883645525239,2,0,1,0,-9,-13,-12,7
1511883645525239,-4,-9,3,2,-4,3,-1,-1
1511883645538274,-9,3,20,4,-3,0,-3,-5
1511883645538274,0,1,-9,-3,-7,2,-3,3
1511883645546295,3,-2,-3,3,2,-4,0,-2
1511883645546295,3,4,6,3,-1,-5,-5,-2
1511883645561335,0,3,-10,-9,-8,-4,0,1
1511883645561335,-4,3,5,3,-4,-5,3,-5
1511883645569356,2,-1,4,-4,-9,-2,1,-3
1511883645569356,0,0,-13,-1,1,2,1,2
1511883645584395,4,-3,-7,-1,-4,-3,-3,-1
1511883645584395,4,3,8,1,10,3,-4,2
1511883645584395,-10,-11,-9,-8,0,-5,-5,-15
1511883645584395,10,17,19,-3,-8,-1,-1,4
1511883645598935,-28,-9,9,8,-6,0,-2,-10
1511883645598935,6,3,10,7,-3,6,5,6
1511883645605987,3,1,9,-6,-3,-3,2,1
1511883645605987,-10,-12,15,-7,4,-7,-4,-7
1511883645621026,-1,1,52,0,3,-4,0,2
1511883645621026,-7,-22,38,-10,-4,1,-11,-10
1511883645629048,-7,6,35,-4,-3,0,2,7
1511883645629048,-7,-9,19,-8,-10,-2,5,-4
1511883645644088,8,3,11,-8,-10,-3,8,10
1511883645644088,-7,5,-11,6,6,-3,4,2
1511883645645092,-4,-10,-18,10,-1,1,-3,-8
1511883645645092,1,0,-34,-9,-10,0,0,-7
1511883645658125,0,2,-20,-3,-14,5,9,4
1511883645658125,8,10,-3,-1,-6,2,6,7
1511883645666147,10,-11,-17,-2,-5,-3,4,7
1511883645666147,1,-11,-15,7,-1,-2,0,4
1511883645682189,2,-5,-11,6,4,-3,-9,-2
1511883645682189,-16,-2,-26,-15,-16,-4,-4,-1
1511883645689208,-15,4,0,-4,-3,4,-2,0
1511883645689208,-1,5,-9,2,-6,2,3,1
1511883645704252,6,-4,-16,1,-13,-4,2,1
1511883645704252,5,0,-13,1,-6,-1,14,7
1511883645705255,3,15,-12,-11,-4,-1,8,0
1511883645705255,-5,-2,-11,-7,2,5,2,-2
1511883645718792,-7,-2,-9,-5,16,14,3,-18
1511883645718792,6,1,-8,1,-3,-6,-6,-22
1511883645725811,-2,-11,-21,2,5,5,2,-14
1511883645725811,0,6,6,7,-1,1,-4,-14
1511883645740851,-3,1,1,7,1,2,-2,-3
1511883645740851,4,-1,-12,-1,-4,-4,-3,-7
1511883645748872,2,1,-6,2,1,2,-1,8
1511883645748872,2,14,-8,-8,-6,4,-5,0
1511883645763912,-12,-15,-25,-5,6,-5,-4,-7
1511883645763912,-3,11,11,5,6,-4,4,-1
1511883645764915,1,12,-11,2,10,0,2,5
1511883645764915,-1,-8,0,7,23,7,1,3
1511883645802516,2,-8,-14,-1,13,7,-6,1
1511883645802516,9,-2,-6,7,16,-2,-9,-1
1511883645804020,4,-6,-5,-3,7,-6,-7,-5
1511883645804020,3,4,4,4,15,-10,0,8
1511883645824606,1,4,-12,-10,11,-2,8,12
1511883645824606,-7,-1,5,-1,2,-3,5,3
1511883645826611,-2,3,4,3,-7,1,8,-1
1511883645826611,-2,-9,-22,-2,-6,3,7,4
1511883645846690,9,10,3,1,-4,-2,-1,5
1511883645846690,-7,-16,-14,-6,-4,-1,-9,4
1511883645854686,-4,3,-13,-6,-1,3,-13,-3
1511883645854686,5,1,-14,2,6,-9,-14,2
1511883645877756,7,13,14,5,8,8,-4,6
1511883645877756,0,-9,-5,3,-3,6,-5,-1
1511883645878751,3,-1,-1,6,-4,-1,-5,0
1511883645878751,1,-3,-6,1,2,1,0,-22
1511883645899553,0,3,-17,1,2,-1,2,-27
1511883645899553,21,34,19,3,-3,10,5,12
1511883645905563,7,0,23,6,-6,13,-5,10
1511883645905563,12,-4,-13,-14,-11,7,-10,5
1511883645930686,-13,-17,8,0,-7,-1,4,7
1511883645930686,-10,-1,11,1,-3,-4,8,-11
1511883645931693,-1,-19,-15,-10,-4,-14,1,-7
1511883645931693,-15,-8,7,9,7,-12,-5,6
1511883645959943,2,8,5,0,5,-14,-9,6
1511883645959943,-4,-2,-3,-2,1,-16,-1,-1
1511883645961771,-3,6,9,3,13,-16,9,3
1511883645961771,-19,2,7,7,4,-17,6,-2
1511883645982840,-13,-4,-1,-6,2,-12,0,-1
1511883645982840,6,7,-4,-7,3,-8,-6,-6
1511883645983828,-13,-5,-2,1,4,-1,0,-8
1511883645983828,3,15,4,-4,-5,2,1,-5
1511883646005040,5,2,14,2,-8,3,4,-9
1511883646005040,0,-10,3,-6,-12,7,6,10
1511883646006650,-7,8,14,1,-2,-1,-1,12
1511883646006650,-5,-2,-21,-3,6,2,7,-4
1511883646026710,4,6,-17,-7,7,-10,2,11
1511883646026710,-11,-10,-13,-5,7,1,0,-8
1511883646034730,7,0,10,8,-2,-7,-5,3
1511883646034730,0,-6,12,8,-6,0,3,9
1511883646057878,0,-9,-5,-2,-1,0,-4,-12
1511883646057878,-8,-9,-8,-13,-3,-3,-5,-8
1511883646058796,-4,-5,-16,-5,0,6,0,-2
1511883646058796,4,12,16,17,9,9,-1,0
1511883646079845,3,-5,-4,3,-1,5,-5,5
1511883646079845,7,13,0,-4,10,4,7,-1
1511883646085979,-1,-6,-21,-11,6,-5,6,-9
1511883646085979,5,16,5,-13,9,-9,-9,-6
1511883646101025,-5,4,5,4,18,1,-4,7
1511883646101025,-5,-5,-7,-3,6,-1,-11,2
1511883646109589,-3,7,-1,5,7,3,-2,1
1511883646109589,-10,-5,-7,2,8,7,2,2
1511883646132651,4,5,3,9,-6,8,-3,0
1511883646132651,15,0,4,7,-7,-3,0,-14
1511883646135657,6,3,3,-3,-4,2,-1,3
1511883646135657,-2,-9,-2,-7,-5,-3,-7,8
1511883646153706,0,-10,1,-8,5,5,-3,6
1511883646153706,2,-5,-7,-1,-3,5,-5,3
1511883646162730,8,4,4,3,-2,3,-2,-4
1511883646162730,9,-3,9,0,-21,0,-1,-2
1511883646184789,1,1,-7,8,-20,-9,1,2
1511883646184789,-5,-5,-7,8,-14,-1,0,6
1511883646186794,-3,-2,8,5,-14,8,-6,2
1511883646186794,-3,-14,-10,-11,-5,3,-2,-5
1511883646206888,8,21,9,-15,-2,5,4,0
1511883646206888,2,-5,-6,-8,-3,3,-1,-7
1511883646214900,-2,1,-6,-12,-18,-4,0,-5
1511883646214900,-7,-4,-1,-4,-20,-1,0,-2
1511883646236984,-4,-1,6,4,-24,-4,-8,-5
1511883646236984,5,6,-13,3,0,-2,-6,6
1511883646238972,6,-9,-3,7,1,10,-4,2
1511883646238972,-1,-4,3,6,-1,4,2,2
1511883646259017,-7,-4,9,7,-5,3,8,-1
1511883646259017,1,0,-2,4,-3,2,7,-2
1511883646266036,4,-8,10,7,6,-4,6,-1
1511883646266036,8,1,-3,5,4,9,7,4
1511883646281075,7,-4,-2,-3,-2,5,-5,-3
1511883646281075,-11,0,5,-7,-2,1,0,-12
1511883646290100,-10,7,8,-5,-7,-6,-6,-16
1511883646290100,-5,3,11,-6,-4,-5,1,-3
1511883646313167,-6,-11,-11,1,0,4,6,1
1511883646313167,0,-6,-5,-3,-8,4,4,19
1511883646315172,0,-7,-4,-9,-3,-6,4,22
1511883646315172,4,-5,2,-1,8,-6,4,12
1511883646319208,-2,0,-3,-6,79,-6,4,8
1511883646319208,-11,-5,-5,2,44,6,6,0
1511883646320192,-14,-3,-4,-6,-3,8,4,0
1511883646320192,-2,5,-1,5,-19,7,6,-3
1511883646326227,-9,-2,10,13,-54,4,0,0
1511883646326227,9,16,37,9,-30,-6,-6,-1
1511883646327203,-11,-8,-15,-7,-24,-8,-3,0
1511883646327203,-1,-8,3,-8,-21,-3,-2,-3
1511883646335251,-1,-5,-2,-10,-15,-1,-3,-1
1511883646335251,-2,-12,3,-1,-6,3,-4,-3
1511883646336226,13,11,16,6,2,7,0,-5
1511883646336226,5,5,9,0,9,1,-4,-4
1511883646341267,8,-5,-8,-2,1,-3,-5,-1
1511883646341267,-9,-5,5,-1,-5,0,-1,3
1511883646342243,4,-3,0,5,-1,2,-5,0
1511883646342243,-4,-3,2,8,7,6,1,0
1511883646350265,-1,-1,-1,2,5,2,0,0
1511883646350265,-13,-4,-11,-6,5,-2,-7,-3
1511883646350265,-6,2,15,-4,7,-7,-2,4
1511883646350265,-4,-5,-3,-7,0,-9,-8,5
1511883646356307,-3,4,-9,1,-9,-3,-4,-6
1511883646356307,4,4,0,-1,-4,-14,-6,-9
1511883646357283,-1,-10,-37,-2,9,-9,-1,-5
1511883646357283,0,3,-13,-2,8,-7,-5,-4
1511883646364302,1,3,7,-2,-4,-6,2,-2
1511883646364302,-4,-3,-12,-3,4,2,0,10
1511883646365305,12,13,6,1,5,11,3,13
1511883646365305,4,5,-17,1,1,-1,-3,9
1511883646372351,2,5,5,4,0,-7,-6,6
1511883646372351,-3,-9,-14,-6,-3,-5,0,2
1511883646374355,-5,-3,7,5,10,-3,4,0
1511883646374355,0,0,-2,-7,4,2,10,-4
1511883646379343,-5,-8,3,-7,4,-3,3,-9
1511883646379343,-4,-1,2,-1,-3,-6,-10,-8
1511883646380345,-3,2,-2,6,-1,-5,-1,2
1511883646380345,-2,7,0,4,8,5,10,1
1511883646386360,1,1,1,5,7,-1,-2,2
1511883646386360,1,-3,-5,-8,-1,-2,-1,-2
1511883646387364,-4,-1,9,-16,-1,0,-12,-10
1511883646387364,-2,-5,14,-3,-2,4,-10,-9
1511883646401403,-7,0,4,-3,-7,-6,1,-3
1511883646401403,3,2,-4,5,-6,-3,5,-2
1511883646409428,-1,-3,1,8,-8,-3,9,-5
1511883646409428,11,-3,-7,0,-7,-6,0,2
1511883646423465,18,1,-22,-8,-18,-8,-3,3
1511883646423465,9,6,2,3,-6,-13,0,4
1511883646431487,10,1,-3,3,-5,-10,-4,-3
1511883646431487,-1,-6,-9,-8,-5,3,-3,-15
1511883646446553,-2,-4,-3,0,0,8,1,-10
1511883646446553,1,5,2,2,0,2,-1,-8
1511883646447528,-9,7,6,-2,8,1,-3,-12
1511883646447528,-10,-6,-4,-3,7,-8,-1,-13
1511883646460564,0,3,3,0,7,-11,-6,-17
1511883646460564,-3,-3,-7,-4,3,-14,-9,-12
1511883646469588,-10,4,-12,1,-7,-9,-17,1
1511883646469588,-17,2,-9,1,-9,4,-14,13
1511883646483632,-12,-8,-6,-1,3,13,-4,11
1511883646483632,-7,0,7,3,8,17,13,5
1511883646491649,10,0,1,3,8,13,16,-6
1511883646491649,6,-4,2,5,6,2,8,-6
1511883646514711,3,8,-3,0,2,1,5,-7
1511883646514711,1,-1,7,2,2,2,-7,0
1511883646515714,-4,-8,-12,-8,-4,-7,-6,4
1511883646515714,6,-5,-8,6,-5,-8,-5,-3
1511883646520728,-5,12,12,11,-1,6,7,2
1511883646520728,-5,0,1,2,-4,7,3,5
1511883646528748,-2,0,0,-3,-6,7,2,0
1511883646528748,-6,-10,-4,-10,-6,3,2,4
1511883646543789,-2,-1,1,-4,0,-1,0,6
1511883646543789,-1,5,8,3,6,-6,-2,9
1511883646551811,0,0,6,1,0,-5,-9,10
1511883646551811,5,-8,12,-2,0,-6,-6,8
1511883646566856,9,-13,-8,-8,-1,-1,-3,1
1511883646566856,13,12,11,1,0,2,1,4
1511883646567853,5,-4,-10,-2,0,2,7,-5
1511883646567853,-5,5,3,-6,2,3,1,3
1511883646580888,-9,2,5,-4,2,-2,-3,0
1511883646580888,2,-16,-27,-11,-7,0,-3,-7
1511883646588910,0,-4,1,5,16,3,-4,-8
1511883646588910,-3,7,12,2,-5,2,-5,-7
1511883646619541,-4,0,3,-2,-9,3,-8,0
1511883646619541,-11,-1,12,1,-2,3,1,-4
1511883646625557,-8,1,-6,-5,-3,-1,-3,-9
1511883646625557,-6,4,1,5,5,-8,-2,-9
1511883646640597,1,2,-6,0,1,-2,2,-10
1511883646640597,3,1,0,4,3,-3,4,1
1511883646649636,-5,-5,-2,-8,1,-4,7,10
1511883646649636,2,-4,1,-5,10,5,6,7
1511883646672683,5,-10,4,-6,-6,0,3,1
1511883646672683,4,0,-10,-4,-5,8,-5,-2
1511883646675691,8,-6,2,8,-3,6,-9,-5
1511883646675691,1,11,-6,0,-6,0,-3,-2
1511883646678699,-8,1,-4,9,1,2,-1,-3
1511883646678699,-1,-12,-7,0,-12,-4,2,-4
1511883646679701,0,17,14,26,-9,-1,5,-4
1511883646679701,-2,-7,-8,11,-15,-2,2,-11
1511883646686720,3,-1,3,7,-19,-6,0,4
1511883646686720,4,5,14,-3,-10,-6,-7,13
1511883646687723,5,-7,-1,-13,1,-9,-11,12
1511883646687723,12,-8,-10,-8,2,-5,-6,12
1511883646701262,6,-3,-4,-9,16,0,-3,-1
1511883646701262,-4,-1,-5,-12,2,9,-10,-10
1511883646708784,3,3,6,-23,-14,5,-1,0
1511883646708784,-1,-1,-8,-8,7,5,-4,-1
1511883646723822,0,-2,3,-4,10,-1,-1,6
1511883646723822,-4,-7,-1,6,7,-8,6,5
1511883646731845,-3,4,13,-4,-3,-5,10,1
1511883646731845,-5,1,2,-1,-7,-6,10,1
1511883646761924,5,9,0,-7,-4,-4,-3,2
1511883646761924,-3,6,-5,5,7,3,0,3
1511883646763929,1,0,-8,0,-8,2,1,6
1511883646763929,-1,1,6,4,-5,1,0,0
1511883646782981,-2,-8,-13,-1,-8,5,1,-9
1511883646782981,-2,-4,-9,-5,-3,7,3,-4
1511883646793510,-2,0,-1,-5,10,2,1,-7
1511883646793510,3,6,5,-1,1,2,-8,3
1511883646794012,-3,1,10,0,4,2,-4,9
1511883646794012,-7,-8,3,-18,-3,-6,-4,7
1511883646800034,-11,-7,-2,1,4,3,1,3
1511883646800034,-5,1,-5,-3,-1,2,4,-7
1511883646807053,6,4,-9,5,7,3,6,-6
1511883646807053,3,3,-6,2,2,1,-5,-7
1511883646807053,5,-4,-6,0,11,-2,-10,3
1511883646807053,7,-2,6,5,5,5,-1,4
1511883646821090,0,-3,3,8,-1,-1,0,-1
1511883646821090,5,18,-9,11,-3,-7,12,-11
1511883646829113,4,-2,0,1,-3,-4,9,-11
1511883646829113,4,0,-9,4,1,-9,-1,-10
1511883646843149,-14,-2,-16,-10,0,-4,2,-6
1511883646843149,-5,-6,-5,-2,-3,-3,-5,1
1511883646851170,-4,-8,-10,10,-3,1,-12,-1
1511883646851170,-7,-3,4,-3,-20,-4,-7,4
1511883646875351,10,-2,4,3,-10,1,2,5
1511883646875351,0,-3,11,-9,-4,1,6,-4
1511883646876238,2,11,0,8,6,2,11,4
1511883646876238,-5,-3,4,1,8,11,2,0
1511883646881380,-9,-5,3,1,-7,2,-8,-5
1511883646881380,-7,-15,-8,2,-1,10,-6,-1
1511883646889397,3,11,7,-8,-7,2,1,-7
1511883646889397,3,1,-3,3,2,-6,5,3
1511883646903948,6,-6,3,-18,-3,-11,3,-1
1511883646903948,4,-4,9,15,10,-9,3,-2
1511883646911667,3,12,6,4,4,-1,1,-1
1511883646911667,0,6,7,-6,-19,-5,1,1
1511883646926792,-6,-2,-9,4,-18,-2,0,1
1511883646926792,-4,3,11,8,2,3,-2,-3
1511883646927682,-7,-5,-8,4,11,0,-9,2
1511883646927682,-3,-1,6,9,19,1,-3,-5
1511883646940720,3,2,-5,-9,14,-4,-4,-3
1511883646940720,8,1,8,-6,-10,0,6,1
1511883646948924,4,-1,-8,3,9,-1,3,10
1511883646948924,4,5,-5,-4,1,-7,-4,10
1511883646978907,0,1,4,-4,3,-14,-1,17
1511883646978907,-5,8,8,7,11,-8,0,12
1511883646987971,-10,-16,-4,-13,-14,0,3,8
1511883646987971,-8,2,8,2,3,2,6,0
1511883647010791,-1,8,-6,5,1,-6,-2,-2
1511883647010791,4,5,-4,-13,-3,0,0,-9
1511883647012667,-2,2,7,-2,-9,-5,2,-4
1511883647012667,-5,-12,-13,-11,3,-1,-2,1
1511883647030901,-6,-7,12,2,-4,-3,-1,-2
1511883647030901,0,-10,-1,1,-4,-6,-3,-7
1511883647040739,0,-11,1,-5,-15,-3,2,-6
1511883647040739,3,5,-3,2,-12,0,4,-4
1511883647041856,-3,-8,-4,6,5,6,0,-10
1511883647041856,4,-4,-13,11,14,-3,-11,-8
1511883647046876,-4,2,-1,1,0,-3,-9,-2
1511883647046876,-7,2,-2,3,-11,-4,-1,2
1511883647047879,0,0,2,5,9,13,3,6
1511883647047879,-5,-10,-15,-10,-1,4,3,13
1511883647054931,-3,-2,0,6,3,3,0,4
1511883647054931,0,-9,5,-7,3,2,-9,-3
1511883647068993,-2,5,8,-8,1,-3,-8,-9
1511883647068993,2,3,0,4,6,1,-8,-5
1511883647077085,11,-6,-3,-5,-1,-9,-8,-7
1511883647077085,4,-3,8,17,1,3,-2,-6
1511883647084028,7,-3,-3,5,-14,-1,-2,-13
1511883647084028,11,1,9,-7,-25,-9,10,-12
1511883647092614,-1,-4,-8,-3,-19,-4,6,-6
1511883647092614,-2,10,-12,-12,-19,-4,1,2
1511883647106204,3,-4,-18,-13,-22,-7,5,9
1511883647106204,5,-5,-6,9,1,1,8,4
1511883647115133,5,6,2,-4,1,-6,3,-2
1511883647115133,-12,1,1,3,2,-4,9,0
1511883647145210,-20,-11,-5,-3,6,-4,-5,3
1511883647145210,-5,9,9,9,-3,-5,-2,8
1511883647146213,5,1,4,12,2,1,-1,-1
1511883647146213,2,-2,-8,-2,-5,0,2,-6
1511883647167267,3,5,-4,-5,1,8,5,-2
1511883647167267,1,5,2,-10,-5,5,2,6
1511883647169297,6,-2,-2,-10,0,-1,-11,9
1511883647169297,10,-4,-8,-9,4,4,-10,5
1511883647188325,4,11,14,10,3,-10,-8,9
1511883647188325,-8,-1,-4,-3,12,11,-4,6
1511883647199357,-11,1,-1,-3,21,3,-5,-2
1511883647199357,-2,1,10,2,27,-2,-12,1
1511883647219412,1,4,-2,1,25,-7,-9,-3
1511883647219412,9,-4,-9,-10,35,-2,-1,2
1511883647221417,-15,-6,1,8,39,0,4,12
1511883647221417,5,-2,14,10,49,3,-3,3
1511883647226457,-7,-11,-3,5,52,17,2,-9
1511883647226457,-4,-2,2,4,30,5,-1,-4
1511883647227432,4,-1,-6,-7,26,3,9,-6
1511883647227432,-6,-10,-9,-5,8,-3,8,8
1511883647234478,-7,4,4,3,-9,2,5,18
1511883647234478,-8,-15,-4,-2,-22,6,-1,12
1511883647236457,-4,-3,10,-7,-26,3,-2,3
1511883647236457,0,-6,-10,-2,-16,9,-4,-2
1511883647248515,5,4,-6,-5,-14,-2,1,-12
1511883647248515,-2,-9,3,-11,-24,-10,-4,-14
1511883647257512,6,13,11,-2,-17,6,-7,3
1511883647257512,0,0,6,3,10,5,-6,0
1511883647263552,-29,-17,-4,0,10,5,-3,13
1511883647263552,3,4,21,8,9,6,-7,5
1511883647272552,-4,-9,-4,-6,-12,8,-2,-2
1511883647272552,-7,9,7,-4,-29,-5,-2,-7
1511883647285610,-9,0,11,-5,-23,-6,4,-5
1511883647285610,-18,12,-3,2,-16,-12,8,-19
1511883647295137,-9,6,-14,4,-19,-3,5,-28
1511883647295137,-4,3,-19,5,-3,1,4,-18
1511883647308728,5,-13,-21,2,1,0,-1,-11
1511883647308728,-7,-11,-17,-4,-3,0,2,6
1511883647317749,9,3,13,7,13,-8,-1,11
1511883647317749,0,-3,-19,-4,-5,-11,0,9
1511883647323765,11,13,6,5,-4,-6,-6,6
1511883647323765,5,0,4,2,-10,-1,-9,13
1511883647332765,-6,-7,1,1,-15,7,-4,25
1511883647332765,9,3,14,-1,-14,-7,11,22
1511883647345827,17,-3,0,-3,-6,-5,6,8
1511883647345827,8,-1,9,-2,-4,-7,-6,7
1511883647354824,9,-6,-7,-11,-23,-7,-8,19
1511883647354824,5,-1,13,4,-5,5,-3,12
1511883647368888,-8,-10,-6,-7,-19,5,-2,28
1511883647368888,-4,-9,1,-1,1,-1,0,34
1511883647377896,8,-14,1,-15,-16,2,0,27
1511883647377896,2,-2,-1,-6,-16,10,12,19
1511883647383901,1,-8,4,4,-9,2,2,9
1511883647383901,-6,5,18,14,-7,0,2,5
1511883647392453,-5,-6,-19,10,-3,-5,-3,-12
1511883647392453,1,3,0,4,-12,-9,-7,-14
1511883647405988,-4,-6,-17,0,-13,-4,-5,-28
1511883647405988,-3,-4,-56,-7,-19,-7,-5,-21
1511883647414606,-8,-13,-30,-1,-12,-3,-1,-32
1511883647414606,-6,1,-4,-7,-5,-2,-8,-20
1511883647428644,15,2,18,-7,4,-2,-4,-14
1511883647428644,5,5,33,-2,0,-7,6,-26
1511883647437668,-4,3,20,6,6,0,13,-25
1511883647437668,-9,-13,6,-3,0,3,3,-24
1511883647443684,-6,11,11,3,-2,8,-3,-15
1511883647443684,-7,-4,2,1,10,7,-13,-27
1511883647452708,-3,15,1,-11,9,1,-3,-19
1511883647452708,-2,-10,2,3,25,-6,-3,-17
1511883647465769,18,-7,-7,6,15,-12,3,-20
1511883647465769,-2,5,-9,0,2,-4,3,-36
1511883647474767,5,4,0,8,0,-4,6,-32
1511883647474767,5,10,2,-1,-8,-3,2,-25
1511883647488828,13,4,5,-5,-5,6,4,-18
1511883647488828,3,-3,15,4,-11,-6,4,5
1511883647497853,-10,-14,-6,1,4,-2,4,-3
1511883647497853,-2,-7,-11,-13,-1,-3,-1,-9
1511883647503870,4,23,10,-2,-1,5,1,6
1511883647503870,-4,1,-3,-7,-4,13,-3,-1
1511883647512895,1,13,13,1,-14,5,-1,3
1511883647512895,2,-7,-9,-2,-16,1,-8,2
1511883647525957,-7,5,-10,2,-17,2,-3,-2
1511883647525957,5,5,2,8,-2,6,-1,4
1511883647534959,6,3,0,-2,-6,0,-9,7
1511883647534959,2,4,17,2,5,2,-11,1
1511883647548015,-7,-16,9,5,11,-6,-5,11
1511883647548015,-30,-2,6,-8,12,-4,-2,-5
1511883647557040,-1,10,1,0,17,-7,-1,-1
1511883647557040,-9,-8,-21,7,9,-4,5,20
1511883647563028,-9,3,-9,0,-5,0,2,2
1511883647563028,20,5,-14,15,6,7,7,-4
1511883647572076,4,-6,-14,5,7,5,0,-5
1511883647572076,5,-1,-30,3,-6,3,2,-5
1511883647586089,20,9,-14,-1,-2,1,9,7
1511883647586089,-3,-3,-12,-7,2,-8,3,1
1511883647595117,7,13,6,-8,4,-13,-5,-1
1511883647595117,22,-6,-8,-15,9,-6,-1,12
1511883647608178,-42,-5,24,-7,3,-7,-7,-19
1511883647608178,8,-17,-8,-10,6,4,-6,-1
1511883647625251,-14,-8,13,7,12,0,-8,8
1511883647625251,-14,-4,14,-1,3,1,-3,7
1511883647626227,-2,15,4,-10,-11,-4,1,10
1511883647626227,-7,-2,7,-12,-11,-5,-3,0
1511883647632243,-4,-7,-14,-3,-4,-4,2,-5
1511883647632243,-10,0,-10,-3,-1,-2,12,-2
1511883647646303,-9,-6,-1,0,5,5,1,-15
1511883647646303,-5,2,-8,-4,1,0,-4,12
1511883647655330,11,-2,1,-2,3,7,1,6
1511883647655330,3,7,7,1,-5,-3,-11,7
1511883647668338,-20,-12,-10,1,-1,-4,-6,3
1511883647668338,4,18,-6,-1,4,-8,1,11
1511883647677371,-16,-10,2,10,3,-6,3,0
1511883647677371,-13,-6,-3,2,-2,-8,8,14
1511883647683379,15,13,-7,3,7,0,0,10
1511883647683379,-6,-18,-5,-1,4,15,0,6
1511883647692938,-3,3,-4,0,4,4,0,-11
1511883647692938,-4,29,-12,7,4,-1,0,-6
1511883647705967,2,-4,-32,-2,1,-12,1,4
1511883647705967,4,-8,-25,-11,-7,-9,5,-17
1511883647715064,14,4,-2,-4,-3,0,10,19
1511883647715064,-16,-4,-5,-2,1,0,2,-7
1511883647728125,20,-5,3,0,-3,1,5,10
1511883647728125,-11,-4,4,8,8,-9,-12,-6
1511883647737121,8,2,-1,2,17,-13,-1,35
1511883647737121,12,3,12,0,24,-5,-10,-7
1511883647743165,8,-8,-1,-5,26,8,-7,-8
1511883647743165,4,13,8,3,22,5,-17,7
1511883647752163,-1,-7,-5,-4,8,-1,-90,-28
1511883647752163,-6,-13,6,0,0,-4,-97,-1
1511883647766227,10,-4,14,-2,0,-12,-81,3
1511883647766227,-12,-20,4,-5,-6,-11,-33,-4
1511883647775224,-38,6,0,-9,8,-5,4,-18
1511883647775224,10,7,16,3,15,-1,9,-25
1511883647788285,12,-2,-3,9,1,3,20,-16
1511883647788285,21,0,-4,9,-1,5,29,-8
1511883647797813,30,-11,-10,2,-10,6,38,13
1511883647797813,37,-2,2,-2,-22,7,46,5
1511883647803853,-8,-5,10,-6,-32,2,22,-1
1511883647803853,16,6,13,-4,-48,-4,16,9
1511883647812379,2,-4,7,0,-51,-2,22,3
1511883647812379,15,7,6,0,-39,-1,26,4
1511883647826415,-6,-6,-8,0,-26,-3,24,9
1511883647826415,-4,13,10,2,-3,-5,21,-3
1511883647834465,-25,2,11,-2,-7,3,24,0
1511883647834465,-17,-2,0,1,-4,4,10,0
1511883647848502,-6,2,-13,-1,-1,6,7,-1
1511883647848502,-16,-9,-14,-2,-6,5,-4,12
1511883647857505,-5,1,-3,-5,-4,-3,-1,-6
1511883647857505,-12,-1,-6,-2,-6,3,17,-1
1511883647863551,-5,6,5,-10,-5,6,17,-2
1511883647863551,15,11,1,1,-9,1,20,10
1511883647872539,17,8,-3,3,-3,-4,21,15
1511883647872539,-5,-5,22,-2,1,-5,19,9
1511883647885590,2,-4,-1,3,17,-4,13,-2
1511883647885590,-10,9,38,7,15,-1,5,-9
1511883647902651,-36,-12,4,5,17,4,1,-13
1511883647902651,-11,1,4,2,12,4,13,3
1511883647908820,-39,4,13,2,-1,8,23,-1
1511883647908820,-18,-2,-2,-7,-3,4,14,11
1511883647917827,-21,0,30,-3,4,-1,8,13
1511883647917827,-8,-1,39,-4,1,3,12,-7
1511883647923860,15,1,41,-4,-1,-3,27,7
1511883647923860,3,13,5,9,6,-4,26,0
1511883647932859,6,11,-32,6,0,-3,18,-5
1511883647932859,-19,1,-35,1,7,-8,-3,-6
1511883647945926,30,10,-10,12,5,1,-12,2
1511883647945926,-5,-10,-11,2,1,6,-18,-11
1511883647954926,11,13,7,-12,1,0,-15,6
1511883647954926,7,-4,-17,-5,10,-2,-12,4
1511883647968967,-7,6,-14,-14,-4,-6,-24,4
1511883647968967,13,-1,-98,-2,-7,-6,-19,-2
1511883647977981,20,-12,-68,-5,4,2,-25,8
1511883647977981,0,-1,-9,-8,3,-4,-19,11
1511883647983997,-15,-1,46,1,3,-40,-22,-1
1511883647983997,-5,-16,39,-6,5,-28,-18,3
1511883647992621,11,6,62,12,9,-18,-11,-1
1511883647992621,-5,-11,29,4,2,24,-9,13
1511883648006160,1,1,21,1,3,42,-5,4
1511883648006160,2,-1,-36,-13,2,36,-2,-4
1511883648014727,-38,-10,-39,-8,8,21,-12,-16
1511883648014727,26,-2,-46,-9,12,18,-9,-8
1511883648028753,4,11,-21,0,21,12,-3,5
1511883648028753,0,-8,1,4,20,1,-11,-1
1511883648037776,9,3,13,-2,3,2,-6,8
1511883648037776,6,5,12,11,6,-6,-6,9
1511883648043999,-33,-12,-15,-2,-19,-7,-16,2
1511883648043999,16,12,14,11,-3,6,-8,7
1511883648052817,2,-3,19,3,-21,4,-5,-6
1511883648052817,-10,14,10,7,-12,-9,-9,-16
1511883648066033,11,-12,-23,-2,-11,-7,1,-18
1511883648066033,3,14,14,-2,-17,-1,9,9
1511883648074877,6,-6,-16,-3,-18,2,3,9
1511883648074877,7,-12,-26,-10,-15,-2,-2,12
1511883648088940,4,-5,-25,-10,13,11,0,2
1511883648088940,-4,-4,-3,-10,7,1,2,-2
1511883648097471,7,-6,-4,5,-1,2,-3,-15
1511883648097471,-11,-2,3,11,-9,1,-8,-13
1511883648112650,11,-4,30,8,-4,-5,-8,-7
1511883648112650,5,-13,31,-2,5,0,-5,-2
1511883648113652,7,-5,29,-3,-7,-4,3,-1
1511883648113652,-2,-1,29,-10,-2,-10,-2,2
1511883648125712,-9,12,29,10,9,-3,0,7
1511883648125712,-5,4,26,-2,-5,-8,1,5
1511883648134711,-6,4,18,1,-10,-4,3,-3
1511883648134711,-12,-6,-8,-7,-10,-5,2,3
1511883648148746,4,-10,-17,0,-15,-10,0,-2
1511883648148746,-4,-20,-10,0,3,-7,-4,-1
1511883648157770,8,18,-13,5,10,-11,-1,6
1511883648157770,24,7,7,7,8,0,5,0
1511883648179855,4,9,-6,-4,5,2,-1,4
1511883648179855,-6,4,-11,3,-3,1,-4,-9
1511883648181834,-1,-3,-11,-2,5,-6,-2,3
1511883648181834,-3,1,-14,0,11,-5,-1,-5
1511883648185846,-3,-5,-20,-6,2,1,2,4
1511883648185846,7,4,1,1,1,2,-4,1
1511883648195373,16,-2,-10,-4,-1,3,-7,0
1511883648195373,-3,5,5,8,-3,6,-10,-4
1511883648208438,13,-9,-6,-5,-11,-5,-8,-3
1511883648208438,1,-8,-14,-6,-4,1,-1,-3
1511883648217464,5,-14,-1,-7,3,-7,3,-4
1511883648217464,-2,-18,0,-7,3,-7,0,-5
1511883648232529,-3,9,-4,-6,-3,1,5,-1
1511883648232529,1,2,18,3,-6,-6,-1,-6
1511883648233505,-9,-6,1,4,2,1,1,-3
1511883648233505,1,10,2,7,-7,-4,2,-4
1511883648245564,-1,-3,-19,13,3,-5,5,-7
1511883648245564,0,13,9,5,-15,-7,1,-6
1511883648254561,19,8,-18,-9,-4,1,2,20
1511883648254561,-3,-14,-10,-12,-7,-1,-3,-2
1511883648268599,-9,9,5,2,3,-5,-1,3
1511883648268599,-27,-3,-5,7,9,3,7,7
1511883648277622,-14,7,12,2,6,-4,8,3
1511883648277622,2,-17,-18,10,11,1,3,4
1511883648292662,3,3,-15,-2,-8,-1,-1,1
1511883648292662,-10,-2,1,2,-9,3,5,5
1511883648294168,-2,-2,-15,0,3,1,6,5
1511883648294168,-11,2,-3,5,12,3,2,7
1511883648306201,-3,-10,-7,2,6,0,-5,-1
1511883648306201,3,-15,-7,1,3,7,-6,1
1511883648315238,6,8,9,-3,-10,11,-3,10
1511883648315238,5,12,13,-14,-15,-2,8,10
1511883648328272,13,-4,-2,-5,-2,-2,2,18
1511883648328272,-3,7,1,-6,-1,-7,-8,-4
1511883648337336,-11,-4,-1,4,0,5,-4,-14
1511883648337336,7,10,-10,0,-1,9,5,53
1511883648352337,-32,-1,22,4,6,0,4,104
1511883648352337,6,-2,-7,-2,3,-5,6,98
1511883648354341,-5,-5,10,-2,3,-6,-2,79
1511883648354341,-7,5,11,0,-3,-12,-1,18
1511883648366400,-10,-25,-27,-2,-8,-7,7,-34
1511883648366400,14,35,36,9,-9,-6,2,-47
1511883648374427,-14,-9,-15,-8,-11,3,-6,-79
1511883648374427,1,-5,1,5,-8,3,-11,-64
1511883648388460,5,-1,-10,-5,-3,-3,-18,-61
1511883648388460,-8,-28,-18,-5,0,-9,-12,-53
1511883648397492,22,23,1,5,3,-11,-5,-42
1511883648397492,2,2,3,-4,3,-3,1,-30
1511883648412578,4,-4,10,-3,4,0,5,-25
1511883648412578,5,17,-17,-6,6,4,5,-18
1511883648413582,-7,-9,0,-3,0,5,8,-10
1511883648413582,-7,-2,2,-2,2,-3,3,-3
1511883648425615,16,12,19,9,-3,1,-3,-13
1511883648425615,-28,-2,-3,3,-7,-6,-6,-11
1511883648434638,0,-4,7,2,-7,-7,-12,6
1511883648434638,1,14,-3,6,-10,7,-8,9
1511883648457701,-9,-11,-7,-1,-2,12,-10,-9
1511883648457701,4,-2,5,-1,3,11,-6,-3
1511883648458677,-10,-6,0,0,-5,-3,6,-10
1511883648458677,-9,-5,15,-2,2,-8,4,-17
1511883648472741,4,-5,-5,4,-1,0,2,-5
1511883648472741,10,-5,-1,26,1,1,-4,0
1511883648473716,2,5,-2,20,10,-3,-5,-28
1511883648473716,0,-12,-6,16,11,-4,0,-32
1511883648485777,-1,10,-2,6,8,-9,3,-16
1511883648485777,0,-3,16,11,22,-5,2,-9
1511883648495307,8,-6,-5,9,17,-5,-5,43
1511883648495307,3,18,5,3,8,-7,-3,40
1511883648508871,15,-3,-8,-8,11,1,4,59
1511883648508871,-7,-3,-10,-15,6,6,-2,46
1511883648517920,-1,-5,-5,-16,6,0,-2,27
1511883648517920,-4,-13,-10,-15,0,-7,0,14
1511883648531959,9,15,10,-2,8,2,8,-4
1511883648531959,19,-4,6,-15,-4,-6,17,5
1511883648533939,0,-2,18,-3,2,-2,13,-2
1511883648533939,-1,-4,16,-9,-5,-9,2,2
1511883648545997,-10,-8,12,-11,-11,-9,-6,-6
1511883648545997,9,-5,-9,-11,-2,-14,-5,-18
1511883648554993,2,7,4,-3,-5,-6,6,-9
1511883648554993,-5,-6,-10,1,4,5,9,-13
1511883648577082,-6,1,0,4,4,8,7,-14
1511883648577082,-3,1,-51,-5,9,11,-2,-6
1511883648579059,-5,-1,-38,-7,7,6,-1,-7
1511883648579059,-3,0,-35,-10,2,18,-1,-1
1511883648592120,-8,1,-20,-7,-3,5,-4,1
1511883648592120,-2,6,-4,-3,-11,7,-6,5
1511883648594101,-6,-4,7,1,-17,0,-7,3
1511883648594101,0,7,-2,-3,-17,1,-2,1
1511883648606156,23,6,16,-6,-10,5,-6,-16
1511883648606156,-10,-2,14,-6,-8,0,-3,-21
1511883648614739,-3,-1,3,3,-10,3,-4,-13
1511883648614739,-5,1,-3,2,-7,-1,-8,-5
1511883648628763,3,-5,-15,-3,-18,0,1,11
1511883648628763,-1,1,1,-6,-24,-1,0,4
1511883648637813,4,0,10,-7,-5,4,4,2
1511883648637813,2,-7,1,-1,0,-4,8,-8
1511883648651851,-6,-6,-4,-1,0,-6,6,-7
1511883648651851,10,-1,-1,-5,-6,-4,8,-9
1511883648653831,-12,-3,5,-1,-5,-2,2,-7
1511883648653831,1,7,5,0,3,4,-8,0
1511883648665861,-14,-1,5,1,3,4,-9,-2
1511883648665861,-3,-1,4,10,12,1,-2,7
1511883648674886,6,-10,6,3,7,4,5,-2
1511883648674886,10,-4,-3,-1,-9,-10,4,-5
1511883648688922,1,3,-1,6,-6,-9,9,-6
1511883648688922,-1,-4,-4,-6,-6,-3,-5,-6
1511883648697480,-10,-1,-6,1,-1,-8,-3,-6
1511883648697480,-5,3,9,-8,-5,-1,-5,0
1511883648712070,-7,-5,2,-13,-7,2,5,-1
1511883648712070,-9,3,17,-2,5,0,6,4
1511883648714050,1,-1,16,-1,8,1,0,-6
1511883648714050,3,-12,-1,-5,3,-3,-6,-3
1511883648735105,4,6,8,-1,-1,-7,-11,2
1511883648735105,-9,-9,-10,-18,-1,-18,-8,1
1511883648736126,-2,-2,1,-2,-1,4,1,1
1511883648736126,0,4,4,-15,1,-2,-5,-1
1511883648748165,3,5,4,-1,-3,15,2,-7
1511883648748165,-4,-1,-12,-13,1,15,6,1
1511883648757165,-3,3,-4,-10,-8,-5,-12,1
1511883648757165,-4,-1,1,11,4,4,0,-2
1511883648772205,-7,-13,-17,6,2,-4,-4,2
1511883648772205,-2,2,1,18,6,9,0,-2
1511883648774237,8,0,-18,-3,-25,-12,-7,7
1511883648774237,-1,9,12,0,-9,10,-5,-6
1511883648786241,-1,-9,-30,-6,-5,9,0,0
1511883648786241,-2,-2,26,15,-1,12,3,3
1511883648795267,7,-5,-13,-8,3,4,1,-4
1511883648795267,2,0,-3,-6,10,-4,1,0
1511883648808802,12,0,6,-13,-5,-11,-5,5
1511883648808802,6,1,-6,4,-9,-9,-4,-1
1511883648817328,-6,13,9,20,11,16,10,0
1511883648817328,-3,1,-4,11,-17,0,8,-5
1511883648832397,-4,22,4,10,-1,-1,5,0
1511883648832397,4,-3,-15,-2,-9,-4,5,3
1511883648834402,8,-11,-6,-6,-8,-8,-4,5
1511883648834402,4,9,8,1,2,-9,-5,-7
1511883648845429,-1,-9,-3,0,-3,-11,-3,-13
1511883648845429,2,-6,8,-1,-8,-6,-9,-12
1511883648855464,-2,0,6,2,-7,-10,-5,-1
1511883648855464,14,0,3,9,2,-3,6,1
1511883648868467,-1,12,-6,-1,5,1,10,8
1511883648868467,-4,5,12,0,10,-4,2,5
1511883648877488,-8,-8,7,-1,11,12,0,-2
1511883648877488,-13,-11,8,-1,4,-3,-6,0
1511883648891651,-8,-3,-1,5,7,-11,-9,-9
1511883648891651,0,10,2,5,-2,-4,-4,-3
1511883648898677,0,4,1,7,-1,-2,5,-6
1511883648898677,-7,-11,-30,-9,-7,3,-5,1
1511883648906068,5,1,8,4,3,13,-4,-5
1511883648906068,8,0,10,1,1,-1,-6,3
1511883648915150,5,-2,9,-3,2,12,-12,2
1511883648915150,-6,0,24,4,-5,11,-8,-8
1511883648928185,-12,-6,12,-7,-3,-1,3,0
1511883648928185,-1,20,19,-6,-9,-4,8,5
1511883648937232,-3,5,-16,-2,11,-7,17,9
1511883648937232,1,-8,-11,-3,-1,-5,13,17
1511883648951249,6,-10,-1,1,6,-2,-3,12
1511883648951249,9,-8,-20,-2,-1,3,-7,5
1511883648958267,3,-1,8,-7,-1,13,-5,3
1511883648958267,-4,-3,-6,-2,3,2,3,-1
1511883648990355,-3,4,0,4,1,0,3,1
1511883648990355,-5,3,2,0,4,-3,4,-1
1511883648991358,5,4,-5,0,6,-7,1,-3
1511883648991358,14,-1,-13,4,9,-9,-7,-2
1511883649012184,7,-2,9,7,3,-4,-9,-6
1511883649012184,3,1,-3,6,3,-5,0,-6
1511883649020221,1,-2,-7,1,-5,3,-2,-2
1511883649020221,3,0,4,-2,-4,3,0,6
1511883649042440,6,-3,7,4,-3,2,-5,5
1511883649042440,9,-11,-22,-7,-3,8,-3,1
1511883649044252,10,-1,12,-1,-2,-1,-3,-6
1511883649044252,34,-1,-4,-7,-4,-4,0,0
1511883649049381,30,-8,-6,-4,6,-2,-2,1
1511883649049381,33,-4,5,1,-1,-3,-3,-5
1511883649050267,20,-8,-7,6,3,-16,-1,-5
1511883649050267,7,-2,8,12,-1,-10,3,-4
1511883649057403,-4,3,-1,4,-7,-5,-4,-9
1511883649057403,-18,-4,10,0,-1,-8,2,1
1511883649059408,-24,0,5,0,2,-5,-2,8
1511883649059408,-20,-1,-2,-5,-4,-4,-5,3
1511883649071326,-23,1,6,-6,-6,-2,2,-3
1511883649071326,-14,-2,-9,0,-2,5,-7,-2
1511883649078366,-12,0,-13,7,4,13,4,-7
1511883649078366,-25,4,0,-4,5,14,3,0
1511883649094949,-23,2,-15,-11,1,9,-2,6
1511883649094949,-41,-3,-8,-4,2,-1,-2,-1
1511883649096938,-35,5,-7,-3,0,-3,-9,12
1511883649096938,-40,5,7,-9,-10,-3,-5,7
1511883649108470,-38,-1,1,7,1,1,2,-2
1511883649108470,-29,5,-14,0,0,10,3,-5
1511883649117167,-20,0,-5,-5,-19,2,-5,-5
1511883649117167,-17,-3,3,10,6,12,1,-7
1511883649131233,-4,-2,-2,-12,-20,-10,7,4
1511883649131233,3,-2,7,7,8,0,13,8
1511883649138223,9,6,2,7,6,4,11,3
1511883649138223,11,0,-6,-21,-9,8,6,3
1511883649154266,13,-2,-2,2,6,8,-2,-3
1511883649154266,11,-4,3,-4,-5,6,2,-12
1511883649156271,11,2,-2,-10,-4,0,3,-8
1511883649156271,6,-5,-9,8,10,-2,-1,-7
1511883649168302,13,4,2,7,3,-6,4,-7
1511883649168302,12,1,8,-3,10,7,2,-1
1511883649177328,11,0,9,6,-3,-2,-3,36
1511883649177328,5,-1,-3,10,3,5,2,44
1511883649191391,9,-8,-4,1,-3,7,3,42
1511883649191391,9,-2,-6,7,0,-7,-5,22
1511883649198412,5,2,-9,-15,3,-3,3,-1
1511883649198412,6,2,-7,-12,1,-6,-6,-5
1511883649214477,7,3,-6,-14,-10,-5,-15,20
1511883649214477,13,-4,2,-10,-17,-3,4,39
1511883649216460,11,-2,6,0,-13,-8,7,45
1511883649216460,2,-2,7,5,11,-1,28,19
1511883649228491,-6,-5,-5,6,20,7,20,-8
1511883649228491,-10,-7,-14,-6,-4,2,3,-20
1511883649237515,-6,4,10,4,2,-7,-2,-17
1511883649237515,9,4,-13,5,8,-8,-4,-2
1511883649251553,3,5,4,-1,13,-5,-9,-13
1511883649251553,5,6,-7,3,3,-8,-5,-26
1511883649258598,4,-3,-10,-6,2,-5,-10,-37
1511883649258598,-4,0,5,-2,-1,0,-10,-34
1511883649274643,4,4,7,11,2,-3,-9,-22
1511883649274643,7,0,6,5,-1,-2,-10,-11
1511883649276646,11,-9,0,3,-7,-4,-1,-15
1511883649276646,0,-9,-8,-3,-4,-6,1,-8
1511883649288678,1,-6,6,-3,-5,-10,8,-2
1511883649288678,-4,-2,6,-4,10,-6,10,-2
1511883649297679,-11,0,2,-7,-3,-4,4,4
1511883649297679,-1,10,13,-4,-8,-3,-6,2
1511883649311225,-7,6,3,-2,-3,-2,-1,-10
1511883649311225,-4,7,3,1,17,4,-5,-10
1511883649318244,10,6,-24,-9,-14,-19,-13,-9
1511883649318244,2,1,6,4,18,5,-5,0
1511883649334286,2,-3,-14,-8,10,8,-2,-3
1511883649334286,-1,-6,-5,4,13,7,-1,-1
1511883649336291,-1,-9,-4,-9,-18,-4,-2,-10
1511883649336291,5,7,13,16,14,18,2,-5
1511883649348348,-3,-6,-5,3,13,6,-6,8
1511883649348348,-3,-1,0,-8,-17,3,-1,10
1511883649357348,-5,-7,7,-2,-13,-9,2,9
1511883649357348,-8,-4,-4,7,-8,-22,-5,1
1511883649371412,-2,-2,9,-6,1,-10,-8,-1
1511883649371412,-5,-13,-3,-8,15,-1,-14,-5
1511883649378404,10,12,5,-10,-35,-7,-17,-7
1511883649378404,9,3,11,0,-1,-5,-10,-4
1511883649394977,-8,-11,-1,1,-25,-7,-9,-8
1511883649394977,5,6,5,11,1,-2,-10,-9
1511883649396481,-12,3,-6,13,20,4,-8,-17
1511883649396481,-4,-3,-11,-6,-4,-7,-16,-15
1511883649409015,10,0,-3,-1,-5,1,-16,-10
1511883649409015,9,-4,-6,-4,-12,0,-14,-7
1511883649417067,-2,-9,-2,9,9,6,-8,5
1511883649417067,0,0,-18,-4,-5,-2,2,11
1511883649432131,2,6,10,-2,4,2,6,16
1511883649432131,-7,10,11,2,-17,-7,2,16
1511883649438143,-14,-4,-2,2,29,6,9,6
1511883649438143,8,1,3,-11,0,-3,0,-13
1511883649455188,-11,-7,-7,-1,-14,-4,5,-22
1511883649455188,9,-4,3,0,13,0,1,-14
1511883649456167,9,-1,9,1,4,6,-7,-14
1511883649456167,11,-7,-9,0,-12,2,-10,-16
1511883649468225,4,10,7,8,-3,9,8,-15
1511883649468225,-4,1,-5,-1,-12,1,12,-5
1511883649477223,-5,-4,-11,-1,4,10,15,0
1511883649477223,-8,-9,-2,-2,-5,-4,9,-16
1511883649491288,9,-4,-18,-3,11,-4,7,22
1511883649491288,-2,-1,-11,9,0,-11,5,11
1511883649498812,10,5,-8,5,6,-7,6,-2
1511883649498812,-10,2,-4,1,4,1,12,4
1511883649514355,-2,16,17,3,3,4,19,-4
1511883649514355,-2,6,2,-11,2,0,23,7
1511883649516359,4,-3,10,-4,5,5,20,-4
1511883649516359,-29,-9,5,-8,2,0,17,9
1511883649528392,1,-17,-9,-7,-1,-9,15,-3
1511883649528392,-1,10,7,5,-4,-6,5,5
1511883649537416,-3,-14,-2,-4,-11,0,-3,-3
1511883649537416,6,3,5,-2,-11,-8,-4,3
1511883649551479,-2,-3,-3,-2,-4,4,-2,1
1511883649551479,0,-3,1,-7,-2,5,-10,-8
1511883649558503,-3,1,-1,0,-4,-8,-10,-8
1511883649558503,3,15,1,1,-11,-5,-13,-6
1511883649574513,-7,11,13,0,2,-13,-8,-20
1511883649574513,2,-13,-12,-4,0,4,-3,9
1511883649576519,-2,-1,16,8,11,19,9,-2
1511883649576519,-1,-22,-14,-1,-4,2,-2,0
1511883649588551,-2,-5,7,-6,-5,1,-5,2
1511883649588551,-1,0,-1,-9,0,-5,-9,0
1511883649597583,0,-8,-3,-3,-1,-3,-3,15
1511883649597583,7,1,24,3,-3,-1,0,8
1511883649611644,-9,-5,-2,9,-7,-5,-5,3
1511883649611644,-6,-3,8,5,-6,-5,-8,-3
1511883649618690,-7,5,-2,2,8,-1,-9,3
1511883649618690,3,-3,-15,-3,2,-11,-13,5
1511883649634729,2,-6,-25,6,3,-2,-5,8
1511883649634729,7,2,-4,-3,-2,-5,7,-10
1511883649636734,-22,-3,-6,-3,-8,-11,4,-2
1511883649636734,-7,-4,-1,0,5,5,10,18
1511883649648770,6,-1,-17,-3,-6,2,-8,26
1511883649648770,-4,-13,-2,-7,-12,-4,-2,14
1511883649657794,1,6,13,3,-8,2,2,5
1511883649657794,7,0,-2,-9,-7,3,9,2
1511883649671831,-11,-5,2,0,-8,3,-2,-7
1511883649671831,-8,18,-13,7,0,15,-1,-10
1511883649678850,27,-5,-6,7,4,6,-5,13
1511883649678850,-7,3,-2,1,8,-6,3,-6
1511883649694865,6,13,-6,0,13,-1,-1,1
1511883649694865,-5,-1,18,-6,17,-10,-2,-3
1511883649696872,-2,-9,-15,-6,17,-12,-6,-5
1511883649696872,10,0,20,9,15,-2,-2,-17
1511883649708433,14,-4,-3,-5,0,-1,0,-26
1511883649708433,-22,-14,-1,-3,-2,-2,5,2
1511883649717958,1,4,3,-10,-2,8,3,8
1511883649717958,1,-10,-6,5,2,1,-1,23
1511883649732021,5,-1,9,-1,8,-8,-3,10
1511883649732021,10,2,13,8,2,-9,-3,23
1511883649738037,3,-1,-2,1,-7,2,-2,16
1511883649738037,-6,7,3,-4,-12,6,-1,2
1511883649755079,-10,-2,-3,-3,-9,15,-6,-1
1511883649755079,2,-6,-10,8,-7,12,-2,-11
1511883649756082,-10,5,4,4,0,9,3,-12
1511883649756082,-4,-9,-1,-4,-6,-2,2,-2
1511883649768119,-13,0,3,-2,-1,1,4,1
1511883649768119,2,-12,-9,-10,1,2,3,0
1511883649777115,8,11,12,3,-12,-3,-7,9
1511883649777115,0,-2,-7,-4,-19,4,1,-7
1511883649791152,-1,0,5,-4,-11,-3,2,3
1511883649791152,-9,4,2,-1,-5,-1,-5,-6
1511883649798677,0,-2,-9,-2,7,-3,7,-5
1511883649798677,1,13,6,9,12,-5,3,1
1511883649814190,-8,-22,-4,1,3,-2,-3,-3
1511883649814190,6,16,-6,-12,-7,5,1,2
1511883649821181,7,0,3,-7,-3,4,-3,-4
1511883649821181,23,-4,-7,-8,-9,-4,-3,17
1511883649828228,5,3,-2,-4,-4,2,4,-1
1511883649828228,-11,4,7,-4,3,-11,2,15
1511883649837225,-14,-2,8,-7,7,5,-8,0
1511883649837225,-5,-4,-26,-13,-3,12,-2,0
1511883649851261,3,7,-12,5,1,6,2,28
1511883649851261,8,0,-39,2,4,3,-3,9
1511883649860312,3,4,-49,-5,-1,-6,-1,13
1511883649860312,-6,9,12,10,2,2,-4,-10
1511883649874430,1,-5,13,7,1,0,-4,10
1511883649874430,11,-9,30,10,0,-8,-8,-21
1511883649881463,-8,-11,19,8,-3,-5,-3,7
1511883649881463,-31,-6,6,-1,-7,2,-9,-5
1511883649888364,5,3,3,8,4,13,5,-10
1511883649888364,6,-2,-2,6,-3,11,6,-10
1511883649897892,-2,-6,-6,-2,-9,8,2,-17
1511883649897892,-3,9,-2,4,1,3,-6,1
1511883649911041,-14,-2,-3,2,1,9,-2,-12
1511883649911041,-1,5,12,-3,-6,1,-1,-3
1511883649920135,4,2,-5,-6,-5,3,0,-9
1511883649920135,-3,-1,8,-4,-6,-1,0,-7
1511883649934177,-5,-10,-2,-8,-2,-7,3,-14
1511883649934177,-3,13,16,-3,5,-1,4,-4
1511883649941195,8,-3,4,-1,3,-3,2,0
1511883649941195,-14,-2,-3,-3,5,0,-1,-5
1511883649948213,-26,-8,9,-2,16,-1,-12,-26
1511883649948213,30,4,-17,0,17,0,0,4
1511883649957281,-2,15,-6,6,20,4,-3,-3
1511883649957281,9,-5,-22,-4,-1,-4,-15,-2
1511883649971273,5,8,-6,-6,-11,-1,-2,-8
1511883649971273,-14,-13,-1,-5,-15,-2,-6,-4
1511883649980297,-9,-3,12,-3,-10,-13,-3,-9
1511883649980297,27,8,8,-7,-6,-12,-3,-10
1511883649994332,-19,3,9,-3,-9,-11,-3,-2
1511883649994332,5,-10,-5,3,-7,2,1,10
1511883650001356,18,5,-4,-2,0,1,-2,-15
1511883650001356,-65,-10,-10,0,-4,2,2,-21
1511883650017637,16,10,-4,4,-5,-5,-2,-16
1511883650017637,-9,-22,-18,1,-14,0,11,19
1511883650018682,18,20,20,3,-17,-5,6,2
1511883650018682,12,-1,14,-4,-6,-7,15,13
1511883650030868,4,-3,0,-5,-6,-4,9,10
1511883650030868,-7,-9,-5,-8,-2,-14,2,-4
1511883650039719,-4,-5,9,5,-7,-7,0,0
1511883650039719,18,0,8,11,-2,-10,-2,-1
1511883650053840,24,9,4,5,-1,-4,-6,-8
1511883650053840,-27,5,5,-1,7,1,-3,0
1511883650060865,-25,-12,-9,-7,16,-2,-1,4
1511883650060865,7,-4,-2,0,22,-3,0,-7
1511883650077819,-3,-1,-7,0,1,-5,2,0
1511883650077819,34,10,9,2,0,6,-2,16
1511883650078799,-67,-17,-15,-7,-9,8,3,-24
1511883650078799,-1,3,1,-3,-4,4,6,1
1511883650090941,-14,-1,5,-4,5,3,15,5
1511883650090941,-6,7,5,-2,0,-4,-3,-10
1511883650100466,9,-13,-7,2,-3,-3,-1,7
1511883650100466,11,6,-7,3,-6,-3,-5,11
1511883650121774,-13,-2,-13,1,-4,5,-7,9
1511883650121774,19,0,2,3,-9,-1,-5,-4
1511883650123779,22,21,3,0,0,1,7,35
1511883650123779,10,-13,-10,6,-5,-7,6,10
1511883650136814,25,6,4,12,-5,-3,4,7
1511883650136814,-11,-8,-7,6,-1,-1,1,-16
1511883650138819,15,-2,7,6,7,0,-1,2
1511883650138819,-5,6,7,-5,8,2,2,-3
1511883650150851,17,7,12,-3,1,-3,-2,8
1511883650150851,-39,3,2,-1,8,-6,-2,-13
1511883650159875,-40,-21,-14,-3,7,-11,-3,-23
1511883650159875,-4,26,4,-3,0,-2,-4,-2
1511883650173942,-1,-7,-17,-8,1,-4,-11,-12
1511883650173942,5,12,15,-5,-7,-1,-3,-5
1511883650180961,11,-6,2,-3,1,-9,0,0
1511883650180961,3,4,-1,-2,3,5,0,2
1511883650197531,-2,-5,2,-1,-3,2,5,7
1511883650197531,-1,-10,3,4,6,-5,4,6
1511883650199009,15,-1,-4,1,8,-4,3,0
1511883650199009,-17,-2,-5,-7,0,-10,-2,-5
1511883650211047,3,10,7,0,-7,-8,-5,5
1511883650211047,-1,-23,3,-8,1,1,-4,3
1511883650219728,18,-4,4,-5,-6,4,-5,1
1511883650219728,7,-19,-21,-17,-15,1,2,-1
1511883650233765,3,-4,-1,-2,-8,4,2,5
1511883650233765,-8,4,0,-9,-10,3,-3,-4
1511883650240783,-20,9,-4,0,-8,5,-8,-3
1511883650240783,3,-6,-2,3,-4,4,-12,-1
1511883650257830,-9,33,26,13,26,4,5,-2
1511883650257830,-6,-14,-5,5,8,-10,5,-18
1511883650258832,4,16,24,6,10,-5,9,18
1511883650258832,-4,-15,-28,2,11,-8,9,3
1511883650270890,11,-8,-16,1,7,-14,-3,2
1511883650270890,13,3,-5,7,16,9,1,4
1511883650279889,13,5,-1,-5,13,9,5,-4
1511883650279889,3,-20,17,2,22,11,8,5
1511883650293926,3,-7,6,-6,12,-3,-4,-2
1511883650293926,15,-4,-32,-10,15,-16,2,0
1511883650301447,0,4,-5,-12,7,-19,-6,-7
1511883650301447,-11,6,6,-3,19,-9,-5,2
1511883650317607,-17,-2,4,3,16,5,3,2
1511883650317607,-7,-3,-9,-4,5,-4,-10,3
1511883650318581,-3,8,3,7,-1,1,2,0
1511883650318581,1,8,-2,3,-12,0,3,-7
1511883650330640,-4,-17,-21,-8,-15,5,5,-4
1511883650330640,-4,-15,-20,-8,-5,2,8,-7
1511883650339639,13,12,38,-6,-8,0,-3,-6
1511883650339639,9,2,6,-2,-11,-3,-6,-4
1511883650353699,-4,0,5,-6,-20,3,-6,-2
1511883650353699,9,19,26,13,-17,1,-8,4
1511883650360720,-6,-14,-31,-1,-15,1,-4,1
1511883650360720,3,11,12,0,-8,3,5,-1
1511883650377768,1,-8,-12,-10,-10,0,-2,4
1511883650377768,4,16,9,1,-5,0,-7,10
1511883650378742,7,-4,5,7,-9,8,-15,5
1511883650378742,-5,7,17,2,-6,7,-8,0
1511883650390773,-7,-4,10,-5,-15,0,4,-6
1511883650390773,-8,-11,-21,-11,-11,0,11,1
1511883650400329,4,7,12,0,-6,-3,11,-1
1511883650400329,2,-14,-25,-12,-9,4,1,-3
1511883650413651,6,-1,2,-4,-3,-5,-6,0
1511883650413651,5,3,5,-7,-17,8,-4,-5
1511883650420670,6,-16,-10,5,6,10,-3,-12
1511883650420670,8,13,-10,-10,-13,0,-2,-1
1511883650437740,-5,5,7,7,-11,3,2,8
1511883650437740,1,23,11,16,-5,5,-9,5
1511883650438717,-34,-24,-31,-4,-8,-4,-5,6
1511883650438717,16,-11,2,3,7,0,-6,1
1511883650450748,17,-4,-12,-5,-1,-7,-3,3
1511883650450748,3,-9,1,6,1,-4,-2,0
1511883650459773,6,-4,-14,-1,-16,-5,1,-3
1511883650459773,6,-9,-3,1,-7,0,6,-5
1511883650488877,3,1,11,1,2,8,-4,-6
1511883650488877,2,-9,-1,-12,9,-6,-3,-1
1511883650496927,1,12,12,6,9,-8,4,8
1511883650496927,-8,-8,-29,-1,9,-14,-2,9
1511883650519729,-3,-5,-20,-7,-7,-9,1,2
1511883650519729,2,2,-25,-4,-8,-1,-3,-3
1511883650521732,1,6,-8,16,1,5,-3,-10
1511883650521732,-10,-12,-5,-3,-4,13,4,0
1511883650541791,3,-1,-5,5,2,-4,0,-9
1511883650541791,1,-3,0,3,4,2,-1,-11
1511883650548782,7,-1,-7,-7,-10,3,-2,-9
1511883650548782,16,18,2,18,-2,7,-7,-5
1511883650563822,14,-3,-3,-6,0,6,-1,-2
1511883650563822,12,-4,19,-11,4,0,7,2
1511883650572845,4,-18,-1,-7,16,4,5,0
1511883650572845,-10,7,17,7,17,8,5,-4
1511883650595907,5,10,-19,-7,3,-19,-2,-3
1511883650595907,5,13,-16,1,-1,-21,2,-6
1511883650597929,16,0,-5,-8,-2,-25,-4,-13
1511883650597929,11,13,37,25,-2,-35,-3,-7
1511883650610475,-10,-13,-9,7,-5,-30,-3,2
1511883650610475,-15,-8,11,12,4,-17,-7,4
1511883650611478,-10,4,-2,-8,2,4,-4,8
1511883650611478,-12,-27,-6,-11,4,0,2,3
1511883650611478,-4,7,4,10,14,-1,3,1
1511883650611478,-14,2,-2,0,0,7,0,-11
1511883650612693,-22,6,7,5,4,-3,-6,-2
1511883650612693,-11,9,2,1,13,3,-2,-7
1511883650617705,-4,8,-8,-3,4,1,1,-2
1511883650617705,-3,7,24,-7,-6,-2,-2,1
1511883650618735,-5,-2,0,-2,-5,9,-4,1
1511883650618735,-2,4,10,-6,-8,16,-4,10
1511883650630767,1,-9,14,-1,1,23,-8,-4
1511883650630767,13,-4,0,13,5,27,1,-5
1511883650639764,-1,-1,-11,1,-4,7,4,8
1511883650639764,11,13,12,2,-5,2,2,5
1511883650653828,-3,-6,7,-2,-15,-2,-1,4
1511883650653828,-11,-2,-7,1,-15,1,-5,20
1511883650660844,1,8,11,2,-7,4,1,-1
1511883650660844,-12,-4,-21,-17,-6,3,0,-9
1511883650677867,-7,4,10,-9,7,4,0,-17
1511883650677867,3,-5,18,-9,2,-8,4,12
1511883650678895,1,-15,-4,-7,-1,-12,-4,-1
1511883650678895,6,-4,-1,-6,-16,-8,-3,-4
1511883650690927,-5,-13,-3,0,-5,7,0,1
1511883650690927,3,0,-3,-5,-1,10,2,-1
1511883650699961,19,6,17,-10,-5,12,-1,3
1511883650699961,-19,-17,1,-7,0,9,-9,0
1511883650713866,-7,-11,-16,-12,4,10,-12,9
1511883650713866,-19,1,-1,4,11,5,-7,-8
1511883650720874,-14,10,18,3,7,-5,-6,2
1511883650720874,-10,3,-9,-3,0,-11,2,-10
1511883650751974,-12,5,-2,10,-7,-1,9,-6
1511883650751974,-32,-6,-9,5,-3,3,4,-17
1511883650759965,-16,-2,7,14,3,-2,4,12
1511883650759965,-7,3,-3,11,-4,-7,-8,3
1511883650782052,-18,-2,2,9,-1,-10,-10,13
1511883650782052,8,0,0,1,-2,-9,-8,-1
1511883650784029,11,6,-4,-8,-8,0,-1,-10
1511883650784029,4,-4,13,8,15,2,8,2
1511883650804137,-3,-1,4,-5,5,6,12,-4
1511883650804137,5,21,-14,1,-1,4,8,0
1511883650811132,-34,-9,6,-2,-8,8,1,-8
1511883650811132,16,-1,1,-8,-8,5,4,5
1511883650825751,26,0,16,7,-4,-4,1,-1
1511883650825751,24,-7,0,-3,-6,-10,2,0
1511883650834751,11,-2,-2,1,4,-6,3,11
1511883650834751,-4,2,3,3,0,1,0,0
1511883650857839,5,3,13,-1,1,8,-1,5
1511883650857839,9,-9,10,1,-3,1,-4,5
1511883650860821,15,-4,-17,1,-3,-3,-4,0
1511883650860821,3,-11,-16,-2,-4,-5,-3,10
1511883650878991,0,9,0,12,2,-4,4,-1
1511883650878991,-22,-5,-2,3,-5,6,4,5
1511883650887896,-24,-13,-6,-2,-5,3,2,0
1511883650887896,-13,1,-13,-3,-1,-1,-5,10
1511883650894911,-8,7,-8,-9,2,1,-7,7
1511883650894911,-8,0,7,8,8,5,4,-2
1511883650895918,-2,-5,4,-4,-3,3,3,-11
1511883650895918,1,-5,6,-10,-4,-2,0,-10
1511883650896932,-1,0,-5,-10,9,1,4,-4
1511883650896932,7,15,17,-11,1,-5,-3,-6
1511883650902945,9,2,-4,-12,0,-1,0,-8
1511883650902945,0,-2,6,-8,-7,-2,1,-10
1511883650909460,5,0,3,-3,-10,-4,1,-8
1511883650909460,3,-10,0,-14,-5,8,-7,2
1511883650909958,8,-2,18,-2,4,-4,-11,7
1511883650909958,-6,8,5,-2,-2,-12,-13,5
1511883650916537,-8,4,17,7,-8,-9,-5,3
1511883650916537,-8,-4,-5,5,-7,-5,-6,4
1511883650923617,2,-3,11,6,4,-5,-2,-3
1511883650923617,3,-6,3,6,0,-1,0,-1
1511883650939642,21,-3,-9,-4,-15,1,3,0
1511883650939642,4,6,-4,0,-10,-2,4,-6
1511883650941619,6,-1,-21,-1,5,1,1,-4
1511883650941619,8,1,-12,-1,7,3,2,-9
1511883650968676,9,-4,-6,3,8,-5,-2,-2
1511883650968676,11,-3,-8,-2,4,-13,-3,3
1511883650978699,3,0,-16,-13,3,-8,2,5
1511883650978699,3,-4,-15,-14,-12,-8,1,5
1511883651000427,-2,-5,16,19,-4,6,-3,7
1511883651000427,-1,0,-5,1,-11,-9,4,5
1511883651001431,-9,10,5,1,-18,-9,-1,0
1511883651001431,-6,8,4,5,-3,7,3,-3
1511883651020776,-9,-7,-10,-17,-11,-1,3,-5
1511883651020776,-2,1,1,12,22,8,7,-1
1511883651029797,-2,11,3,21,12,-8,0,-5
1511883651029797,-13,3,-12,8,2,0,0,-6
1511883651052858,3,17,-2,13,2,-2,-10,4
1511883651052858,-8,3,-27,0,-7,2,-3,6
1511883651053861,0,-5,-14,-5,-4,5,8,2
1511883651053861,-4,1,13,1,8,7,10,0
1511883651074120,-11,-8,-18,-11,3,-5,8,-3
1511883651074120,-2,5,1,-3,-6,-14,4,3
1511883651081965,5,-3,2,4,7,-8,2,3
1511883651081965,3,3,-1,2,3,-14,-6,-3
1511883651105004,-10,-11,-35,5,0,-1,1,0
1511883651105004,-10,-3,-48,-13,0,4,2,3
1511883651106508,-3,6,-34,-8,-7,4,0,10
1511883651106508,12,2,-24,-1,-9,-4,8,5
1511883651111552,1,-6,-14,-13,-6,-11,3,1
1511883651111552,-4,-8,0,3,-2,-11,-7,0
1511883651112861,-6,-8,0,4,-13,0,0,-5
1511883651112861,-1,-8,15,1,-8,16,0,-2
1511883651119885,1,10,26,4,-5,7,1,-10
1511883651119885,-2,-15,16,6,-1,10,3,-7
1511883651120905,2,10,26,5,0,1,-1,-1
1511883651120905,7,16,20,-4,-12,-3,-4,7
1511883651126925,-8,-1,2,-3,-4,8,-11,5
1511883651126925,7,8,9,5,6,8,-5,0
1511883651126925,3,1,-9,5,-3,7,0,-3
1511883651126925,-5,2,-8,4,0,-5,-1,3
1511883651132910,3,5,-1,-12,1,0,4,2
1511883651132910,10,10,10,-13,-1,3,0,-16
1511883651141934,8,-3,2,-8,-9,11,-1,-12
1511883651141934,7,-2,6,5,-5,11,1,-5
1511883651156974,-5,-2,11,3,-12,-3,-3,-4
1511883651156974,6,18,2,2,-9,-2,0,-3
1511883651162999,-8,-2,7,-2,-5,-2,-2,-9
1511883651162999,3,-3,12,-2,-6,-3,-3,-3
1511883651180062,2,9,12,2,3,0,-2,-3
1511883651180062,2,2,16,-3,-1,2,-4,3
1511883651181067,4,8,14,-4,-6,3,-9,9
1511883651181067,-7,-7,-5,-9,-6,-4,-4,10
1511883651193070,-4,-2,11,1,6,-5,3,3
1511883651193070,1,-1,15,-1,2,-5,7,3
1511883651202625,-11,-9,17,5,8,-4,-2,-7
1511883651202625,4,2,17,0,5,-4,-8,-2
1511883651216208,2,-8,12,3,19,6,-3,-1
1511883651216208,-3,-10,15,-3,12,4,3,-2
1511883651231226,-2,-1,5,11,13,0,2,-4
1511883651231226,-4,-10,-7,6,13,-6,2,-8
1511883651255317,11,12,16,11,7,-9,-1,0
1511883651255317,0,-18,-11,0,13,-3,-11,3
1511883651258323,2,-11,6,0,8,-2,-7,11
1511883651258323,-4,-11,-1,-3,6,0,0,2
1511883651276372,5,-15,-4,1,-5,8,4,5
1511883651276372,-9,-17,4,-9,-3,12,-6,7
1511883651284407,3,-10,2,-18,0,3,1,7
1511883651284407,10,-2,6,-7,-3,1,-4,-2
1511883651307476,-1,-11,-4,-8,-4,-8,-5,0
1511883651307476,7,-8,0,6,-9,-8,-11,3
1511883651308957,8,-11,-18,5,-3,-8,-5,1
1511883651308957,-2,-16,-15,11,15,-5,-3,-3
1511883651337070,-8,-1,-24,13,4,-4,1,-7
1511883651337070,-8,0,-12,12,-2,-2,6,-9
1511883651345090,-1,7,-6,5,-8,-4,-2,-4
1511883651345090,9,9,-17,4,-6,1,1,-8
1511883651360157,11,-2,-14,2,12,-2,-1,-10
1511883651360157,4,-4,-18,2,20,3,-1,-9
1511883651361132,8,-4,-8,17,16,4,5,-5
1511883651361132,3,-9,-21,0,12,4,13,2
1511883651374194,-11,-3,-7,-16,-3,7,4,1
1511883651374194,-10,12,2,1,6,2,-3,2
1511883651381185,-11,4,-10,-1,2,5,1,-7
1511883651381185,-5,7,0,12,0,1,-5,-4
1511883651388233,3,2,4,3,-5,-3,1,-1
1511883651388233,3,4,11,-1,-22,-7,6,-6
1511883651396253,-1,-3,10,1,-21,2,2,-10
1511883651396253,0,-5,-1,-8,-16,0,-7,-6
1511883651412322,-6,-13,-8,-14,-18,-4,-4,-6
1511883651412322,5,7,1,-5,-2,0,-6,-12
1511883651414344,8,-4,-6,-6,-7,-2,-3,-11
1511883651414344,8,-11,-10,1,1,4,-8,-17
1511883651434382,5,-3,-11,-4,-8,2,-4,-9
1511883651434382,-3,-9,-2,5,11,-4,0,3
1511883651442429,-5,-6,5,0,7,-8,-1,11
1511883651442429,-12,-8,2,-6,3,-11,5,2
1511883651443434,21,2,6,-9,-7,-4,1,0
1511883651443434,35,4,-7,-5,-10,3,-5,-3
1511883651443434,33,0,-17,-9,-10,-3,-9,-4
1511883651443434,22,7,13,-5,10,3,2,3
1511883651449445,0,2,-3,-4,20,2,3,0
1511883651449445,-19,-6,2,-28,5,6,-1,0
1511883651449445,-29,-6,-12,-7,-5,-4,-5,1
1511883651449445,-43,10,5,-8,-1,0,-3,0
1511883651456466,-49,-1,-4,-2,2,1,-5,-8
1511883651456466,-31,2,-11,-5,9,-3,2,-6
1511883651463458,-24,11,7,-7,12,11,5,-1
1511883651463458,-11,13,10,-9,-11,-3,-6,-5
1511883651479528,-8,9,7,2,-5,-6,-10,-6
1511883651479528,-8,-1,-5,6,-20,-8,-11,-10
1511883651481507,-3,6,2,7,0,1,-1,-6
1511883651481507,5,6,1,10,0,6,-2,5
1511883651493567,8,1,2,8,13,22,6,11
1511883651493567,9,-7,-6,-9,13,15,8,10
1511883651502592,5,-8,-3,-8,10,16,14,13
1511883651502592,11,0,5,-9,-4,7,5,7
1511883651516196,8,-1,-4,-4,-27,-16,-4,4
1511883651516196,6,3,1,9,1,-5,-2,1
1511883651523208,1,5,10,0,9,-12,-8,-3
1511883651523208,4,1,-2,5,18,-6,-10,3
1511883651540235,11,-2,-10,0,10,-12,-8,5
1511883651540235,4,1,-7,5,-5,-11,2,6
1511883651541238,1,-2,-21,-8,8,-9,-7,3
1511883651541238,0,-6,-3,2,8,-3,-8,0
1511883651553301,3,11,-4,-7,10,3,0,1
1511883651553301,-3,1,-8,1,12,8,1,-2
1511883651562296,3,3,-3,-1,0,9,110,-7
1511883651562296,8,4,-1,2,1,-2,58,-11
1511883651576359,5,6,16,-2,-10,-4,15,-5
1511883651576359,-9,7,-6,-2,-9,-3,-23,-6
1511883651583381,-17,2,-8,1,-28,-8,-59,4
1511883651583381,-18,1,-10,1,-37,-4,-35,11
1511883651599923,-8,-7,-3,3,-22,0,-16,12
1511883651599923,-3,-3,-3,-14,-37,-8,-22,10
1511883651601428,0,5,-8,-3,2,5,-26,0
1511883651601428,-8,5,-18,-2,16,5,-5,-3
1511883651613576,-4,0,-19,4,28,11,-12,-4
1511883651613576,-1,-8,-16,0,18,6,-2,1
1511883651622606,10,-4,10,10,19,7,-12,3
1511883651622606,7,-15,9,-2,11,10,-9,9
1511883651636616,3,-11,-12,-6,-6,0,-7,3
1511883651636616,9,-6,16,3,-9,5,14,2
1511883651643635,10,-2,2,-2,-8,-6,5,1
1511883651643635,6,-6,-10,-1,-17,-2,-5,-1
1511883651659706,-7,-5,16,12,-8,1,0,-1
1511883651659706,-8,-5,0,-4,-12,-4,8,-3
1511883651661683,-3,2,-6,-2,-10,-2,-7,1
1511883651661683,4,4,-3,-3,-6,-11,-1,5
1511883651673715,4,0,-11,0,-2,-6,3,-2
1511883651673715,4,4,-2,7,-5,-12,1,2
1511883651682740,-2,-4,18,-12,-11,-6,-3,-3
1511883651682740,-3,-3,1,-1,-5,-6,6,-3
1511883651696804,-6,0,22,6,0,-3,10,1
1511883651696804,-4,2,-1,0,6,-9,0,-2
1511883651703849,-2,-1,8,3,1,-13,-7,-3
1511883651703849,2,-2,-14,-3,-1,-11,-1,6
1511883651718651,-7,6,0,-4,14,2,5,-1
1511883651718651,-2,-2,-14,-2,12,-4,6,-5
1511883651725642,-1,5,-13,-2,8,2,1,-5
1511883651725642,2,7,-5,-2,5,2,3,-5
1511883651733664,-2,-2,-13,-1,7,2,2,-5
1511883651733664,-3,-4,2,-3,19,-2,7,-5
1511883651742688,-2,-1,-3,0,20,5,7,-1
1511883651742688,9,-3,7,-9,17,5,-2,5
1511883651756725,10,-8,11,-5,11,12,-8,9
1511883651756725,19,1,15,-2,-9,14,-8,5
1511883651763776,9,0,5,9,-8,15,-7,0
1511883651763776,2,1,1,-6,-20,12,-6,-3
1511883651786826,-9,5,8,-3,-10,1,-7,-6
1511883651786826,-13,0,10,1,4,-7,0,2
1511883651788810,-4,-3,11,8,4,-17,-2,4
1511883651788810,-1,-4,9,19,8,-5,4,-3
1511883651793850,4,-4,-6,15,15,-4,-3,-5
1511883651793850,2,-4,1,15,6,1,-8,2
1511883651802389,4,-7,-10,2,1,-1,-7,3
1511883651802389,-5,-6,1,1,1,-2,-6,3
1511883651816471,-16,-6,4,-10,-7,-9,-2,3
1511883651816471,-5,6,11,-1,3,-1,4,-1
1511883651823515,-5,2,5,-10,-5,-1,0,15
1511883651823515,-2,3,22,-12,-8,-3,-1,8
1511883651839533,3,7,4,-11,-8,0,5,8
1511883651839533,6,-6,-4,-9,-14,0,-2,-4
1511883651845549,-1,-2,8,-3,-14,-5,-6,-8
1511883651845549,1,-2,0,2,7,-2,2,-10
1511883651862621,5,3,-9,4,10,-10,5,-4
1511883651862621,0,3,-4,3,-2,1,2,1
1511883651863628,2,1,17,6,-17,4,-7,-4
1511883651863628,-2,1,11,2,-17,-2,-4,-15
1511883651876764,8,5,12,3,-17,-4,-5,-16
1511883651876764,8,9,6,0,-11,-1,6,-10
1511883651883651,-1,9,6,-4,-16,-3,16,-8
1511883651883651,-7,12,-1,1,-3,5,11,-8
1511883651899702,1,11,-2,-4,-7,6,13,-6
1511883651899702,-3,8,-6,-9,-2,-3,9,0
1511883651906222,2,7,0,-4,10,3,5,2
1511883651906222,4,16,1,-4,5,-7,-1,6
1511883651922361,3,1,-17,-14,8,1,-9,-5
1511883651922361,-3,-2,5,-18,11,9,-13,-4
1511883651924373,0,-8,-3,-15,5,0,-1,-1
1511883651924373,3,-10,-1,-12,-4,-3,-6,5
1511883651936400,4,-17,-6,-8,-13,-1,0,12
1511883651936400,0,-14,6,-3,-7,-5,-1,12
1511883651943454,18,-9,-14,-7,4,-6,-7,3
1511883651943454,-18,-26,8,4,-6,-3,-8,-9
1511883651959461,9,3,9,12,-4,5,2,10
1511883651959461,-5,-7,3,7,-15,7,4,-12
1511883651966509,-7,-9,-5,-3,-13,2,0,4
1511883651966509,-2,-4,-14,-3,-12,-1,-2,0
1511883651982709,-9,-8,0,1,-3,0,4,-7
1511883651982709,8,-19,2,4,-3,1,5,6
1511883651983557,-6,-7,3,4,-7,-4,0,1
1511883651983557,-10,-10,-2,6,2,3,7,2
1511883651997261,10,-13,5,3,-6,-5,-4,-10
1511883651997261,6,-2,-3,1,-2,2,1,-7
1511883652003893,1,3,10,6,-5,2,-4,-6
1511883652003893,11,6,-4,5,2,-2,-5,3
1511883652019453,-10,-1,12,6,-8,-1,-7,8
1511883652019453,-3,-1,8,6,-7,-2,-9,2
1511883652026470,-5,-3,-4,3,-5,-4,-2,-3
1511883652026470,-4,-2,3,-7,-21,-8,-8,-4
1511883652042554,-9,9,10,5,-21,-6,3,6
1511883652042554,1,1,-8,-13,-18,-1,0,5
1511883652043515,2,4,12,0,-5,7,-5,-10
1511883652043515,11,-2,10,-7,2,0,-3,15
1511883652055589,0,-11,-7,-2,26,-2,-6,-4
1511883652055589,-4,1,-2,6,14,-9,-1,3
1511883652064596,-1,5,1,8,16,-3,11,1
1511883652064596,5,3,-19,1,10,3,12,-7
1511883652079614,0,1,-11,-7,-9,-7,-1,5
1511883652079614,-2,15,8,5,-7,-9,-2,-2
1511883652085630,-9,7,-32,-3,-5,-17,-12,2
1511883652085630,7,8,-3,6,-12,-13,-10,4
1511883652102720,16,-4,-4,0,-9,-9,-7,-3
1511883652102720,2,10,-6,-6,-5,-1,6,-5
1511883652104257,10,7,12,-2,-10,-8,-6,1
1511883652104257,-16,-4,-2,3,-1,-7,-4,-6
1511883652115798,-11,1,-5,1,7,-1,-2,-1
1511883652115798,17,10,-7,3,-5,-2,-6,0
1511883652124783,-15,-3,-2,6,1,7,1,-1
1511883652124783,14,5,-7,1,-2,2,6,14
1511883652138846,4,-15,-3,-4,-23,-1,6,-15
1511883652138846,-10,-8,0,-3,-15,-3,-3,3
1511883652145860,7,-8,-7,-6,-16,-7,0,1
1511883652145860,7,-5,-6,-8,-10,-4,3,-12
1511883652161878,13,3,-7,6,10,-1,5,-1
1511883652161878,7,-7,-18,0,12,-5,0,-5
1511883652163883,11,-3,-10,8,16,-3,-4,-13
1511883652163883,4,0,2,3,11,1,0,1
1511883652175942,-23,-1,2,1,-1,1,6,-1
1511883652175942,10,-1,-10,3,4,2,4,4
1511883652184940,-11,-1,-11,3,8,12,-4,0
1511883652184940,8,5,-2,1,7,3,-3,1
1511883652199531,-11,13,-6,-5,11,1,-3,-6
1511883652199531,-3,0,-10,2,14,-6,4,-10
1511883652206021,10,2,-3,-5,7,-6,18,-8
1511883652206021,1,-4,3,3,8,-2,6,-22
1511883652222092,31,13,5,-8,1,-5,-2,-9
1511883652222092,-25,0,-3,-8,8,-9,-7,-13
1511883652224094,-1,-5,-5,-9,4,0,-4,-8
1511883652224094,-2,0,-18,-1,7,4,1,-19
1511883652236132,-13,2,-11,6,7,6,3,-8
1511883652236132,17,-5,-13,-2,6,5,-4,-20
1511883652245126,-18,-4,-8,-5,8,0,1,-20
1511883652245126,18,1,-7,-2,9,0,-3,-7
1511883652259165,-12,-5,-2,2,17,2,-9,-1
1511883652259165,-16,2,4,-3,0,4,-7,21
1511883652266206,-13,-11,8,-6,-4,1,-1,53
1511883652266206,-3,-3,-1,-11,-12,-8,-3,44
1511883652282254,9,-2,-2,-6,-16,-3,5,22
1511883652282254,1,1,16,4,-8,9,18,11
1511883652284259,47,-9,-4,2,-8,2,5,-8
1511883652284259,33,6,5,4,7,4,2,2
1511883652296263,-12,-11,-8,3,8,1,-11,-38
1511883652296263,12,3,7,12,15,6,1,21
1511883652305288,0,5,2,2,3,-4,1,-13
1511883652305288,-11,-1,11,1,-2,-3,5,-19
1511883652319327,10,-11,13,-3,-1,-9,5,-3
1511883652319327,-23,-2,-1,1,-3,3,0,-11
1511883652326347,-31,-4,-5,5,3,7,-3,-13
1511883652326347,-23,13,-3,2,-1,4,-4,-1
1511883652342390,-13,9,-9,-7,-1,5,0,17
1511883652342390,-16,1,-20,-7,-6,1,0,-8
1511883652343392,-24,6,-28,4,2,10,-8,4
1511883652343392,-5,-3,-18,6,5,9,-5,6
1511883652355455,-26,2,-17,5,-3,3,-2,-13
1511883652355455,-6,-12,-7,1,14,-8,0,-5
1511883652364474,-7,-3,0,-8,17,-1,4,-4
1511883652364474,5,6,11,-8,19,-1,-1,6
1511883652379514,-24,-2,15,0,17,-5,-8,2
1511883652379514,20,3,10,0,10,-3,-4,0
1511883652385531,7,-5,16,4,8,-4,-1,-4
1511883652385531,-12,-10,17,-1,8,6,-6,-7
1511883652402602,-2,-5,6,-7,2,19,-3,-6
1511883652402602,-2,-2,9,-3,-4,9,-7,21
1511883652404108,12,10,10,-11,-1,12,-3,7
1511883652404108,7,2,5,-8,-4,8,4,4
1511883652415693,1,2,-4,0,-11,-2,3,12
1511883652415693,-22,7,14,-1,-17,-4,-3,-12
1511883652424718,25,12,15,-3,-26,1,-3,2
1511883652424718,-12,-7,11,-3,-27,-4,-3,-2
1511883652438782,-12,-7,16,1,-15,-5,-1,5
1511883652438782,2,-5,19,1,-26,-8,5,0
1511883652445801,-12,-6,25,0,-19,-8,5,-1
1511883652445801,-12,-1,25,4,-8,0,-4,-11
1511883652461817,16,-1,21,1,-9,-5,-4,4
1511883652461817,7,8,7,-3,5,3,-7,-3
1511883652463822,-16,2,-1,-3,11,-6,-4,0
1511883652463822,16,6,2,2,-5,-14,2,-8
1511883652475881,20,-1,-8,11,8,-4,6,1
1511883652475881,9,-10,-21,0,9,4,8,-21
1511883652484878,5,9,-9,-1,16,-10,2,-25
1511883652484878,-10,1,-6,0,23,5,7,-16
1511883652499480,5,4,-1,-4,22,9,-4,-8
1511883652499480,1,-4,-10,-3,6,-2,-3,-11
1511883652505997,9,-5,-15,1,4,11,-3,-4
1511883652505997,-13,3,-12,-2,-12,-6,-7,6
1511883652522553,6,-1,-7,0,-8,8,2,4
1511883652522553,3,-9,-5,9,2,2,2,11
1511883652523551,-21,4,20,11,0,-3,-1,0
1511883652523551,-6,-18,-31,-11,-2,1,10,2
1511883652535585,7,9,6,-7,-4,-5,3,6
1511883652535585,-15,2,6,-1,-1,2,-14,-7
1511883652544582,-12,-10,-22,-15,-10,-14,-22,8
1511883652544582,-5,-2,8,3,-5,-13,-37,1
1511883652558619,18,8,2,7,0,-8,-33,13
1511883652558619,-4,4,2,1,0,4,-24,2
1511883652565638,15,8,-8,-1,5,1,-16,10
1511883652565638,11,17,-13,-7,-3,4,-4,7
1511883652582688,5,-6,-12,-1,4,-3,-5,-2
1511883652582688,17,-9,-6,0,4,-3,-13,-5
1511883652583687,1,-9,-3,-3,-18,13,-2,1
1511883652583687,-3,9,13,-5,-25,5,5,0
1511883652595718,-7,10,3,-6,-31,-5,17,5
1511883652595718,19,15,11,-1,-13,-11,22,8
1511883652605246,23,-11,-7,1,-12,-8,13,2
1511883652605246,49,-3,6,13,8,3,13,4
1511883652619332,34,-8,-8,-12,-6,1,10,1
1511883652619332,-1,-7,-11,-6,7,-1,16,4
1511883652626349,37,-7,-8,-4,6,-7,19,3
1511883652626349,25,-5,14,2,8,-10,18,2
1511883652641394,13,-7,-19,0,-3,-1,12,-6
1511883652641394,10,0,-2,-6,-8,-7,13,1
1511883652648401,4,-1,-1,9,1,-3,17,-1
1511883652648401,-8,-13,-6,7,1,-6,13,-1
1511883652655431,7,-3,0,5,8,1,12,8
1511883652655431,6,1,-11,-3,-12,4,5,7
1511883652664427,-6,9,9,12,3,-7,-6,10
1511883652664427,-7,-5,1,1,11,7,-8,3
1511883652679469,-5,12,-9,0,14,-3,-7,-4
1511883652679469,-19,-12,-3,-2,9,2,1,3
1511883652685514,-9,-3,21,-6,-6,-2,-6,-3
1511883652685514,-13,-2,-21,-5,1,5,-1,2
1511883652702062,-39,1,0,-9,-3,-5,-1,-8
1511883652702062,-38,5,5,-1,-2,-3,4,7
1511883652708606,-48,2,-4,4,14,-1,13,4
1511883652708606,-37,-9,-3,-6,8,-11,8,-2
1511883652716127,-23,-3,15,-4,0,-6,6,1
1511883652716127,-2,10,2,-6,12,-20,-1,-1
1511883652725178,-7,2,1,-1,8,-17,-5,3
1511883652725178,-4,-3,-6,4,16,-3,-5,0
1511883652739188,3,6,-2,-10,14,-10,-3,2
1511883652739188,3,-14,-3,6,14,4,2,-7
1511883652746207,12,-1,1,-1,-4,8,4,-5
1511883652746207,7,-4,8,-1,4,9,0,-5
1511883652761247,10,-10,-5,13,7,15,-1,4
1511883652761247,8,-7,-25,7,0,5,2,-4
1511883652768265,4,0,2,-2,-14,3,34,-6
1511883652768265,-10,-19,-8,13,-2,-4,71,-3
1511883652784308,7,47,46,14,4,-5,93,0
1511883652784308,-10,-13,-29,-8,-4,-11,67,3
1511883652786313,-6,6,-17,-4,3,-9,20,-1
1511883652786313,-16,-7,-3,-3,-5,-8,11,-1
1511883652799349,-6,-17,4,-12,-7,-4,-12,1
1511883652799349,-9,-6,8,3,2,-1,-21,-2
1511883652806368,-24,-1,9,1,3,-7,-32,5
1511883652806368,-8,14,8,-4,-11,-18,-56,0
1511883652821410,-4,-14,-13,2,8,-21,-48,4
1511883652821410,-8,9,12,10,6,-30,-43,1
1511883652828429,5,-12,-30,-10,-4,-44,-47,-2
1511883652828429,2,11,-8,-5,4,-33,-35,-5
1511883652844471,0,-11,-40,-7,-5,-15,-31,6
1511883652844471,10,5,-3,0,-7,13,-26,2
1511883652846477,-4,-15,-6,4,-3,23,-18,0
1511883652846477,-8,7,22,5,-8,29,-14,9
1511883652859542,-4,-7,-17,-2,-3,36,-9,0
1511883652859542,-2,-11,-9,0,12,39,-13,-1
1511883652865559,-2,7,-1,-4,6,36,-5,4
1511883652865559,-6,5,2,-1,-4,26,-5,-2
1511883652881681,-5,15,20,2,-9,22,-9,-4
1511883652881681,-4,1,6,-3,-16,3,-16,-2
1511883652895723,-1,11,14,0,-10,21,-2,2
1511883652895723,0,3,-10,2,-13,23,-2,-10
1511883652905291,-32,-19,-11,4,-14,15,0,-1
1511883652905291,12,40,31,5,-14,14,5,-5
1511883652906755,-10,-6,-9,2,-15,10,3,0
1511883652906755,-16,-13,-16,-12,-2,4,5,-1
1511883652918940,-3,-4,-2,2,7,-13,1,-15
1511883652918940,-13,-12,1,1,-3,-1,1,-10
1511883652925960,-1,-17,9,0,8,3,10,18
1511883652925960,3,9,11,4,-4,0,6,5
1511883652942182,-8,-2,-4,-2,5,-8,-1,-8
1511883652942182,-12,-10,3,-14,7,-8,4,3
1511883652948121,10,3,-9,-5,7,-19,1,-4
1511883652948121,-4,-14,1,0,0,-8,-5,-1
1511883652965092,8,1,2,-4,-12,5,0,5
1511883652965092,13,-5,-5,-5,-23,-1,-1,-3
1511883652966077,-12,-4,13,3,-16,4,10,-3
1511883652966077,12,-3,4,-3,-19,-7,1,-6
1511883652978094,17,-5,-2,-9,-17,-10,-2,-3
1511883652978094,8,9,4,-6,-9,-2,11,8
1511883652987122,-1,-2,5,-1,-4,-7,9,16
1511883652987122,15,1,3,8,11,-12,6,13
1511883653001851,17,-4,4,6,13,-2,-1,1
1511883653001851,14,-7,-7,4,6,-2,-3,3
1511883653008369,19,3,-7,-8,-3,5,-7,2
1511883653008369,8,-1,-1,-10,-4,5,-8,-10
1511883653025416,10,2,4,-1,-2,5,-7,4
1511883653025416,-10,1,-7,-10,-10,-5,-7,12
1511883653026418,-10,5,14,4,-8,-8,-3,-12
1511883653026418,-6,1,-13,-10,-10,-11,5,1
1511883653038576,-16,-7,0,6,3,-6,7,-7
1511883653038576,-3,4,-6,1,-1,-1,4,-8
1511883653047474,-10,3,-8,7,-4,6,0,-10
1511883653047474,-7,3,-8,-1,-14,0,-8,0
1511883653061535,-8,7,15,2,-10,-12,-7,5
1511883653061535,-15,-10,-8,-7,1,-7,-7,1
1511883653068534,10,8,5,2,20,-10,-5,2
1511883653068534,14,5,7,3,30,-4,2,5
1511883653084573,-5,5,3,-7,12,0,3,-10
1511883653084573,11,-1,2,-4,1,-2,1,-3
1511883653084573,8,25,-19,-14,-3,-4,6,-7
1511883653084573,0,13,-5,2,-4,-11,5,3
1511883653106854,-27,8,-4,13,1,-5,6,-7
1511883653106854,3,2,-9,7,11,-1,1,5
1511883653107332,2,-11,-1,-3,-6,1,-4,-10
1511883653107332,-1,0,9,-1,-8,3,-4,-6
1511883653122397,8,-6,0,-4,-7,6,-4,16
1511883653122397,4,-6,9,1,-6,-8,1,-6
1511883653128413,-1,-6,-5,5,-4,-6,10,0
1511883653128413,-6,-13,-23,2,-4,-4,3,-3
1511883653144456,-7,1,-10,1,-1,-4,-1,-11
1511883653144456,3,3,1,2,-1,-1,-1,14
1511883653144456,2,4,7,2,2,3,-5,5
1511883653144456,-5,-8,-3,-5,0,-2,-4,-2
1511883653166542,2,-6,-9,1,12,2,-5,0
1511883653166542,-3,-1,4,-4,5,-10,-2,0
1511883653173533,-8,-4,2,-2,2,-9,-8,-1
1511883653173533,-8,-7,12,2,13,-1,-1,5
1511883653182558,6,0,2,-4,7,-5,-2,-4
1511883653182558,6,3,-3,3,13,0,0,-7
1511883653188607,1,-1,8,6,21,4,8,0
1511883653188607,5,3,-12,-10,16,0,1,2
1511883653204164,11,0,7,-7,5,1,1,9
1511883653204164,5,-2,-6,0,2,8,4,4
1511883653205170,-1,-14,6,-2,-3,9,-3,-7
1511883653205170,1,2,-1,3,-2,5,-5,-6
1511883653226749,4,3,-6,4,-6,-4,1,1
