timestamp,emg1,emg2,emg3,emg4,emg5,emg6,emg7,emg8
1511883500658473,1,1,1,3,0,-5,3,0
1511883500658473,-2,-5,-5,-1,3,-3,7,2
1511883500659476,0,-3,-2,-10,4,-4,1,1
1511883500659476,-5,-1,0,-15,-2,-2,-5,-1
1511883500660478,-1,-1,-2,-15,-3,1,-2,1
1511883500660478,2,3,-1,-11,-7,-1,1,-2
1511883500666494,-6,1,0,-10,-7,-5,1,-4
1511883500666494,2,1,1,-7,2,-1,-5,3
1511883500670505,-1,-1,-2,-10,4,0,-9,0
1511883500670505,1,0,-1,-11,-9,4,-3,-1
1511883500686550,-3,-2,-2,-8,-1,-2,3,-3
1511883500686550,-2,-1,0,-5,-3,-1,0,-1
1511883500695571,5,2,3,-1,1,3,-1,1
1511883500695571,2,-4,-2,-1,-1,-6,-1,2
1511883500701095,-1,-1,-1,-2,-3,2,-3,-1
1511883500701095,-2,-3,-2,12,2,-4,-1,-3
1511883500716135,-3,-2,-2,17,0,-3,-1,-1
1511883500716135,-1,-1,3,23,1,2,3,0
1511883500762393,3,2,-7,9,-3,-3,5,-2
1511883500762393,-4,-1,-6,6,2,1,-1,-2
1511883500763301,1,-5,-4,11,0,1,-5,-2
1511883500763301,3,-2,-4,7,-4,3,1,1
1511883500764304,-8,-7,-4,-2,-3,2,4,-3
1511883500764304,4,-4,0,1,-4,-2,3,-3
1511883500765306,0,1,4,2,1,1,2,1
1511883500765306,-5,1,3,-3,-6,-2,-11,0
1511883500775361,-1,5,6,-2,1,-3,-9,2
1511883500775361,0,6,8,-5,-1,-2,-14,2
1511883500783358,-2,2,3,-1,2,-4,-8,0
1511883500783358,-1,0,2,-1,3,2,-12,-4
1511883500792380,4,1,4,-1,5,1,-18,0
1511883500792380,-5,-6,-2,-5,-2,1,-4,2
1511883500806922,2,-7,6,-5,-6,-5,8,-2
1511883500806922,-1,-5,-3,-1,-1,-7,14,-4
1511883500813439,-1,-1,-3,3,-1,3,13,-3
1511883500813439,6,-3,-4,0,1,6,3,-4
1511883500820504,2,-1,-4,-3,-6,1,1,2
1511883500820504,1,3,-3,-2,-5,-3,2,3
1511883500835681,0,-3,0,-2,-4,2,-7,1
1511883500835681,-2,1,-1,6,-2,-2,-6,-1
1511883500843567,-3,-1,-1,4,3,-2,3,-3
1511883500843567,-1,-3,3,4,9,-3,19,-3
1511883500850587,-2,-2,0,7,6,-2,13,-2
1511883500850587,-1,0,3,8,4,-4,10,-4
1511883500866665,-2,1,-1,3,-3,-1,4,0
1511883500866665,-2,5,2,3,-4,2,6,1
1511883500873702,-2,5,3,2,-10,-1,-9,3
1511883500873702,0,1,2,3,-4,3,-3,0
1511883500880664,-5,-2,-1,1,5,2,-12,1
1511883500880664,3,-7,-2,6,6,-2,-3,3
1511883500895749,1,-5,-5,1,0,-2,8,1
1511883500895749,1,1,-2,0,1,-6,7,-2
1511883500904348,-4,2,-1,2,0,0,3,-2
1511883500904348,-1,2,-5,-2,1,0,-5,-2
1511883500910750,-6,1,-1,-4,-2,-1,1,-1
1511883500910750,-4,-5,-3,-7,2,-6,-2,-3
1511883500927013,0,-4,-2,-1,-4,3,-1,1
1511883500927013,0,4,4,1,-2,6,1,0
1511883500932946,-1,-2,-2,-2,-6,-4,-1,-4
1511883500932946,-1,-4,-3,-2,5,-3,-5,1
1511883500940964,3,5,4,0,2,0,-1,-1
1511883500940964,2,-2,-2,-9,-3,-6,-8,-5
1511883500956005,2,-19,-4,2,1,1,-2,-2
1511883500956005,7,18,8,6,-7,12,2,4
1511883500964026,-8,-14,-8,6,-2,-13,-9,-2
1511883500964026,8,13,11,8,2,-9,-2,2
1511883500971044,1,1,-6,-2,6,-18,4,0
1511883500971044,0,-5,-2,6,-1,-13,14,1
1511883500986084,-4,7,5,5,1,-11,4,-2
1511883500986084,4,-2,-10,-7,-5,-10,-15,-1
1511883500993130,-4,-9,6,0,-7,1,-22,0
1511883500993130,6,15,9,-1,-2,6,-14,0
1511883501001158,-7,-15,-9,-5,1,4,-11,-5
1511883501001158,-5,6,2,0,3,5,3,3
1511883501015700,2,2,-4,-4,3,13,-1,2
1511883501015700,-6,-6,-3,-5,2,-1,-3,-3
1511883501024225,1,-8,-8,-9,-2,0,1,-1
1511883501024225,-4,0,4,-4,-1,4,15,2
1511883501030241,3,18,8,-2,0,2,-3,-2
1511883501030241,-10,-10,-10,-12,-3,-2,-14,-7
1511883501046309,1,5,6,-8,1,7,-5,-2
1511883501046309,2,-6,-5,-7,-1,0,-5,2
1511883501053328,-12,-7,2,-7,-1,-2,8,4
1511883501053328,6,6,5,-5,-3,5,5,3
1511883501060347,4,-1,-4,-12,3,19,-24,-7
1511883501060347,0,-7,-2,-8,0,54,19,-6
1511883501075360,8,-5,-7,-9,0,65,0,4
1511883501075360,-2,3,6,-1,2,65,12,2
1511883501084411,8,17,5,1,-3,42,-17,-6
1511883501084411,-3,-13,-2,3,0,7,-8,-4
1511883501090426,-2,9,6,0,3,-4,18,-4
1511883501090426,0,-7,-5,-1,-7,-27,-1,5
1511883501106487,-3,-6,-2,0,1,-59,2,1
1511883501106487,-2,3,0,-6,-5,-89,-19,2
1511883501113504,-7,-18,-11,-3,4,-84,-29,-5
1511883501113504,3,6,5,-1,6,-56,16,-3
1511883501120548,12,8,-1,-1,1,-21,24,5
1511883501120548,10,1,-1,-1,0,-21,2,-3
1511883501135591,7,0,-8,-2,-11,-14,-13,-7
1511883501135591,-1,3,0,5,-3,6,-13,0
1511883501143613,-11,-25,-18,-4,-2,2,-1,3
1511883501143613,8,12,15,9,2,18,7,4
1511883501150605,9,18,12,2,7,6,24,0
1511883501150605,-3,-18,-2,-1,6,1,-8,-6
1511883501166674,-1,0,6,-3,0,-2,25,2
1511883501166674,-9,-9,-5,-1,-2,1,-4,-6
1511883501173667,13,6,3,1,-5,13,4,9
1511883501173667,-16,-23,-12,-2,4,5,-35,-8
1511883501180685,7,14,5,-2,-1,15,-51,7
1511883501180685,-6,-2,-2,0,8,21,-70,1
1511883501195754,-11,1,-1,2,5,9,-85,-7
1511883501195754,-4,-2,-8,-9,-6,10,-43,5
1511883501204304,2,3,1,0,-16,6,-47,-1
1511883501204304,-4,-8,-6,-6,-9,5,-25,-6
1511883501210820,1,-3,-1,0,0,2,6,0
1511883501210820,-1,-3,-3,-1,0,-5,16,1
1511883501226548,-3,0,4,1,7,0,35,-7
1511883501226548,-7,-4,-2,-3,4,-2,42,-6
1511883501233563,-1,-2,-2,-2,0,3,48,3
1511883501233563,5,12,-2,-1,0,-12,55,0
1511883501240589,-3,5,1,8,5,-3,31,0
1511883501240589,-6,-3,3,2,-1,1,23,-1
1511883501255625,-4,-3,2,-5,-1,-13,30,5
1511883501255625,0,-3,2,-3,-2,-16,-5,0
1511883501263620,2,-2,-4,-6,-12,-4,38,0
1511883501263620,-2,-6,-5,-2,-4,-5,7,-2
1511883501270667,1,-1,-3,-3,-3,-3,3,0
1511883501270667,-3,-3,2,-6,10,0,9,1
1511883501286710,0,4,3,1,7,-3,-11,-3
1511883501286710,4,7,3,4,3,0,1,0
1511883501292724,-3,-5,0,0,-2,6,2,-3
1511883501292724,1,5,-4,0,2,-2,3,1
1511883501309297,-5,-5,-4,-1,4,-2,0,-3
1511883501309297,-3,-1,-4,-2,1,6,10,0
1511883501315814,-1,4,-2,0,2,1,2,-2
1511883501315814,-1,-1,3,2,-7,8,-9,-1
1511883501323809,1,0,5,1,0,2,13,2
1511883501323809,-2,-4,-2,-3,0,-2,9,0
1511883501330828,-1,3,-1,-3,-1,-4,-6,-4
1511883501330828,4,7,1,-3,-5,-1,-6,-5
1511883501346871,-3,1,1,2,-1,4,0,-1
1511883501346871,2,1,-3,6,-5,3,13,2
1511883501352887,-2,3,-3,10,5,-2,3,-3
1511883501352887,-4,-5,0,9,2,-4,4,0
1511883501368930,-1,-9,1,0,-1,-8,-4,-2
1511883501368930,0,-6,3,1,1,0,6,1
1511883501375949,-3,-3,1,2,-7,-2,1,-2
1511883501375949,10,11,2,6,-2,2,25,1
1511883501383970,2,3,-4,-6,6,1,20,-3
1511883501383970,4,1,-1,-2,4,-3,17,0
1511883501391012,0,-1,0,3,3,-3,21,1
1511883501391012,-1,-4,-1,20,-3,1,5,1
1511883501406555,1,-4,-2,23,-6,2,10,2
1511883501406555,1,-3,-4,30,-5,-2,-4,0
1511883501413551,-2,-1,0,29,-3,-4,1,-4
1511883501413551,-2,-2,0,16,-3,1,11,1
1511883501428667,-1,-2,-1,8,4,-5,-2,-2
1511883501428667,0,0,1,-1,6,1,-10,0
1511883501435687,1,-2,1,-3,-7,-8,-16,0
1511883501435687,0,5,-1,0,6,2,-30,-3
1511883501443706,-1,0,-2,0,-12,1,-37,2
1511883501443706,0,9,-1,2,0,-4,-28,-4
1511883501450725,-1,-2,-1,-2,1,3,-15,-3
1511883501450725,-2,-6,-2,-10,-2,-10,-4,-5
1511883501466768,-1,2,-3,-15,-4,-19,2,-2
1511883501466768,-7,0,-3,-18,14,3,15,-1
1511883501472784,0,0,-1,-25,-7,-5,11,-1
1511883501472784,-5,-1,-3,-20,-5,1,21,0
1511883501488826,-2,-2,0,-13,-2,-8,23,3
1511883501488826,-4,0,-1,-14,-7,-16,11,3
1511883501495818,3,-1,-2,-9,5,-9,1,0
1511883501495818,-2,-4,-2,-7,3,11,-11,-3
1511883501503895,0,-3,3,-3,3,15,-7,-8
1511883501503895,1,1,3,-2,-4,15,-4,0
1511883501510913,-3,-1,3,0,2,13,-4,-2
1511883501510913,1,0,-3,-3,-7,2,-6,4
1511883501526491,-3,5,-3,-2,1,11,-4,4
1511883501526491,-3,-4,1,0,1,-14,-11,-3
1511883501533536,-2,-3,0,0,2,-110,-9,-3
1511883501533536,3,1,-1,-7,-8,-125,-4,-1
1511883501548576,2,4,-4,-7,-2,-46,-11,1
1511883501548576,0,0,-7,-9,-11,21,-11,1
1511883501555600,-2,2,2,-8,6,77,4,3
1511883501555600,-2,3,5,-8,0,73,-51,0
1511883501564620,-2,-2,1,-8,1,65,-78,2
1511883501564620,2,-2,-2,-5,-3,89,-85,-1
1511883501570635,-3,-5,-2,-7,1,91,-80,-7
1511883501570635,-7,-1,-5,-15,6,81,-41,-1
1511883501586651,-5,-2,0,-15,6,63,-15,-5
1511883501586651,-3,-3,3,-14,4,4,-8,-3
1511883501592699,2,-4,0,-8,-4,-12,15,0
1511883501592699,0,-2,0,-11,2,-27,33,-2
1511883501609271,-3,-1,-3,-10,-4,-30,60,3
1511883501609271,-10,4,-4,-8,1,-22,64,-2
1511883501615784,-10,1,-1,-4,-6,13,53,-1
1511883501615784,-7,1,-2,-1,-2,20,57,4
1511883501622833,-7,4,0,2,1,10,48,0
1511883501622833,-8,-2,3,5,3,-1,33,1
1511883501631854,-8,-1,-3,3,2,8,24,-2
1511883501631854,0,1,4,3,2,23,25,-1
1511883501646868,-3,-1,2,7,11,60,10,-4
1511883501646868,-1,0,-1,5,-1,88,5,1
1511883501652911,-2,-3,3,2,0,95,-5,-3
1511883501652911,74,-6,4,2,-4,61,-1,0
1511883501669930,24,-5,0,3,-10,26,-3,1
1511883501669930,0,3,1,3,-4,11,1,-3
1511883501675972,-36,3,2,1,7,33,-3,1
1511883501675972,-36,1,-1,1,-2,46,-9,-3
1511883501691016,-17,-1,-2,2,0,-90,-14,2
1511883501691016,-16,-3,-5,1,-6,-117,-7,0
1511883501698009,9,5,-4,4,-9,-128,-9,3
1511883501698009,-13,1,-4,1,-4,-114,-15,2
1511883501707588,4,-1,-6,0,-7,-36,106,-4
1511883501707588,-5,-5,-2,0,0,-18,117,2
1511883501713627,7,-4,4,2,1,10,113,2
1511883501713627,21,3,6,1,10,57,-22,1
1511883501729358,-5,-6,1,0,9,120,-116,-2
1511883501729358,7,-1,0,-5,2,125,-120,-7
1511883501736275,10,2,-5,0,0,127,-106,-2
1511883501736275,-10,1,-2,2,3,89,-72,-1
1511883501750292,3,-5,4,4,3,55,-57,0
1511883501750292,8,-2,-1,5,3,29,-49,3
1511883501758312,0,-1,-1,2,-3,2,-40,0
1511883501758312,-13,-1,-6,2,-4,-13,-8,-4
1511883501774358,4,6,-2,4,-7,-14,-16,-3
1511883501774358,7,1,-3,0,-7,-13,-23,-2
1511883501774358,4,0,-3,-1,-2,-21,-13,2
1511883501774358,-2,-5,-2,3,0,-23,8,2
1511883501789510,-5,0,-4,-2,5,-15,15,-2
1511883501789510,0,1,-2,1,4,-18,-1,-2
1511883501795526,5,4,-3,-3,4,-27,-15,2
1511883501795526,0,-11,-2,2,2,-24,-4,0
1511883501810959,3,6,2,3,-8,-19,-17,3
1511883501810959,2,3,-2,0,-4,-29,-20,2
1511883501817975,10,-1,3,-1,-7,-24,-13,1
1511883501817975,-8,-6,2,1,-8,-22,-1,-2
1511883501834044,-6,-6,0,-2,-3,-26,-3,-3
1511883501834044,4,9,1,1,1,-13,10,1
1511883501835127,-4,-3,-1,3,3,-11,16,-2
1511883501835127,5,16,-1,2,11,-14,23,1
1511883501850061,-7,-3,-5,-3,6,-16,13,-1
1511883501850061,-8,-9,0,3,0,-12,13,-4
1511883501856080,19,5,3,0,0,-15,17,-2
1511883501856080,-7,-13,-5,0,-3,-12,22,-1
1511883501871219,-3,-4,3,1,6,-6,30,-1
1511883501871219,2,5,6,0,-1,-15,25,-4
1511883501878228,-13,-2,-3,-3,1,-10,9,3
1511883501878228,1,5,-1,-3,-2,-7,8,-8
1511883501894371,-3,-1,-8,-5,-10,-12,2,-3
1511883501894371,3,-6,-1,1,-9,-10,3,2
1511883501894371,-1,-6,1,2,-1,-10,2,-1
1511883501894371,8,0,0,4,3,-8,9,2
1511883501909723,3,-3,0,-1,3,-9,-2,0
1511883501909723,0,-6,-1,-5,-5,-16,-3,-2
1511883501915740,5,2,1,-1,-7,-21,3,-1
1511883501915740,-7,2,0,0,0,-7,-6,2
1511883501930309,-3,-2,0,2,6,18,-9,-4
1511883501930309,7,0,-2,-2,1,39,-8,6
1511883501938302,-6,-3,-5,1,1,44,-13,-5
1511883501938302,-5,-5,0,1,-4,39,2,-2
1511883501953341,0,5,1,3,0,14,8,4
1511883501953341,-3,4,-3,-1,12,2,1,-4
1511883501954343,1,-2,-1,0,7,2,-1,1
1511883501954343,1,1,0,0,-6,-2,9,1
1511883501969385,-4,2,0,-2,-7,-9,-6,-6
1511883501969385,-6,1,1,-2,0,-1,-4,0
1511883501975401,1,2,2,-2,5,-1,4,3
1511883501975401,-6,-2,2,1,5,-8,-9,0
1511883501990440,-3,-10,0,4,-3,-14,-16,-3
1511883501990440,5,-3,-3,3,-7,-7,10,4
1511883501998461,2,-2,-6,2,-3,-10,-5,-5
1511883501998461,-5,1,0,-1,3,-16,-6,-4
1511883502014005,6,5,1,0,9,-27,-2,1
1511883502014005,-8,-4,-3,1,7,-55,-13,-9
1511883502015008,-15,-10,-1,1,-2,-86,0,3
1511883502015008,2,0,-2,-6,-4,-71,6,0
1511883502029548,0,1,2,1,-7,-50,2,0
1511883502029548,-5,-5,3,2,-3,-7,-6,0
1511883502035564,-2,-4,0,1,-6,63,4,1
1511883502035564,8,5,6,2,-5,62,-8,1
1511883502050604,4,4,10,-3,-5,45,0,3
1511883502050604,2,6,0,-8,-6,11,-5,-4
1511883502058626,-1,-2,-10,-4,1,4,-4,-5
1511883502058626,4,0,-14,-1,0,-7,-7,2
1511883502073666,-1,-5,-83,0,2,-7,-4,0
1511883502073666,9,6,-57,-1,-5,-7,6,4
1511883502074669,15,8,-39,0,-10,-10,0,3
1511883502074669,-12,-7,-30,2,-3,-7,-2,-2
1511883502089708,-1,-7,-30,2,1,-14,6,-3
1511883502089708,-1,-2,-29,3,2,-23,4,10
1511883502095751,-3,-7,-24,-4,2,-23,6,-5
1511883502095751,2,-3,-8,-4,2,-11,8,0
1511883502110767,8,-3,17,-2,-2,-3,2,-1
1511883502110767,-4,2,42,-2,1,0,5,1
1511883502118287,3,7,117,-4,6,-2,-8,-2
1511883502118287,-18,0,83,1,6,3,-6,-8
1511883502133830,-2,4,46,0,6,9,0,-2
1511883502133830,-1,-5,4,0,7,9,0,-5
1511883502134833,-3,-1,-19,-4,1,-12,-9,-2
1511883502134833,-2,-4,-12,0,-4,-10,-5,-4
1511883502155889,10,6,7,2,-14,1,0,5
1511883502155889,3,-2,8,5,-2,0,-5,-2
1511883502156892,3,2,-25,4,2,-2,3,1
1511883502156892,-1,-3,-28,-3,-2,-13,1,-3
1511883502170955,-5,4,-7,-3,3,-8,0,0
1511883502170955,-1,2,-11,-1,1,-6,1,1
1511883502177947,-6,-5,-26,-3,9,23,2,0
1511883502177947,14,13,8,-3,22,114,6,9
1511883502194017,-5,-8,39,-4,14,125,-6,-3
1511883502194017,-5,-4,41,-2,4,127,6,2
1511883502195020,-5,0,8,4,1,127,-9,-5
1511883502195020,4,6,-18,4,-3,78,5,-1
1511883502210062,-6,1,-8,0,2,39,0,-2
1511883502210062,-6,-4,-10,2,-5,-10,-10,-8
1511883502216101,-5,3,-7,1,-6,-66,4,3
1511883502216101,-4,-13,-9,-1,-6,-95,0,0
1511883502230641,7,3,1,-2,-5,-106,2,2
1511883502230641,6,-1,10,1,2,-95,1,-4
1511883502237682,3,1,1,-5,4,-75,-8,-1
1511883502237682,1,3,-90,-7,2,-73,-8,-2
1511883502253703,-3,-1,-122,-8,-6,-64,4,2
1511883502253703,-1,-3,-108,-3,-3,-44,-2,0
1511883502254706,2,-1,-17,9,1,-30,2,-2
1511883502254706,2,-1,69,7,-9,-33,-5,-3
1511883502269744,-5,-3,119,6,0,-22,0,2
1511883502269744,-3,-2,127,1,-2,-12,-9,-5
1511883502275761,0,-1,127,2,3,-10,-1,-1
1511883502275761,-5,-8,87,3,4,-11,2,-4
1511883502290800,-2,-7,54,7,1,-5,2,-2
1511883502290800,4,-1,31,5,-5,-4,6,2
1511883502297846,0,-1,-12,5,-11,-15,-11,-1
1511883502297846,-2,-1,-17,3,-5,-41,8,-2
1511883502313920,9,7,-20,6,-5,-26,0,1
1511883502313920,-5,-6,-26,3,-3,0,3,-2
1511883502314922,1,-2,-40,0,-7,-21,-7,-1
1511883502314922,1,4,-29,0,-5,-30,3,0
1511883502329457,-4,5,-23,-3,-4,-57,-5,-2
1511883502329457,-4,1,-28,0,0,-53,-9,0
1511883502335446,1,-2,-23,2,0,-27,5,1
1511883502335446,2,-3,-8,2,-6,-15,-7,4
1511883502350486,-5,-3,-17,4,-2,-15,4,-1
1511883502350486,1,2,-19,8,-7,-7,-1,-3
1511883502358531,0,4,-19,3,-2,-16,6,-1
1511883502358531,-3,1,-12,4,3,-14,0,-2
1511883502373548,-2,-3,-13,-3,2,-11,-9,-4
1511883502373548,1,-1,-8,2,8,-34,-10,1
1511883502374550,-7,-7,-9,-1,10,-92,-3,-2
1511883502374550,5,-2,-9,-7,-2,-99,4,4
1511883502396635,-1,4,-7,-8,4,-95,5,2
1511883502396635,-4,-1,-6,-12,-9,-95,10,-1
1511883502397610,3,-1,-8,-14,-9,-44,2,0
1511883502397610,3,0,-6,-5,-12,-11,-5,-3
1511883502411179,1,-1,-4,-5,-6,10,-1,-1
1511883502411179,2,1,-5,-7,-5,6,-4,0
1511883502418223,-1,-5,-12,-6,-7,17,-1,-3
1511883502418223,-6,-5,-4,-8,-6,26,-4,-5
1511883502433756,-1,-2,0,-5,-7,28,-3,2
1511883502433756,-6,-7,-1,-5,2,-7,-2,-1
1511883502434759,-8,-1,-5,-7,-4,-9,-2,0
1511883502434759,0,3,-1,-4,6,4,-2,3
1511883502456819,-6,-2,-2,-1,3,13,3,-3
1511883502456819,1,1,-2,-6,5,34,-3,-3
1511883502456819,2,1,0,-2,-1,50,1,-2
1511883502456819,-2,-1,0,0,4,55,-2,-1
1511883502471884,0,-2,-3,2,4,44,-10,1
1511883502471884,1,-2,0,1,6,44,3,-1
1511883502477901,1,4,-3,-1,9,46,-1,2
1511883502477901,-7,0,-4,-2,4,36,6,-2
1511883502493918,7,1,7,-6,3,32,4,3
1511883502493918,9,1,2,-5,-1,39,5,0
1511883502494920,5,2,-20,-1,7,45,1,0
1511883502494920,5,-2,-35,-4,9,33,-10,0
1511883502509963,6,-4,-43,-4,6,40,14,1
1511883502509963,9,2,-39,-3,8,33,-12,0
1511883502515979,14,2,-31,-7,-5,31,6,-1
1511883502515979,7,2,-21,-1,-3,20,2,-2
1511883502531041,-8,-5,-26,-4,-4,7,-11,-6
1511883502531041,-1,1,-38,-1,1,6,0,5
1511883502538040,-4,1,-71,0,0,8,-7,-2
1511883502538040,19,0,-86,1,-1,5,0,0
1511883502554082,30,-2,-71,3,0,9,-4,-4
1511883502554082,36,-1,3,2,1,5,1,-3
1511883502555099,27,-2,54,1,3,10,-10,-3
1511883502555099,23,5,80,0,-4,21,12,9
1511883502570153,7,0,73,-2,-8,14,0,1
1511883502570153,-9,1,56,-2,-7,18,-4,2
1511883502576140,-20,-2,53,0,3,19,5,-1
1511883502576140,-18,6,46,-1,-3,15,3,0
1511883502590177,-22,-4,36,-1,-7,16,-5,-2
1511883502590177,-13,0,23,1,-3,17,1,-2
1511883502598199,-13,-7,20,-1,-5,11,-3,-4
1511883502598199,-20,-2,13,-2,3,8,-7,-9
1511883502613271,-16,-2,13,-2,7,11,6,1
1511883502613271,-24,-5,7,-3,1,21,8,-2
1511883502620857,-27,2,2,1,3,22,7,4
1511883502620857,-33,-3,5,2,7,14,-5,-1
1511883502629854,-26,1,7,4,1,7,-6,2
1511883502629854,-22,-2,-1,3,1,6,-2,-1
1511883502635870,-11,4,-1,2,-4,4,-9,-2
1511883502635870,-12,-3,2,2,-9,11,2,-2
1511883502650915,-11,-2,3,4,-1,11,3,-2
1511883502650915,-10,0,-2,1,4,12,2,1
1511883502657929,-5,-3,-1,-2,4,9,-7,-1
1511883502657929,-2,-4,2,-2,3,10,-16,-2
1511883502672969,3,-1,1,-4,1,38,3,-3
1511883502672969,3,5,-1,-1,2,34,1,2
1511883502681012,8,3,0,4,-4,43,7,2
1511883502681012,3,2,1,-3,0,20,4,1
1511883502696030,10,-2,1,-2,-4,-6,-1,0
1511883502696030,6,-6,-1,-1,-2,-37,-2,-5
1511883502697033,3,-1,0,1,-5,-77,5,-1
1511883502697033,9,-2,0,2,5,-95,-1,-1
1511883502711079,4,-3,0,-2,5,-113,-1,1
1511883502711079,10,0,0,-1,3,-98,4,4
1511883502718599,2,-3,-1,-1,6,-65,-2,-2
1511883502718599,13,4,0,2,-2,-38,2,0
1511883502733172,7,4,1,3,-2,-12,-5,-2
1511883502733172,8,0,-1,0,-3,0,-3,-5
1511883502741322,-2,-7,-1,-3,-7,7,-2,-1
1511883502741322,8,5,0,-1,-7,10,5,0
1511883502756231,1,3,0,0,0,7,3,-2
1511883502756231,0,0,-2,-1,-1,10,1,-2
1511883502757235,3,3,-1,-1,2,0,1,1
1511883502757235,0,-1,0,0,-6,1,-7,-2
1511883502771292,-2,0,-1,1,1,14,-7,-2
1511883502771292,-1,-1,0,-1,-5,19,-4,1
1511883502778385,5,3,0,0,-3,12,10,5
1511883502778385,-4,-6,0,-2,3,6,6,1
1511883502793508,-1,-1,0,2,2,-1,3,-3
1511883502793508,-2,-5,1,4,0,-5,-4,-2
1511883502800351,4,1,-1,2,1,0,-3,0
1511883502800351,-5,-2,0,-5,9,4,-14,-2
1511883502816401,0,-4,0,-4,4,2,-6,-4
1511883502816401,-4,-3,-1,-9,7,6,-6,-3
1511883502817404,10,1,0,-7,2,13,6,4
1511883502817404,-3,-4,0,-13,-3,17,3,-3
1511883502830515,0,4,-1,-13,-13,15,2,2
1511883502830515,1,0,0,-6,-9,14,-1,3
1511883502838726,-2,-1,-1,-5,-3,7,-11,-2
1511883502838726,-1,-2,0,-1,-6,9,4,2
1511883502853777,-2,-2,0,2,5,2,0,1
1511883502853777,-1,-1,-1,5,3,15,2,-1
1511883502860775,0,3,-1,4,4,17,-4,0
1511883502860775,1,-4,0,3,0,10,-5,-2
1511883502876816,0,-3,0,4,-4,8,-1,0
1511883502876816,1,8,0,-6,-6,2,2,-1
1511883502877751,-4,0,0,9,0,3,6,-5
1511883502877751,-2,1,0,3,-2,1,7,-1
1511883502892702,2,-2,0,0,2,7,-2,1
1511883502892702,2,-3,0,-1,4,-2,-5,-3
1511883502898697,5,-3,-1,-5,-4,2,0,-1
1511883502898697,-3,-1,0,7,-2,3,-2,1
1511883502913240,2,1,0,4,-5,0,2,-1
1511883502913240,-6,-5,0,4,-4,-1,4,2
1511883502920823,-4,-3,-1,0,4,-6,-2,-5
1511883502920823,5,2,0,2,4,-7,-6,-3
1511883502936866,-2,2,0,-2,0,0,4,3
1511883502936866,1,1,-1,1,5,9,-4,2
1511883502936866,-1,-6,0,0,-2,29,-11,1
1511883502936866,-3,-1,0,-2,-1,39,3,-4
1511883502950900,-1,0,0,2,6,41,-1,-3
1511883502950900,1,-1,0,1,2,30,0,1
1511883502957945,-1,-2,0,1,1,22,-3,-2
1511883502957945,-1,-6,-1,1,4,28,-9,-3
1511883502972958,1,0,0,2,-3,8,-13,3
1511883502972958,-1,0,-1,33,-2,3,-12,3
1511883502981006,-3,-6,-1,26,7,-6,-16,1
1511883502981006,-11,-2,-1,10,5,-19,-16,-2
1511883502996021,4,2,-1,-8,4,-52,-2,-1
1511883502996021,1,1,-1,-26,2,-82,-3,-5
1511883502997023,-7,-2,-1,-24,-1,-82,-9,-3
1511883502997023,1,-2,0,-20,-3,-68,-7,-2
1511883503012613,-1,-2,0,-13,4,-42,-13,-4
1511883503012613,5,-2,-1,-16,1,-24,-13,-3
1511883503018615,7,0,0,-13,25,-19,4,3
1511883503018615,7,-1,-1,-7,29,-9,4,3
1511883503033193,-1,-1,-1,3,31,-5,-3,1
1511883503033193,1,5,-1,4,27,0,-2,-1
1511883503040211,1,-2,-1,3,13,3,4,-2
1511883503040211,2,-1,-1,8,8,0,7,2
1511883503056231,-3,3,0,5,5,8,4,0
1511883503056231,-9,-1,-2,5,-6,9,0,0
1511883503057234,-2,2,-1,4,-7,5,2,-1
1511883503057234,-6,0,0,5,-5,-3,0,1
1511883503072274,-9,-5,-1,5,-13,-7,-6,-2
1511883503072274,-5,0,-1,2,-12,8,10,-2
1511883503078316,-9,-4,0,-3,-12,-1,-2,-3
1511883503078316,-10,-4,-1,-2,-9,4,-2,0
1511883503093329,-3,-5,-1,-3,-7,1,-3,-1
1511883503093329,-6,-2,-1,-5,-10,2,-2,3
1511883503100348,-3,5,0,4,-16,1,-7,4
1511883503100348,-3,0,-1,2,-18,-2,-4,-3
1511883503116394,14,5,0,3,-16,0,-2,3
1511883503116394,16,1,0,1,-11,0,1,0
1511883503117420,13,1,-1,1,-15,3,1,0
1511883503117420,10,4,0,-1,-11,2,10,1
1511883503132480,-5,-1,-1,5,-8,4,7,1
1511883503132480,-4,55,-1,3,2,0,0,-4
1511883503138490,0,19,-1,2,4,1,-1,-1
1511883503138490,-1,7,-1,5,-3,2,-2,-1
1511883503153518,-6,-23,-1,6,-3,2,-5,-4
1511883503153518,-3,-30,-1,10,-4,3,6,-1
1511883503160563,-11,-19,-1,11,-2,-3,-1,-2
1511883503160563,6,-8,-1,5,-10,-7,1,1
1511883503176580,-8,-9,-1,6,-4,29,4,-1
1511883503176580,-6,-20,0,2,0,39,-4,2
1511883503176580,-3,-7,-1,-2,1,30,0,-1
1511883503176580,-4,-10,0,-1,0,8,0,-4
1511883503192643,-1,7,-1,-7,-2,-6,4,-2
1511883503192643,-1,-7,-1,-10,3,-7,-1,0
1511883503198637,-1,-5,-1,-9,1,-5,3,0
1511883503198637,4,2,0,-4,2,2,-1,3
1511883503213178,1,12,0,-1,3,-1,-2,1
1511883503213178,-2,-4,0,-3,-2,0,1,-2
1511883503220722,3,5,0,-4,-4,1,2,1
1511883503220722,-2,-1,-1,-3,-8,0,0,-3
1511883503236791,-4,2,-1,-2,1,-2,7,-6
1511883503236791,-1,-5,-1,-4,-3,-6,-3,-1
1511883503236791,-13,-3,0,-3,9,-8,-3,-1
1511883503236791,-6,2,0,-8,7,-2,-5,3
1511883503251806,-3,1,0,-8,1,-5,2,0
1511883503251806,-9,-2,0,-7,-4,-8,2,2
1511883503257822,5,2,-1,-6,-2,-10,1,3
1511883503257822,2,-1,0,-4,-4,-2,2,-3
1511883503272861,0,-5,-1,-3,-6,-5,3,-2
1511883503272861,8,3,0,2,-8,-7,9,-2
1511883503280882,3,0,0,0,-11,-2,9,-3
1511883503280882,-1,0,0,-3,-6,-4,13,-2
1511883503295945,2,2,0,-4,-3,-6,3,-4
1511883503295945,1,-4,-1,-8,1,-9,2,-1
1511883503296933,1,-2,-1,-1,-2,-16,-1,-1
1511883503296933,1,4,-1,2,2,-33,8,-2
1511883503312468,2,2,0,-1,-2,-35,12,6
1511883503312468,-3,-1,0,6,-2,-31,7,-2
1511883503318485,6,-1,0,4,-1,-15,12,-5
1511883503318485,1,-2,0,-3,5,-9,8,-3
1511883503332788,3,1,-1,-4,0,3,12,1
1511883503332788,2,0,0,-7,0,5,-2,-3
1511883503340836,-1,-2,0,-4,-1,7,-4,2
1511883503340836,3,-2,-1,3,-5,9,3,0
1511883503356850,2,-5,-1,2,6,6,-2,-5
1511883503356850,7,0,-1,-1,-3,5,3,2
1511883503356850,2,-2,-1,-5,-3,4,5,0
1511883503356850,-7,-6,-1,-8,0,6,-1,0
1511883503371892,-2,6,0,-4,-2,6,2,0
1511883503371892,-3,-5,-1,-5,3,-3,-7,-2
1511883503377907,3,4,-1,-8,1,-7,-5,-1
1511883503377907,2,0,0,-8,0,3,1,2
1511883503392973,5,3,-1,-10,-3,5,-4,-1
1511883503392973,1,-5,0,-9,4,6,-7,0
1511883503400968,-1,-5,-1,-8,-3,6,2,0
1511883503400968,-2,-2,0,0,-3,2,-5,1
1511883503416549,-3,-3,0,4,4,4,-3,1
1511883503416549,0,7,-1,5,0,-5,-2,1
1511883503417540,-5,-2,-1,2,0,-4,-2,-2
1511883503417540,-1,-3,0,-2,-5,0,-4,0
1511883503432081,10,10,0,4,-1,-3,-5,-1
1511883503432081,-4,-12,0,4,1,-4,-8,-6
1511883503438123,6,16,0,9,1,3,5,4
1511883503438123,-3,-2,0,0,2,1,-5,-2
1511883503453159,-5,-19,-1,-4,-5,-4,2,2
1511883503453159,-1,8,0,1,1,-7,4,-3
1511883503461184,-5,-19,0,9,3,-6,2,-2
1511883503461184,5,16,-1,0,0,-1,-5,1
1511883503476226,-9,-16,0,0,0,-1,-9,-2
1511883503476226,1,5,-1,0,0,7,5,2
1511883503477226,2,12,-1,-1,0,2,0,2
1511883503477226,0,-1,0,1,9,-8,-3,-2
1511883503492239,12,10,0,5,0,-10,-2,2
1511883503492239,-15,-9,-2,2,-7,-12,-5,-5
1511883503498283,-2,-7,0,2,-3,-11,-6,-2
1511883503498283,-9,-1,0,0,-2,-11,-19,-2
1511883503513354,-7,-7,0,-7,-4,0,9,0
1511883503513354,9,26,-1,-1,6,-1,-3,-2
1511883503520366,0,-9,0,-5,2,8,9,2
1511883503520366,-1,4,-1,6,2,12,5,-1
1511883503536423,-11,-1,-1,2,1,9,-5,-1
1511883503536423,-10,-9,-1,-3,-1,16,0,-4
1511883503537425,-5,3,-1,3,2,12,0,-3
1511883503537425,9,12,0,4,-5,11,11,1
1511883503552465,3,6,0,4,-3,2,-4,1
1511883503552465,-3,-10,-1,2,-6,3,-5,-1
1511883503566532,-8,-7,0,-2,-1,-8,-24,-7
1511883503566532,-1,-3,0,-2,1,2,11,1
1511883503573555,22,6,0,2,3,6,7,8
1511883503573555,6,4,-1,0,-3,-6,-3,-2
1511883503580539,5,17,0,-1,5,3,10,3
1511883503580539,-12,-14,-1,3,3,-3,-12,-4
1511883503595580,-12,-4,-1,2,2,-2,-4,-4
1511883503595580,15,1,-1,2,2,2,9,6
1511883503603634,-6,-15,-1,-1,-3,3,-5,-3
1511883503603634,6,9,0,6,-4,4,17,3
1511883503612660,-1,12,0,0,-2,-6,3,-1
1511883503612660,-6,-4,0,3,2,-4,13,2
1511883503618196,0,-4,-1,-1,2,-3,-6,-6
1511883503618196,7,-5,0,-1,2,-2,6,1
1511883503632757,-3,-3,0,1,-1,1,15,4
1511883503632757,7,3,-1,-1,-8,2,3,4
1511883503640782,-4,9,0,-6,-1,0,3,-4
1511883503640782,-10,-21,0,-7,5,-4,-25,-10
1511883503655796,2,-2,-1,1,3,13,18,-1
1511883503655796,2,8,0,1,1,2,-2,0
1511883503662815,3,2,-1,1,-3,8,20,8
1511883503662815,-1,-4,-1,-3,-2,5,11,4
1511883503671839,2,13,0,3,0,-10,-34,-11
1511883503671839,-9,-4,0,-2,-1,0,17,1
1511883503677855,0,0,0,-2,-3,4,11,3
1511883503677855,-2,-4,0,0,-4,-3,-2,-4
1511883503692925,-9,-11,-1,-4,-3,-1,18,6
1511883503692925,9,3,-1,0,-2,-2,-22,3
1511883503700933,-1,3,0,-1,-1,4,15,-6
1511883503700933,-3,-4,-1,-5,-3,3,0,0
1511883503715981,-1,-5,0,-5,-3,-4,-9,-5
1511883503715981,-2,-1,0,0,0,-6,-12,-6
1511883503723131,4,-4,-1,1,2,-6,-8,0
1511883503723131,4,4,-1,4,6,5,5,5
1511883503739252,-1,0,5,4,8,-52,-2,-7
1511883503739252,-7,-9,2,-3,1,-66,-4,-4
1511883503740208,7,-6,7,-5,-8,-89,-11,-5
1511883503740208,14,3,3,-2,-2,-76,4,2
1511883503753283,2,-1,4,-6,-5,-64,-17,3
1511883503753283,-5,-4,3,-9,-3,-45,-12,-3
1511883503761311,-8,-10,4,-3,-10,-24,31,7
1511883503761311,1,11,-2,1,-8,-14,-16,-6
1511883503776246,-1,-1,-7,-1,2,6,-4,-1
1511883503776246,1,-2,-1,6,7,7,-19,-5
1511883503783243,-3,2,1,3,4,22,8,5
1511883503783243,-3,-3,4,-3,1,10,-9,0
1511883503799286,-4,1,1,2,0,34,-7,-2
1511883503799286,-4,4,-3,-1,3,37,-3,1
1511883503799286,-4,4,-7,-2,1,32,-12,-6
1511883503799286,-7,-6,-2,-2,-4,47,16,3
1511883503813326,-7,-5,-1,2,-4,33,-7,-4
1511883503813326,-1,-5,-1,4,-1,24,0,-1
1511883503820847,1,0,2,2,1,9,-6,0
1511883503820847,0,3,-6,-2,3,13,7,0
1511883503844100,-1,-2,-1,-3,0,19,-4,2
1511883503844100,-1,2,-3,-1,-8,15,21,0
1511883503844912,3,-2,-3,6,3,4,-19,-4
1511883503844912,3,-2,-3,4,-3,-9,-6,2
1511883503858949,-2,0,-1,3,-4,-5,-13,-12
1511883503858949,-4,-5,0,-2,1,10,21,5
1511883503859952,-3,1,-1,-4,-4,22,-16,-3
1511883503859952,-3,7,-3,-1,1,16,4,-2
1511883503872986,4,3,-3,0,-2,17,-3,-1
1511883503872986,0,-5,-1,1,-8,11,-4,-1
1511883503881209,4,-1,-2,-2,-1,-6,-4,1
1511883503881209,-2,-1,2,-1,-2,-17,-2,-1
1511883503896165,1,3,-2,0,-2,-15,2,1
1511883503896165,3,-1,4,-2,-10,-24,-13,-1
1511883503903069,0,-1,4,-3,-3,-10,-2,0
1511883503903069,-3,-4,2,-6,-2,9,1,-2
1511883503919118,-1,0,5,-9,6,7,-6,0
1511883503919118,-1,-5,8,-1,4,24,-7,-6
1511883503920117,0,4,7,5,-6,17,-2,-4
1511883503920117,-1,-3,1,7,-6,17,-10,-1
1511883503933728,-5,-2,-2,2,12,26,0,2
1511883503933728,-4,-1,-2,4,2,36,15,6
1511883503940747,-1,-1,-3,-3,-3,8,-10,-2
1511883503940747,-3,-2,1,-1,9,10,3,0
1511883503955787,2,1,2,-3,1,1,6,2
1511883503955787,1,2,-2,0,-4,11,3,0
1511883503962806,-1,3,-7,1,-3,-5,-6,0
1511883503962806,0,0,-7,-1,2,-1,-2,-4
1511883503978849,0,-7,-6,-1,-1,-109,8,-5
1511883503978849,-3,0,1,-6,-4,-105,6,2
1511883503979851,1,-1,1,-3,-7,-40,10,1
1511883503979851,3,4,1,-6,-12,0,-14,1
1511883503992887,-3,2,4,-3,-1,45,29,7
1511883503992887,1,8,5,-1,12,32,-3,-2
1511883504000932,-6,-8,-4,-8,-2,20,-6,1
1511883504000932,-2,-4,-4,6,5,15,-7,1
1511883504015948,-3,-3,-4,10,-2,23,-11,-2
1511883504015948,2,-5,-4,5,-2,13,-8,-4
1511883504023490,2,0,-1,-2,5,16,-3,-2
1511883504023490,3,-2,2,-1,2,-2,4,-5
1511883504038530,1,3,2,2,-8,8,-1,-5
1511883504038530,-1,-3,3,2,1,11,7,1
1511883504039534,-1,-1,10,-1,5,5,-8,2
1511883504039534,-7,3,9,-4,-6,-7,-13,-4
1511883504053570,1,-1,2,-3,2,4,13,4
1511883504053570,-1,0,4,-3,8,8,-10,-6
1511883504060617,0,-3,0,3,4,0,-3,1
1511883504060617,-1,-1,4,0,-5,0,2,0
1511883504075629,-2,-3,6,-1,-8,100,-2,1
1511883504075629,-1,-1,0,0,5,123,3,-5
1511883504083650,2,3,-3,0,2,127,-4,-3
1511883504083650,7,1,-13,0,4,116,6,-1
1511883504098717,5,2,-16,-1,3,86,-1,0
1511883504098717,-1,-2,-18,0,2,59,-2,1
1511883504099693,-3,3,-13,4,-6,32,-4,0
1511883504099693,-1,-6,-10,0,1,19,0,0
1511883504113233,1,-2,-3,-2,-1,0,-3,1
1511883504113233,1,0,2,-1,-6,-8,1,3
1511883504120753,2,-3,4,-7,-5,-19,2,1
1511883504120753,-1,3,7,-2,-10,-33,-2,2
1511883504135294,-6,-5,2,-4,-5,-27,-7,-1
1511883504135294,-3,0,-5,-3,12,-34,-9,-5
1511883504143315,-2,0,3,2,10,-31,6,-3
1511883504143315,-1,3,6,-2,0,-42,0,0
1511883504158375,-5,3,-6,0,5,-51,-13,-1
1511883504158375,2,0,-11,3,-3,-40,-3,2
1511883504159358,1,-3,-10,-3,-5,-30,4,0
1511883504159358,0,-2,-33,-1,4,-21,1,-1
1511883504181417,-1,2,-42,-2,-10,-31,0,-2
1511883504181417,-2,2,-48,-2,-10,-33,1,-2
1511883504182419,-2,-1,-33,1,-8,-24,16,0
1511883504182419,-1,-2,-1,3,-4,-12,-1,0
1511883504195452,1,-4,13,-1,-1,-8,1,-2
1511883504195452,-1,2,23,-1,-12,-13,-8,0
1511883504203501,0,-3,33,-6,-5,-14,-6,4
1511883504203501,-3,0,45,-7,-3,-8,-7,2
1511883504219068,4,0,53,-1,-3,0,-4,-1
1511883504219068,2,-1,59,-4,-4,-2,-7,0
1511883504220071,-2,0,44,-5,-4,-12,-5,-3
1511883504220071,-1,-4,35,-1,-1,-13,7,-6
1511883504233141,-2,-2,29,2,6,-11,3,-4
1511883504233141,-1,-5,20,1,-2,-14,-2,-2
1511883504240166,0,1,14,2,1,-12,0,-4
1511883504240166,4,-1,1,0,-5,-12,-5,1
1511883504255175,-3,1,-2,-3,-4,-22,-6,0
1511883504255175,7,1,-2,-8,-3,-18,-1,2
1511883504263197,-10,-6,-13,-3,10,-17,-2,-1
1511883504263197,1,-2,-13,1,5,-9,1,2
1511883504279266,-3,-4,-5,2,-4,-12,-5,-2
1511883504279266,-3,-1,-5,0,-9,-9,10,1
1511883504279266,5,2,-15,-5,-1,-6,0,0
1511883504279266,-3,0,-16,-5,1,-11,3,1
1511883504293310,-2,1,-14,-4,1,-14,-2,0
1511883504293310,-1,-6,-13,0,9,-7,-5,1
1511883504300295,-1,5,-2,8,-1,1,-4,-1
1511883504300295,6,5,0,4,4,2,5,-1
1511883504315894,2,-3,-3,7,-1,-7,3,-1
1511883504315894,-10,-1,-4,2,4,-3,3,-2
1511883504323435,2,0,-6,3,1,-3,0,0
1511883504323435,12,9,-4,5,4,0,1,3
1511883504338477,-4,-2,-8,-2,2,-2,3,-2
1511883504338477,3,0,-6,-3,-8,-6,6,-4
1511883504339452,-5,-4,-8,1,1,-7,-1,-2
1511883504339452,-9,-1,-7,-5,1,-10,-4,-4
1511883504353491,-7,-12,-18,-7,6,-5,2,2
1511883504353491,3,5,2,6,1,11,2,4
1511883504360510,2,2,-3,4,-1,10,0,-2
1511883504360510,0,-4,-3,0,-5,9,-6,-1
1511883504375550,6,4,-4,-3,0,4,-5,-5
1511883504375550,-6,-8,-13,-2,0,-4,-7,-4
1511883504383569,-5,3,-8,-1,-5,-2,-1,3
1511883504383569,-5,3,-3,-3,-8,-3,3,2
1511883504398610,-2,-6,-3,-7,2,-10,-4,0
1511883504398610,5,-3,2,-4,-4,-2,2,-1
1511883504406688,-9,-10,3,-4,-22,4,2,-1
1511883504406688,3,0,-8,2,-11,4,-3,-3
1511883504413678,2,7,-2,1,24,0,2,0
1511883504413678,-8,-4,-9,2,24,-6,3,-3
1511883504420697,20,10,-2,4,23,-5,-1,4
1511883504420697,-9,-10,-5,0,10,-3,1,0
1511883504435766,1,-3,-1,-1,-11,8,-1,1
1511883504435766,-1,3,0,1,0,30,-4,-1
1511883504442785,4,-1,-6,-4,4,18,-6,0
1511883504442785,0,-4,-8,-2,-4,73,-9,-7
1511883504458802,2,4,-3,2,-8,83,1,1
1511883504458802,-4,-1,-3,-6,-6,49,0,-2
1511883504459804,-3,-2,0,-6,-9,20,-10,-2
1511883504459804,5,0,6,1,13,-10,1,1
1511883504472838,-2,-4,6,3,15,-16,2,-4
1511883504472838,7,1,4,-1,7,-7,1,6
1511883504480859,6,-4,3,-3,21,0,-6,4
1511883504480859,-7,-4,-3,-7,7,1,-5,-3
1511883504495928,0,0,-7,-5,-6,10,-4,1
1511883504495928,-6,0,-6,0,-21,1,1,-5
1511883504502945,3,5,-3,-1,-24,9,7,-3
1511883504502945,-9,-5,-5,-3,-18,-2,-4,-2
1511883504518463,-12,-5,-4,0,-9,-26,-4,-5
1511883504518463,16,4,-3,-4,0,-34,-1,7
1511883504525984,-7,-7,-7,-4,0,-26,-8,-2
1511883504525984,-4,1,-3,2,-1,13,7,-2
1511883504533003,7,1,2,1,0,15,2,1
1511883504533003,-1,-1,-1,5,2,2,4,-2
1511883504541052,1,-5,-6,2,0,-37,8,-6
1511883504541052,1,-3,-12,0,-7,-18,5,3
1511883504556064,-3,-2,-12,-4,-7,12,7,-3
1511883504556064,2,2,-6,-4,-4,13,-9,7
1511883504563110,0,5,-5,-3,-1,8,-2,-1
1511883504563110,-3,1,0,-4,1,-27,-4,-4
1511883504578124,1,4,5,1,3,-34,-1,6
1511883504578124,-7,3,3,0,7,-29,0,1
1511883504586145,-7,-5,0,0,9,-14,-4,-5
1511883504586145,2,-2,3,1,6,-24,-2,-1
1511883504593164,-2,-4,-1,-4,-3,-19,-4,-1
1511883504593164,4,-4,-6,-1,-5,-15,-2,-3
1511883504600183,14,9,-2,3,-8,-5,0,6
1511883504600183,0,-2,4,1,0,-9,4,-1
1511883504615725,-1,0,-4,3,-1,-12,-10,-3
1511883504615725,4,4,-6,0,6,-8,4,-1
1511883504623248,2,-3,2,0,7,2,-2,1
1511883504623248,3,-2,7,-6,9,-4,-13,-1
1511883504638314,9,5,12,3,4,-5,-6,-3
1511883504638314,-4,-3,2,0,4,-4,5,1
1511883504646335,-4,2,2,0,-2,4,-2,0
1511883504646335,-3,-5,4,0,-7,-2,-14,0
1511883504661350,0,-4,10,3,-3,-4,3,3
1511883504661350,-9,-5,5,-5,3,-48,9,-8
1511883504662352,-7,-5,5,-6,5,-74,5,-3
1511883504662352,1,1,6,0,-3,-85,10,-2
1511883504675387,-1,-4,9,2,-1,-80,8,-4
1511883504675387,6,5,21,5,-6,-52,-4,0
1511883504683407,-1,-7,23,1,1,-54,-7,-4
1511883504683407,-8,-4,17,-4,4,-82,-4,-3
1511883504698568,-7,0,11,-3,-4,-75,2,1
1511883504698568,3,0,1,0,2,-42,-8,-1
1511883504705469,-7,-1,-9,0,0,-9,-5,-4
1511883504705469,2,8,-10,4,0,20,4,1
1511883504721553,-2,3,-12,1,-3,27,2,4
1511883504721553,-9,2,-6,4,-6,23,4,0
1511883504722514,-5,2,-5,-4,-4,35,2,0
1511883504722514,-1,1,-10,-5,-3,38,-3,0
1511883504735596,5,4,-19,-3,-4,30,-7,-2
1511883504735596,-3,-4,-12,-6,-7,26,1,2
1511883504743619,8,2,-3,2,-10,24,-3,3
1511883504743619,-3,-10,-3,2,6,26,7,4
1511883504758649,0,0,-4,-5,5,28,-3,-1
1511883504758649,2,-4,-8,1,4,38,-4,-2
1511883504765636,-8,1,-5,4,4,31,2,-3
1511883504765636,0,-2,-3,10,-4,32,1,-1
1511883504781676,-3,-5,0,11,1,35,-5,-2
1511883504781676,-4,-8,-4,5,0,23,-5,1
1511883504781676,5,-1,-6,1,-2,27,5,5
1511883504781676,6,6,-9,2,-1,26,-3,1
1511883504795830,11,5,-10,5,-8,20,-6,3
1511883504795830,1,6,0,-1,1,16,-9,-2
1511883504803737,-2,2,0,6,2,9,5,0
1511883504803737,5,-1,-2,-2,5,9,-1,-4
1511883504818324,0,-2,-4,-9,-1,3,-7,0
1511883504818324,-1,-2,-5,-9,0,1,-2,-2
1511883504825365,0,-5,-6,-10,1,1,3,-1
1511883504825365,2,2,-7,-15,5,1,4,0
1511883504841401,-5,1,-3,-16,0,-2,6,-3
1511883504841401,0,1,1,-9,-4,7,-2,0
1511883504842390,-3,-2,0,-6,7,5,3,0
1511883504842390,-3,1,2,-1,5,6,7,-4
1511883504855462,4,-2,3,-3,9,1,7,-1
1511883504855462,-5,-5,0,0,4,4,11,1
1511883504863563,4,-2,-4,-2,-1,2,2,-1
1511883504863563,2,-3,-1,3,-6,-8,-7,2
1511883504878520,9,2,-1,3,-1,-8,-2,1
1511883504878520,9,-2,6,4,2,-19,-4,-1
1511883504885545,8,-3,2,1,0,1,-12,-6
1511883504885545,7,-2,-3,-1,-7,5,-6,-1
1511883504901589,0,0,-8,-8,-8,7,-1,0
1511883504901589,2,2,-2,-2,-8,1,0,-3
1511883504902549,-1,3,-7,5,-5,-8,-2,-1
1511883504902549,-2,-3,-4,4,-8,-10,0,-1
1511883504916132,2,-2,3,-1,-10,-6,1,2
1511883504916132,1,-3,0,-6,-9,0,-3,3
1511883504922953,-4,2,4,2,-6,-3,-3,2
1511883504922953,-4,-1,-3,5,-6,-7,4,0
1511883504938051,-4,-1,-5,-4,-8,-3,-9,2
1511883504938051,1,4,-1,-6,-1,4,3,2
1511883504953906,-5,2,-3,-5,1,-1,-10,-11
1511883504953906,-3,1,3,5,-2,-5,4,5
1511883504960925,-6,-6,1,5,4,-8,-3,-2
1511883504960925,-7,-7,1,11,-1,-2,-18,0
1511883504961928,3,4,6,5,-3,-1,-16,6
1511883504961928,-4,7,13,2,-1,3,16,-3
1511883504975989,-1,1,9,4,0,5,11,0
1511883504975989,-4,-1,-3,0,3,-8,-7,-5
1511883504983013,-1,-1,-8,-2,0,-4,4,1
1511883504983013,-5,-7,-8,-8,-2,0,-27,-7
1511883504998051,-5,-4,18,-8,-5,-1,-5,-5
1511883504998051,3,1,108,-4,-2,-2,-1,-1
1511883505006602,-4,-7,125,2,-1,0,-5,5
1511883505006602,-2,2,127,-11,-2,-2,-16,1
1511883505021615,-1,-1,58,6,6,-5,-9,0
1511883505021615,-9,-3,-48,24,-3,-8,-11,-2
1511883505021615,-6,-1,-112,37,-1,-7,-6,-7
1511883505021615,1,4,-128,52,-1,-3,-18,-6
1511883505035723,1,5,-128,71,4,-5,-20,0
1511883505035723,0,6,-111,65,2,-4,-10,0
1511883505042716,4,2,-91,21,-1,-6,-2,4
1511883505042716,-2,0,-72,-34,5,-3,-2,-1
1511883505057756,-7,-1,-44,-69,1,-6,0,11
1511883505057756,-3,-2,-21,-84,10,-12,8,-13
1511883505066779,-4,-4,-1,-67,-2,23,3,1
1511883505066779,0,-6,11,-43,1,23,15,-2
1511883505080843,-5,-9,20,-25,3,21,6,-12
1511883505080843,8,-4,9,-16,-2,21,18,9
1511883505081846,-2,-5,17,-14,0,7,5,0
1511883505081846,0,1,14,-5,-2,2,3,2
1511883505095856,2,2,19,2,-8,-1,11,6
1511883505095856,-10,-1,13,-2,-8,-2,5,2
1511883505102898,-5,-4,17,2,-1,-11,3,-9
1511883505102898,6,-3,10,8,2,-6,6,9
1511883505118447,-5,0,0,8,4,-13,3,-8
1511883505118447,1,3,5,11,-2,-10,-2,3
1511883505125969,7,5,19,8,0,-6,3,2
1511883505125969,0,-3,9,9,2,-8,9,-1
1511883505141037,-2,-3,4,4,4,1,-1,1
1511883505141037,-2,2,3,9,2,8,22,19
1511883505142013,0,9,10,10,1,1,15,-22
1511883505142013,0,2,-5,5,-2,-10,6,-7
1511883505156049,-2,-1,3,-4,-1,-2,18,3
1511883505156049,4,-3,-1,-5,-3,-3,8,-7
1511883505163067,1,-4,-3,-5,1,-17,20,13
1511883505163067,-7,-6,2,0,-4,-14,14,-3
1511883505178134,-1,0,3,-4,-5,-4,7,-2
1511883505178134,-1,-3,-1,-2,2,-2,-4,-4
1511883505186152,2,-4,-4,-2,0,4,5,5
1511883505186152,7,0,2,-2,3,0,-16,-3
1511883505201168,-5,-2,5,0,5,-3,-2,0
1511883505201168,0,1,-1,1,5,-15,1,-3
1511883505202171,-4,-2,-2,-1,0,-21,-15,-2
1511883505202171,-8,1,-2,0,-2,-14,-5,-1
1511883505215709,7,3,0,0,-6,-6,0,0
1511883505215709,-4,-6,8,-8,-7,-1,7,-2
1511883505223230,1,-1,4,-2,-8,-5,-5,-3
1511883505223230,-9,-1,3,2,0,1,-4,3
1511883505238271,-6,-5,-1,-2,5,3,-6,-7
1511883505238271,9,5,2,-7,9,2,-9,-5
1511883505245318,10,-2,-5,-3,8,8,-4,4
1511883505245318,9,1,-1,1,-2,7,9,1
1511883505261333,8,4,4,1,-8,4,1,-1
1511883505261333,-5,3,-4,-5,-7,10,-8,-4
1511883505262336,-2,-3,-5,-7,-2,12,-7,1
1511883505262336,5,2,2,-3,0,14,-6,6
1511883505275369,2,0,2,2,-1,13,-1,3
1511883505275369,-13,-11,0,0,-6,11,-11,-3
1511883505283418,6,0,-4,0,-3,9,-2,12
1511883505283418,-3,-8,-5,-3,11,4,1,-10
1511883505298430,-3,-8,-2,-4,1,2,0,-2
1511883505298430,-2,-3,1,0,3,-3,2,-3
1511883505305448,-8,-2,-2,-6,-2,1,15,-7
1511883505305448,-1,4,-4,2,-8,-2,-9,-1
1511883505321520,-3,-2,2,6,-2,-8,-11,-4
1511883505321520,3,2,-1,5,-3,-2,5,3
1511883505322520,-6,-6,-1,1,0,1,5,-1
1511883505322520,11,6,-2,3,-1,6,7,8
1511883505335554,-2,5,-6,2,5,6,5,-2
1511883505335554,3,5,-1,-2,0,6,-6,-6
1511883505343603,-2,-2,4,-4,-1,11,4,-6
1511883505343603,-7,-1,-2,1,3,5,2,-1
1511883505357614,1,-4,-2,3,0,0,2,4
1511883505357614,6,-6,2,4,2,4,0,4
1511883505365636,-10,3,-1,4,1,2,2,-1
1511883505365636,-1,-6,0,4,3,0,4,-3
1511883505381677,5,0,-6,5,4,0,-48,0
1511883505381677,-8,0,-2,3,-1,-3,-7,-5
1511883505381677,-2,-3,-2,-2,-8,12,3,2
1511883505381677,-4,1,-1,-4,-11,19,27,-3
1511883505395738,-9,4,3,-4,1,50,32,-8
1511883505395738,1,2,3,-2,-4,68,5,5
1511883505402734,-2,-1,1,2,2,18,3,-6
1511883505402734,5,0,1,2,-3,-7,3,23
1511883505418305,-1,1,2,-1,-6,-42,1,-2
1511883505418305,-4,4,2,0,0,-45,-4,-4
1511883505425826,-2,0,6,1,1,-24,-9,-4
1511883505425826,-5,-3,4,-4,2,-19,-17,-11
1511883505440840,2,-5,4,1,-3,-14,0,1
1511883505440840,-2,-7,-1,-1,-5,-13,12,-5
1511883505448860,-1,-2,-5,4,-3,-10,-3,8
1511883505448860,-9,-1,-8,0,2,-11,-10,-3
1511883505455906,6,3,5,9,5,-3,11,10
1511883505455906,-3,-2,-1,0,4,-6,-5,-5
1511883505462926,-2,-4,-7,-2,0,-4,-16,-5
1511883505462926,-11,-2,-2,-1,-3,10,-9,-41
1511883505477964,24,10,-2,-7,0,12,18,64
1511883505477964,7,-4,-4,-15,0,-6,-11,-6
1511883505485983,18,4,3,-6,0,6,5,16
1511883505485983,2,0,11,9,-2,-5,-14,-9
1511883505501030,0,-2,9,-4,-10,4,-23,-16
1511883505501030,4,-1,3,2,0,1,-21,-2
1511883505509073,-1,0,1,0,-4,-22,-16,2
1511883505509073,1,1,-3,-2,1,1,-4,8
1511883505516090,-13,2,0,-1,7,6,-1,-12
1511883505516090,-4,2,-4,-8,-3,2,6,3
1511883505523107,-2,0,-1,-3,0,4,3,-12
1511883505523107,1,-1,2,-3,11,2,6,8
1511883505538175,-2,-5,4,-3,5,-2,-3,-8
1511883505538175,-2,0,-5,-3,0,8,12,5
1511883505545167,-7,-9,-11,1,-2,13,0,-2
1511883505545167,1,2,-13,-6,-17,-5,13,4
1511883505560206,-7,-4,-24,2,-7,4,4,-10
1511883505560206,-2,4,-17,5,-1,-5,-1,-4
1511883505569257,-4,-8,-15,6,1,3,-13,-5
1511883505569257,2,1,-9,23,2,1,-7,8
1511883505584291,-10,-2,-9,27,2,6,17,-11
1511883505584291,-9,-1,0,32,-4,-11,-13,-3
1511883505584291,5,3,-3,12,1,-6,4,4
1511883505584291,-2,-10,-10,1,5,6,-28,-2
1511883505598334,-5,7,-6,-9,-5,-2,-32,-5
1511883505598334,4,-14,-13,-19,1,15,-15,4
1511883505605353,10,18,13,-3,4,14,5,1
1511883505605353,-3,-10,-4,-30,-1,6,22,1
1511883505620896,11,16,19,-12,1,7,19,-6
1511883505620896,0,-13,9,-7,7,-2,10,-7
1511883505628418,-8,3,24,-4,-3,-3,-1,-1
1511883505628418,10,7,19,-6,-4,-11,-7,1
1511883505643487,-19,-17,3,-16,-5,-6,27,2
1511883505643487,3,-15,18,6,-2,-10,6,10
1511883505644462,20,60,22,7,3,-9,13,1
1511883505644462,-4,-4,17,6,1,-6,-9,0
1511883505658527,5,5,3,5,-6,-6,18,-5
1511883505658527,-4,7,14,7,4,9,-16,-8
1511883505665541,-11,-29,-11,0,7,8,11,-1
1511883505665541,-6,5,1,-3,7,1,-9,4
1511883505680558,-17,-30,-15,-8,-1,-6,-17,-2
1511883505680558,-7,32,1,-7,-9,-6,15,1
1511883505688606,-23,-10,-10,-5,-4,-16,0,-6
1511883505688606,-15,9,-4,-9,1,-8,14,1
1511883505703744,-15,-28,-6,-13,1,-26,-21,-2
1511883505703744,2,14,7,-7,0,22,7,5
1511883505704621,-10,-10,5,-13,0,3,-18,-6
1511883505704621,-7,-6,-2,3,-2,-1,2,-1
1511883505718291,-6,6,5,1,0,-7,5,-7
1511883505718291,-2,-8,-5,0,4,-7,34,1
1511883505725931,1,-25,-11,-4,-3,-11,7,1
1511883505725931,14,9,12,-3,-4,-3,9,7
1511883505741099,2,-11,-1,-1,-2,-5,-18,-9
1511883505741099,7,20,-3,-9,3,29,-4,-2
1511883505748991,-3,-3,0,5,0,28,-5,0
1511883505748991,2,-7,6,-8,-2,36,3,-4
1511883505764029,11,-4,-3,-1,2,28,-23,-5
1511883505764029,15,-5,3,-7,-4,86,-13,3
1511883505765198,-13,-13,-10,-3,1,116,1,-1
1511883505765198,11,3,-1,-3,-5,127,-1,-1
1511883505778154,11,22,6,2,3,122,14,6
1511883505778154,-7,-28,-19,-3,2,27,-8,-4
1511883505786091,11,23,11,-3,-2,19,15,7
1511883505786091,0,-1,-5,-6,5,-24,-15,-2
1511883505801131,1,-6,3,-7,4,-67,-8,-1
1511883505801131,-1,-5,-3,-9,-5,-87,6,-2
1511883505809439,-3,-11,-1,-22,-4,-111,6,-5
1511883505809439,-4,-11,-5,-13,-6,-118,9,3
1511883505823923,6,17,0,-26,4,-103,-8,5
1511883505823923,1,1,-10,-37,0,-117,-3,-4
1511883505824923,10,3,-7,-21,9,-128,-20,1
1511883505824923,1,3,-2,-14,4,-112,3,-3
1511883505837961,5,-4,2,4,-6,-96,8,2
1511883505837961,-2,-4,4,12,-7,-73,-2,-3
1511883505846088,4,3,6,21,1,4,-7,-3
1511883505846088,12,4,-5,17,-1,106,-2,0
1511883505861208,11,-3,-1,14,0,127,-6,1
1511883505861208,6,3,-1,12,-2,121,0,5
1511883505869041,-5,-2,-7,12,-4,53,-20,-4
1511883505869041,8,9,2,22,1,22,6,4
1511883505884186,-9,1,-1,19,-4,3,3,-4
1511883505884186,2,-3,11,24,0,-15,11,3
1511883505885084,3,-8,0,7,2,-17,10,-4
1511883505885084,-7,-14,-6,9,1,-18,3,-3
1511883505898117,4,12,-6,9,2,-27,5,2
1511883505898117,9,0,-2,22,7,-33,-12,-2
1511883505906144,6,1,-2,7,-1,-15,4,0
1511883505906144,-8,-6,0,5,-2,-39,0,-6
1511883505920813,4,2,7,10,-7,-43,-1,-3
1511883505920813,2,-1,-1,1,3,-33,4,6
1511883505928869,4,7,0,5,2,-42,-9,-3
1511883505928869,8,-1,-4,2,5,-64,6,-1
1511883505943933,4,-4,-7,-1,-1,-72,10,-2
1511883505943933,-3,-1,0,-3,-2,-90,15,0
1511883505944936,-3,-6,-1,-14,-3,-54,25,-2
1511883505944936,2,0,-4,-19,2,-44,17,1
1511883505957970,9,0,4,-17,6,-32,-6,-1
1511883505957970,10,-2,-3,-11,-2,-1,-11,-3
1511883505965964,7,2,-1,-1,-10,2,-11,-3
1511883505965964,-1,0,-4,16,-2,7,-10,-1
1511883505981006,9,2,-1,16,-6,31,-2,0
1511883505981006,-4,2,2,11,-3,23,-11,-4
1511883505989026,-14,-2,-1,10,-3,-21,8,3
1511883505989026,-27,-1,-6,0,3,-43,-9,-5
1511883506004093,-23,-4,-4,0,-21,-61,4,3
1511883506004093,-18,-2,5,-3,-1,-55,-8,1
1511883506004093,-11,-2,9,0,4,-30,-5,2
1511883506004093,-8,-5,-2,-3,8,-5,-12,-4
1511883506018635,3,-3,-2,-4,9,14,-4,-3
1511883506018635,5,-3,-7,-6,-5,29,-10,-1
1511883506025656,9,8,-6,-5,0,33,-7,0
1511883506025656,9,4,1,0,-4,33,-6,2
1511883506040722,9,5,2,-5,2,54,4,7
1511883506040722,9,4,8,1,-8,35,4,0
1511883506048743,8,-2,1,-7,-11,33,0,-2
1511883506048743,23,1,0,1,4,29,-8,-2
1511883506063756,16,0,-3,0,-5,45,22,2
1511883506063756,6,-3,-4,0,12,38,-2,-4
1511883506064786,2,-2,0,0,2,37,-5,-3
1511883506064786,-7,0,3,-3,-13,20,43,-5
1511883506077820,-13,-2,1,-1,11,18,9,-1
1511883506077820,-18,-7,-4,3,-2,16,-10,0
1511883506085841,-20,-4,2,5,1,12,-14,-2
1511883506085841,-20,-2,1,-2,-5,10,-33,2
1511883506100855,-13,-3,-2,-3,21,17,-20,-5
1511883506100855,-2,-5,0,-6,0,-2,-5,3
1511883506108877,3,-3,-3,-4,0,3,-9,3
1511883506108877,-8,3,-3,-7,-7,0,-11,1
1511883506123945,-48,2,-6,-9,-3,-5,3,-5
1511883506123945,-62,6,-3,-1,3,8,2,-6
1511883506124949,-59,-3,2,-2,4,17,5,-1
1511883506124949,-46,-1,5,-1,1,9,-4,3
1511883506137982,-28,6,5,5,-4,-2,-14,0
1511883506137982,-20,-1,5,2,2,5,-1,-2
1511883506146034,-8,-1,-3,-3,-11,51,-4,2
1511883506146034,-4,1,-7,-7,-8,53,-2,-1
1511883506161045,2,-8,-3,-11,-12,46,-6,-3
1511883506161045,3,2,3,-1,9,39,5,1
1511883506169094,10,2,8,0,2,20,2,-2
1511883506169094,10,-3,11,-3,-5,20,-9,-1
1511883506184117,11,-3,6,1,-1,10,7,3
1511883506184117,12,-1,-1,4,0,7,-5,1
1511883506184117,18,1,-2,2,3,-3,-8,-1
1511883506184117,28,1,-3,5,5,-4,1,2
1511883506198142,28,-1,-1,0,12,-10,-4,1
1511883506198142,32,0,-2,-8,-14,-15,-4,0
1511883506205161,26,0,-3,-7,9,-2,1,-2
1511883506205161,20,-4,0,-8,-2,-23,-2,-5
1511883506220704,9,-2,7,8,-12,-24,-7,-1
1511883506220704,7,1,6,-1,3,0,5,5
1511883506228753,2,-3,-1,0,-3,-16,6,-1
1511883506228753,1,-4,-3,2,3,-10,-5,0
1511883506243820,-3,-2,-10,4,0,-1,-8,-1
1511883506243820,-4,3,-5,-5,-7,-5,4,-2
1511883506244823,-10,2,0,2,-4,-12,1,-4
1511883506244823,-9,1,-2,4,9,-8,-4,-1
1511883506257857,-3,5,8,-6,-10,-3,-9,0
1511883506257857,-8,0,4,-7,-2,-1,-12,-2
1511883506265852,-4,2,6,-8,1,5,-4,4
1511883506265852,-7,2,11,-11,1,14,6,3
1511883506280919,-2,-4,5,-16,-1,6,2,-2
1511883506280919,-1,-2,2,-2,-8,5,-1,-2
1511883506288940,4,-5,-9,8,-4,-2,5,-3
1511883506288940,-4,0,-6,10,-3,-2,7,-3
1511883506303980,2,5,-7,11,3,-7,5,0
1511883506303980,2,-2,-7,7,7,-14,3,-1
1511883506304989,-1,-3,-3,-1,5,-8,-1,1
1511883506304989,8,1,-2,3,-5,-3,1,6
1511883506318522,0,1,-1,-8,-6,9,5,-2
1511883506318522,0,-2,-6,-3,0,13,4,-4
1511883506326063,2,-2,-1,-2,-2,21,6,-1
1511883506326063,4,-2,2,-9,-1,19,-2,-3
1511883506341081,-9,-16,-5,0,10,-6,-2,-3
1511883506341081,9,6,2,1,2,-11,0,2
1511883506349128,-3,-1,-1,-2,4,-16,-2,-2
1511883506349128,4,4,-12,0,4,18,0,0
1511883506364168,1,1,-10,-2,-1,44,-1,4
1511883506364168,-2,-6,-8,1,-3,21,-4,-1
1511883506364168,2,-5,-4,0,-4,-13,1,-2
1511883506364168,0,11,6,4,-3,-52,3,-1
1511883506378207,-6,-11,-2,3,-3,-49,6,-4
1511883506378207,4,6,7,4,2,-32,12,4
1511883506385197,3,5,3,-1,-2,-18,-2,-1
1511883506385197,2,-7,28,-2,0,-9,-2,-3
1511883506400258,6,-3,14,-2,4,8,-32,-1
1511883506400258,-5,-16,-3,-11,-2,20,-36,-7
1511883506409301,6,2,-3,2,3,43,9,9
1511883506409301,-2,9,-17,6,5,37,14,-1
1511883506423325,12,16,-12,-1,-1,17,23,3
1511883506423325,1,3,-12,2,-5,0,-8,0
1511883506431372,-4,0,-11,2,-6,-8,-3,-3
1511883506431372,-7,-7,-13,1,3,-1,-26,-1
1511883506438393,-6,0,-2,1,2,-6,-10,-1
1511883506438393,-5,6,-5,-1,0,-5,18,-2
1511883506445415,-4,-6,-6,-3,-5,-16,17,0
1511883506445415,1,-6,-4,6,-7,-3,33,0
1511883506460426,4,-2,1,6,-4,0,15,-6
1511883506460426,-3,-5,1,4,-3,0,-1,-3
1511883506468474,-2,-5,7,0,0,2,0,-4
1511883506468474,3,-6,5,-3,3,-9,-9,1
1511883506483486,9,6,1,-5,4,-14,-11,4
1511883506483486,3,-1,-8,-10,5,-4,12,1
1511883506491509,1,1,-19,-8,-3,-8,-12,-5
1511883506491509,-2,-1,-24,-8,-4,-9,-4,-5
1511883506506574,3,0,-27,-4,-1,-8,-7,-3
1511883506506574,5,2,-15,-2,2,-8,9,-1
1511883506507580,-4,1,-2,-3,5,-5,0,9
1511883506507580,8,-9,-3,-1,3,-3,-12,1
1511883506521124,11,3,6,0,-2,16,2,0
1511883506521124,26,5,4,4,2,13,-1,-1
1511883506529201,36,8,-3,2,-3,12,-6,-4
1511883506529201,15,-5,0,-8,-4,9,6,-7
1511883506543230,11,3,5,-3,-5,0,3,-1
1511883506543230,-11,0,7,-9,1,4,0,0
1511883506551231,-20,4,4,-6,2,-7,4,1
1511883506551231,-34,4,7,-4,2,-10,6,2
1511883506566272,-36,-7,-1,-3,5,-14,-2,-3
1511883506566272,-17,-4,5,2,-1,-9,-9,-2
1511883506567274,-10,-5,5,-1,-1,-14,4,-1
1511883506567274,3,0,-3,-2,-4,-6,-15,1
1511883506580310,-13,-9,-2,-2,-1,-11,-7,-10
1511883506580310,16,-2,4,2,1,-2,1,11
1511883506588331,6,14,9,-6,-3,1,-11,0
1511883506588331,-2,-1,3,-10,-3,0,8,1
1511883506603370,9,-1,-2,-14,-4,-13,7,3
1511883506603370,16,6,-12,-10,3,-9,13,4
1511883506611393,6,-8,-16,-6,3,-26,-9,-5
1511883506611393,1,-11,-12,-10,-4,-18,-5,-5
1511883506626121,7,7,-11,-9,2,-14,-1,2
1511883506626121,-3,-6,-11,-9,-3,-22,2,-5
1511883506627124,-1,-3,-3,-4,4,-17,2,1
1511883506627124,-4,-1,7,2,2,-18,0,1
1511883506640157,-8,-1,12,-3,-6,-19,9,4
1511883506640157,-3,3,15,-10,-3,-20,-4,-4
1511883506649183,-7,-4,17,-17,-3,-24,5,-6
1511883506649183,2,-1,11,-13,4,-27,5,-5
1511883506663219,-1,-3,7,-12,-1,-27,1,-3
1511883506663219,-1,-2,3,-11,0,-16,-2,0
1511883506671241,11,6,7,-5,-1,-14,3,3
1511883506671241,-2,-4,-1,-4,0,-16,-13,-2
1511883506686282,8,0,-9,3,2,-8,-1,3
1511883506686282,-5,-6,-7,0,2,-1,-7,-9
1511883506687284,-11,-7,1,-10,-3,5,-5,-3
1511883506687284,-9,0,3,-3,-2,8,-7,3
1511883506700331,4,2,1,5,1,8,-5,-1
1511883506700331,-2,-1,-5,12,2,9,-7,-1
1511883506709387,8,-12,-2,25,-1,12,5,2
1511883506709387,0,6,0,22,1,4,1,0
1511883506723399,4,2,6,14,2,4,-13,0
1511883506723399,-8,8,5,11,-6,-3,-10,0
1511883506731323,-1,-3,-10,13,-1,1,-7,-6
1511883506731323,13,0,-5,12,-6,2,-5,0
1511883506746390,20,-9,-2,16,1,-2,-5,1
1511883506746390,34,-9,-10,17,5,7,7,-1
1511883506747348,41,-1,-7,12,3,1,-4,2
1511883506747348,46,2,-3,10,-1,4,6,-2
1511883506760484,13,-8,-3,8,-2,9,0,-4
1511883506760484,18,-1,-6,9,-8,8,4,1
1511883506768403,13,0,3,12,-4,6,5,2
1511883506768403,9,2,-8,3,-2,9,0,1
1511883506783565,0,3,1,1,-2,10,7,-1
1511883506783565,-14,-2,-3,-5,-3,4,3,3
1511883506791487,-9,5,-9,-4,6,5,-8,0
1511883506791487,-18,-10,-12,-1,9,-9,-6,-2
1511883506806504,-9,-3,-7,2,-3,4,5,2
1511883506806504,-20,-5,-1,1,-2,-3,-9,-6
1511883506807508,-17,-4,-1,2,-3,2,-7,-2
1511883506807508,-17,-7,9,-2,0,7,8,-1
1511883506821053,-20,2,5,-2,2,8,-6,-2
1511883506821053,-17,3,16,3,-1,3,-6,-2
1511883506829267,-15,-2,22,1,-1,9,12,1
1511883506829267,-5,5,12,-1,5,7,16,2
1511883506843348,-2,-8,11,-9,3,4,8,3
1511883506843348,-5,-9,13,-9,-5,3,-3,-3
1511883506851201,-1,-2,7,-2,2,4,-12,-3
1511883506851201,-3,6,2,4,-5,4,8,-2
1511883506866241,-2,9,25,8,3,-4,-7,-3
1511883506866241,0,7,34,9,0,3,-3,0
1511883506867240,-6,2,30,3,-4,0,-10,2
1511883506867240,-1,5,30,2,-5,7,-14,3
1511883506880275,-3,5,9,3,-4,4,-9,1
1511883506880275,0,2,17,2,-9,-2,0,7
1511883506888325,-5,-1,33,-1,-1,-2,-2,0
1511883506888325,-8,-10,32,0,3,1,-4,0
1511883506903462,-8,0,17,-2,3,7,-5,-4
1511883506903462,-5,0,-1,2,0,5,3,1
1511883506911383,-4,4,-13,0,3,5,6,2
1511883506911383,-10,0,-25,-8,3,-7,-23,-3
1511883506926470,-8,1,-25,-1,-2,0,-17,8
1511883506926470,-9,-3,-47,-3,2,-1,-33,-1
1511883506927472,-3,-2,-45,0,-3,10,-34,-2
1511883506927472,-6,-3,-46,-5,-7,5,-30,-4
1511883506940681,-6,-6,-38,-7,-6,-2,-25,-3
1511883506940681,-8,-1,-36,-5,2,1,-10,-3
1511883506948497,-6,-6,-38,-3,1,-5,-1,-3
1511883506948497,-2,5,-27,-6,2,-1,-1,0
1511883506963536,0,1,-23,-3,2,-1,2,-8
1511883506963536,6,0,-1,-14,-1,6,7,-1
1511883506971558,-3,1,0,-14,2,8,8,-4
1511883506971558,10,8,7,-10,0,19,32,8
1511883506986598,-9,-3,6,-6,-1,10,30,-2
1511883506986598,0,1,2,3,-3,-6,28,2
1511883506986598,-3,-8,-5,4,0,-1,20,0
1511883506986598,0,-4,5,11,0,-2,10,-4
1511883507000635,-8,-7,7,4,2,-1,15,-2
1511883507000635,-6,0,15,-1,2,4,16,-2
1511883507007653,-10,-3,9,3,-2,-1,12,-3
1511883507007653,-7,12,8,9,-2,-5,2,-1
1511883507023198,-4,5,0,6,-4,7,8,0
1511883507023198,-5,1,0,3,-1,5,-4,-2
1511883507031723,0,3,7,-9,-6,5,-2,-2
1511883507031723,1,-11,3,-7,-4,2,18,1
1511883507045764,1,-1,3,-4,0,-6,-20,-2
1511883507045764,-3,-1,-2,0,0,5,-44,2
1511883507046762,5,5,2,0,4,4,-58,2
1511883507046762,-5,-5,2,-5,0,-6,-60,-1
1511883507060829,4,1,4,-8,0,-6,-35,1
1511883507060829,-4,-1,5,-11,-1,-8,-24,-5
1511883507068820,-8,2,1,-9,-2,-6,-12,-1
1511883507068820,-7,0,1,-1,-5,-1,1,3
1511883507082887,-5,-8,-4,-1,-1,-4,10,5
1511883507082887,-1,-2,5,1,3,-9,19,-5
1511883507090879,3,3,3,-1,3,-10,17,-5
1511883507090879,-5,-5,1,-1,-2,1,13,-4
1511883507105946,6,5,6,-1,-1,-2,22,6
1511883507105946,2,-3,6,1,-2,-4,11,-5
1511883507106923,1,-3,0,7,0,3,24,-4
1511883507106923,-5,7,0,6,5,2,20,5
1511883507120987,-4,-5,-3,-5,2,4,14,-1
1511883507120987,-8,-4,-4,-10,0,-1,16,-3
1511883507128518,1,9,-2,-11,3,0,20,1
1511883507128518,-5,1,5,-10,-1,2,13,-5
1511883507143559,-1,-3,9,-4,0,-2,13,-5
1511883507143559,3,-4,7,-8,0,-6,24,0
1511883507151606,-15,-12,6,-4,-5,-11,12,-1
1511883507151606,-9,2,9,-2,-1,-5,9,5
1511883507166619,-19,0,15,-2,-2,-9,-1,-1
1511883507166619,-12,3,-1,2,-3,-18,-5,-1
1511883507166619,-13,2,2,1,0,-13,3,1
1511883507166619,-7,1,-1,3,3,-8,-1,-5
1511883507180688,-4,3,4,3,1,-9,-6,-7
1511883507180688,3,3,3,0,1,-11,1,1
1511883507188706,-5,-7,-3,-15,-2,-12,7,2
1511883507188706,0,-4,3,-41,-9,-18,1,-5
1511883507202743,9,-3,6,-114,-5,-18,4,6
1511883507202743,-6,-6,-5,-124,1,-4,12,-4
1511883507211803,8,13,-1,-128,1,0,12,9
1511883507211803,1,-4,-7,-109,-1,-6,-1,1
1511883507226443,-3,1,-11,-63,1,-1,1,-1
1511883507226443,6,-2,-6,-22,-3,-5,4,2
1511883507227449,2,-6,-9,16,-1,4,14,6
1511883507227449,9,5,-2,31,-3,9,14,-1
1511883507240479,7,2,-4,66,-4,6,17,-3
1511883507240479,3,1,3,75,-5,5,1,-4
1511883507248477,1,-4,-3,79,0,8,-4,-4
1511883507248477,6,0,0,71,2,-1,0,3
1511883507263518,-1,-4,-2,63,6,2,10,-1
1511883507263518,4,-10,4,55,2,2,0,1
1511883507271565,5,-3,8,42,4,2,-4,-5
1511883507271565,3,-5,-2,32,3,2,5,-1
1511883507286605,6,1,-1,30,-1,1,0,-2
1511883507286605,1,3,2,23,5,9,23,-3
1511883507286605,6,-1,-2,14,-6,-3,13,-4
1511883507286605,1,3,-91,11,1,0,23,-2
1511883507300637,4,6,-117,13,-6,7,20,4
1511883507300637,5,11,-102,6,-2,20,25,4
1511883507307665,-1,1,-24,2,-10,13,3,0
1511883507307665,3,1,59,5,-7,35,36,2
1511883507323202,0,-9,84,5,-2,14,28,-2
1511883507323202,4,-5,69,1,2,-1,12,0
1511883507331727,2,-1,59,17,5,-15,12,0
1511883507331727,2,-1,59,16,4,-23,-17,-6
1511883507345790,4,2,44,19,2,-1,-10,-2
1511883507345790,-2,-3,121,24,5,3,-23,1
1511883507353811,-4,-11,117,32,6,6,-19,-4
1511883507353811,-3,-5,127,37,2,-3,-27,-1
1511883507360830,0,0,127,39,1,0,-27,-2
1511883507360830,8,6,96,32,-1,-2,-23,-1
1511883507367849,-5,-2,58,23,-6,2,-14,0
1511883507367849,8,7,26,17,-1,7,-22,5
1511883507382886,-6,-5,-7,9,-1,10,-17,3
1511883507382886,-5,1,-32,8,-5,6,-20,-3
1511883507390917,10,4,-47,0,0,2,-3,1
1511883507390917,-10,-6,-54,-9,1,-6,-14,-3
1511883507405962,4,-6,-36,1,1,-8,-20,-4
1511883507405962,-4,8,-43,-13,-2,9,0,-1
1511883507413949,-8,-18,-58,-16,0,8,-15,-4
1511883507413949,2,14,-37,-11,0,7,-8,-1
1511883507421001,0,1,-32,-18,-5,8,-1,-1
1511883507421001,4,1,-19,-15,-4,4,-6,2
1511883507427908,7,4,-12,-20,-3,-2,-7,-6
1511883507427908,5,-10,-15,-19,3,-9,-8,-3
1511883507442949,6,-2,-3,-7,0,-2,-6,4
1511883507442949,9,-3,-13,-14,-5,-5,-13,7
1511883507450970,-14,-19,-27,-18,1,-9,-19,-4
1511883507450970,27,26,13,-2,-7,-15,-37,3
1511883507466002,-1,-8,-4,-2,-6,-23,-14,6
1511883507466002,-2,7,1,-14,5,-31,-23,-1
1511883507474020,8,8,-11,-17,-4,-15,-27,-6
1511883507474020,1,4,-4,-3,0,-1,-25,-2
1511883507489063,9,3,-21,4,2,0,-12,2
1511883507489063,2,0,-14,9,2,7,-29,1
1511883507489063,2,2,-1,5,6,2,7,5
1511883507489063,-10,-6,-17,-4,3,2,-11,-5
1511883507503075,-2,-1,-18,-11,-3,1,-13,-4
1511883507503075,-1,-23,-24,2,0,8,3,1
1511883507511601,7,23,-12,4,-2,7,14,4
1511883507511601,-17,-20,20,-5,-5,3,-4,-11
1511883507526142,-10,4,78,-5,-2,2,-8,-1
1511883507526142,11,5,81,-1,-2,10,25,4
1511883507534189,-2,6,48,-1,-3,5,19,7
1511883507534189,-1,-11,11,-1,3,5,10,-5
1511883507549230,9,6,8,0,1,-6,-5,2
1511883507549230,-4,4,-12,-5,-1,-1,32,-2
1511883507549230,4,-5,-16,0,5,-1,21,3
1511883507549230,-13,-8,-29,0,-4,8,31,1
1511883507563247,-15,-12,-44,-4,-7,11,0,-5
1511883507563247,-12,3,-48,-7,1,5,-16,-8
1511883507571287,7,0,-43,-7,4,-1,-8,1
1511883507571287,-9,-24,-63,-18,-1,-1,10,0
1511883507585298,21,20,-21,1,-5,6,18,7
1511883507585298,1,-1,-22,-3,-7,-3,12,-3
1511883507594322,-6,-11,11,1,-2,-3,-9,-5
1511883507594322,18,4,3,4,1,2,9,9
1511883507608360,-7,-5,-16,-5,0,-12,-2,-2
1511883507608360,-7,6,-19,-1,1,-14,-16,-3
1511883507609910,-9,5,-24,-1,-8,-5,-17,-4
1511883507609910,-15,-3,-13,-1,-4,0,-3,2
1511883507623445,6,10,-17,0,7,4,6,-2
1511883507623445,-6,-1,-20,-4,-3,-11,-6,-2
1511883507631390,-19,-21,-10,-2,6,-13,-4,-2
1511883507631390,-7,8,-2,4,3,-8,20,13
1511883507645454,-7,-2,-13,5,3,-12,-8,-5
1511883507645454,1,-5,-6,6,-1,3,10,-1
1511883507653475,6,5,-2,-2,-10,10,-3,-1
1511883507653475,9,8,0,-2,-2,4,-12,-5
1511883507668520,0,-11,-6,-4,8,12,1,-5
1511883507668520,0,0,-2,-3,3,14,-4,1
1511883507669492,6,15,0,-5,-1,2,6,3
1511883507669492,8,0,-3,-3,3,7,11,1
1511883507683529,6,0,-3,-8,5,3,0,1
1511883507683529,8,-2,0,-2,3,11,5,1
1511883507691551,7,-4,-3,1,0,4,2,-7
1511883507691551,1,-7,0,-10,-3,1,-11,-8
1511883507705717,0,-1,-1,-9,-2,9,4,4
1511883507705717,-12,-10,-1,-2,-7,20,-8,-4
1511883507714246,-15,-7,-2,-7,-2,40,10,1
1511883507714246,-6,2,0,0,4,25,-7,4
1511883507729336,-16,-1,-1,-4,2,27,15,2
1511883507729336,-10,1,-2,-4,6,6,-5,-4
1511883507729336,2,9,-1,4,4,7,3,-2
1511883507729336,-4,-3,1,-1,5,0,5,-4
1511883507743494,-3,-4,-3,-7,0,15,13,-4
1511883507743494,2,3,-1,5,3,17,-14,-2
1511883507751348,1,2,0,1,16,13,17,-1
1511883507751348,0,-1,0,-1,2,-2,2,-4
1511883507765386,2,-4,-2,1,-2,-2,-3,0
1511883507765386,18,-2,-1,-6,-3,-4,-2,-1
1511883507774456,31,1,0,-3,-2,-5,-11,1
1511883507774456,41,5,-1,-3,10,-6,5,3
1511883507788550,36,-2,-1,-12,-19,-44,-16,-9
1511883507788550,26,-2,0,-8,-5,-24,24,-1
1511883507789447,13,-5,-1,-5,-5,-22,6,4
1511883507789447,0,-6,-1,1,3,-17,-1,-3
1511883507803487,-5,2,-3,6,3,-14,-18,-1
1511883507803487,-15,1,-22,4,-2,-13,-2,4
1511883507811794,-26,4,-42,1,-6,-7,-13,-3
1511883507811794,-33,1,-45,1,-4,-8,-1,-4
1511883507825883,-31,-4,-36,5,5,0,14,0
1511883507825883,-35,-1,-25,1,2,-2,-1,0
1511883507833874,-26,2,-8,0,8,-13,-8,-3
1511883507833874,-16,4,-5,-4,-3,-12,-3,1
1511883507848954,-10,0,-6,-6,-7,-8,4,-4
1511883507848954,-5,-3,12,-1,12,-11,-2,4
1511883507849919,-2,-3,21,1,-3,-3,1,-1
1511883507849919,1,0,31,-3,0,1,0,0
1511883507862993,-4,0,27,-3,-4,1,3,-1
1511883507862993,3,-3,17,-1,-11,0,7,-2
1511883507871015,1,0,13,-4,-6,-2,5,2
1511883507871015,5,-6,5,-8,-3,4,2,-1
1511883507886012,9,-3,1,-7,5,2,-3,3
1511883507886012,6,-6,-5,-9,-1,-1,-10,0
1511883507894219,4,-1,-11,-4,-1,-14,-4,-5
1511883507894219,5,5,-10,-3,-5,6,4,0
1511883507909071,-1,-2,-10,1,-2,15,8,-1
1511883507909071,3,-2,-1,1,3,11,-4,-1
1511883507910076,3,-7,6,4,-1,0,5,-1
1511883507910076,1,-3,-6,0,4,-3,-2,0
1511883507923616,-4,0,-12,-3,9,-9,4,0
1511883507923616,-3,4,-8,1,-13,-11,11,1
1511883507931738,-2,2,-12,9,8,-1,7,2
1511883507931738,-3,1,-4,6,-8,2,10,-5
1511883507945777,0,8,-4,1,-3,-2,24,2
1511883507945777,-2,3,-8,-2,3,-9,3,0
1511883507953798,-6,-1,-10,-7,-3,-20,-1,1
1511883507953798,-7,-4,-7,0,-3,-26,-10,3
1511883507968864,-5,2,1,8,0,-12,20,0
1511883507968864,-5,-5,5,0,23,-7,0,-3
1511883507969867,2,-2,12,5,46,-5,-7,0
1511883507969867,6,-2,9,3,63,-8,-22,-3
1511883507982903,4,3,9,4,64,1,-22,-1
1511883507982903,4,2,11,0,66,10,-2,-1
1511883507990896,1,-1,14,-2,63,12,-5,0
1511883507990896,-1,-1,5,0,85,15,3,-1
1511883508005964,1,2,5,-6,82,4,-10,1
1511883508005964,3,5,-2,3,74,-14,3,-3
1511883508013961,4,-1,0,-1,42,-6,1,-3
1511883508013961,2,-6,-1,0,-23,-3,5,1
1511883508028449,0,-3,-1,-2,-43,-5,-9,3
1511883508028449,-4,-2,-1,-4,21,-13,-14,-1
1511883508029426,2,5,-3,-4,42,0,-12,0
1511883508029426,1,1,-7,9,73,-9,3,2
1511883508043487,2,-5,-7,22,32,-4,12,2
1511883508043487,0,-6,1,28,11,2,3,2
1511883508051509,2,-5,6,30,-9,3,2,-2
1511883508051509,-1,0,9,27,-47,4,-3,-3
1511883508065550,-1,-1,5,18,-66,-3,-14,-6
1511883508065550,2,2,-2,10,-89,5,-1,0
1511883508073571,-2,-1,-4,2,-95,0,3,0
1511883508073571,-1,2,1,-8,-87,-6,-2,-1
1511883508088585,-4,-1,6,-21,-57,-15,-3,-1
1511883508088585,-4,0,-1,-42,-60,-5,-1,-1
1511883508089598,-1,0,-1,-37,-56,3,0,1
1511883508089598,0,1,-9,-30,-44,5,7,3
1511883508102622,5,7,-18,-25,-22,4,-10,-5
1511883508102622,8,1,-14,-18,-26,2,5,0
1511883508111676,6,-1,-16,-15,-24,-2,1,1
1511883508111676,2,-5,-13,-10,-15,-4,-2,-2
1511883508125686,3,-7,0,-2,-3,5,-4,-2
1511883508125686,3,-5,5,6,-10,6,-7,-4
1511883508133710,-2,4,6,0,-9,2,0,-3
1511883508133710,-3,23,9,2,-6,3,0,3
1511883508147747,0,26,5,1,0,1,3,2
1511883508147747,-1,30,1,1,-5,-6,-9,0
1511883508156800,-2,20,3,-3,-5,3,-14,-5
1511883508156800,-1,10,6,-3,-4,13,-2,-1
1511883508162787,-9,5,6,2,0,9,-1,0
1511883508162787,-6,-3,7,5,-1,6,6,2
1511883508171837,-3,-8,0,7,-3,3,6,5
1511883508171837,-4,14,4,4,-3,3,-4,-6
1511883508185877,4,8,12,0,2,-1,-13,-2
1511883508185877,-8,8,7,-2,-2,-11,13,-2
1511883508194872,-7,19,2,2,-3,-9,-11,-2
1511883508194872,1,7,-5,0,-2,-1,0,0
1511883508207938,-9,-13,1,-4,1,-7,-6,-4
1511883508207938,4,16,3,-4,-2,-8,-11,0
1511883508217489,-12,-10,0,-1,-2,-12,7,-8
1511883508217489,7,-2,8,4,-20,-12,3,7
1511883508223504,-4,-6,8,4,-69,-11,10,0
1511883508223504,2,-18,3,7,-86,-9,5,-2
1511883508232568,9,-13,0,2,-90,4,12,3
1511883508232568,-2,-17,1,-4,-70,5,1,-5
1511883508245578,-9,-16,9,-5,-39,16,13,0
1511883508245578,1,-11,13,-6,-25,12,-13,-2
1511883508254603,-7,-10,5,0,-7,10,2,-2
1511883508254603,-5,-5,9,2,1,2,0,-4
1511883508267637,1,-4,-1,-1,10,7,2,3
1511883508267637,-10,-7,-8,6,13,7,2,-2
1511883508285685,-6,-12,-9,1,20,8,-6,-1
1511883508285685,-3,-21,-7,-10,12,10,-3,2
1511883508285685,-3,-17,-18,-5,17,14,2,-5
1511883508285685,-8,-22,-11,2,21,10,7,-2
1511883508291701,13,-12,-2,3,18,7,-11,3
1511883508291701,-2,-40,-2,3,19,1,3,-9
1511883508305765,-7,-45,1,3,21,-7,7,5
1511883508305765,6,-34,3,4,18,-4,-6,-1
1511883508314793,-12,-25,1,-2,11,-17,-5,3
1511883508314793,-4,-31,1,7,10,1,-3,6
1511883508327877,16,28,22,7,13,-6,2,2
1511883508327877,-9,-12,8,-1,10,-12,3,-3
1511883508336879,2,4,14,-1,7,-7,7,1
1511883508336879,-4,5,7,-5,11,-13,-1,-2
1511883508342895,-4,-6,-1,-4,9,-8,-12,-6
1511883508342895,-4,14,9,-2,10,3,-1,-1
1511883508351930,8,13,1,-2,7,-1,-9,-3
1511883508351930,2,14,-12,-3,3,-5,5,-4
1511883508365956,9,15,-14,2,10,-5,-5,-5
1511883508365956,1,11,-11,-4,6,-7,-10,1
1511883508374980,-2,-4,-12,1,6,0,-4,-2
1511883508374980,6,7,-13,4,2,2,9,2
1511883508388041,12,6,-10,0,8,-2,-7,4
1511883508388041,-1,3,-6,0,12,4,4,3
1511883508397044,5,3,5,1,8,-1,-6,2
1511883508397044,2,4,2,-1,9,-8,-7,-3
1511883508412134,2,1,2,-3,6,1,6,1
1511883508412134,0,5,0,-6,4,4,4,-4
1511883508413619,0,7,10,-1,0,8,7,-8
1511883508413619,-4,6,10,4,6,-5,-6,-2
1511883508426147,-1,-3,5,7,1,-3,-7,3
1511883508426147,2,-1,0,1,2,-1,2,5
1511883508434196,-4,12,-4,-4,3,-5,-3,2
1511883508434196,-10,5,-12,-7,5,3,-12,0
1511883508448232,-7,3,-2,-2,2,1,-7,0
1511883508448232,6,4,-3,-4,2,1,2,1
1511883508457229,8,4,-4,-4,3,0,11,0
1511883508457229,2,-1,0,1,3,1,8,-3
1511883508472297,-8,-5,-5,2,3,-13,-7,-1
1511883508472297,1,-3,-12,10,-1,2,5,-4
1511883508473297,-8,-4,-11,4,-7,2,-10,-5
1511883508473297,4,6,-9,2,-6,3,-3,2
1511883508485331,1,5,-8,-5,-2,5,-1,-2
1511883508485331,-7,-3,0,-3,0,-12,-11,-1
1511883508494328,3,3,2,0,7,-1,-8,3
1511883508494328,3,3,4,-1,-3,0,-1,-4
1511883508508392,0,-2,-6,-1,-8,19,4,-1
1511883508508392,1,2,-3,2,-3,18,1,8
1511883508517419,1,5,0,-1,6,8,1,-1
1511883508517419,2,4,7,-3,5,6,0,3
1511883508531482,-11,1,1,-2,1,-3,-6,-3
1511883508531482,-6,0,0,0,-1,2,-5,-2
1511883508533487,-6,-3,6,5,0,4,-9,0
1511883508533487,-14,-13,-3,1,-5,1,16,2
1511883508545519,31,17,11,8,-9,-4,7,7
1511883508545519,-11,-4,4,12,1,-2,4,-1
1511883508554554,3,-8,-1,-1,-7,1,5,-2
1511883508554554,10,4,0,-1,-3,-1,0,-5
1511883508568606,-1,-6,-3,-2,-3,-1,-7,-3
1511883508568606,-3,-2,-4,1,-5,-4,4,-3
1511883508576628,-3,-11,-5,0,-1,3,-1,-3
1511883508576628,-2,5,3,-6,-5,4,1,2
1511883508591641,-8,-1,-2,-4,3,-1,0,-3
1511883508591641,12,4,-1,0,2,-2,-6,1
1511883508597686,-9,-8,-9,-1,-3,-3,4,-4
1511883508597686,11,0,1,5,0,0,-6,5
1511883508605707,-5,-3,2,-7,8,-1,-2,-5
1511883508605707,18,9,3,-5,1,-4,-9,-1
1511883508614732,11,3,1,0,0,-1,4,1
1511883508614732,9,-4,3,-1,42,-12,-13,-2
1511883508627813,19,5,3,-2,61,-1,1,3
1511883508627813,6,-10,3,-6,63,5,1,0
1511883508636831,4,7,0,-9,47,3,-1,-1
1511883508636831,3,4,-5,-7,24,2,-8,2
1511883508650878,-23,-6,-12,-4,10,-2,-1,-1
1511883508650878,-3,-8,-2,-4,3,-4,-1,-3
1511883508657897,-9,-8,4,5,-7,-3,2,0
1511883508657897,10,6,8,3,-11,-4,-7,1
1511883508665918,-1,-1,3,0,-9,-6,0,-5
1511883508665918,5,3,-2,-2,-15,-4,0,-3
1511883508674915,5,1,-7,-3,-7,-2,5,-1
1511883508674915,-12,-7,-1,0,-9,-3,2,-4
1511883508687950,-3,-3,6,-2,-16,-1,0,0
1511883508687950,-5,6,11,11,4,-5,-5,-3
1511883508696974,-3,4,7,26,2,-3,-2,0
1511883508696974,-6,-4,1,34,-13,-2,2,-2
1511883508711530,-5,-7,3,46,-23,5,4,-1
1511883508711530,-9,-6,0,34,-26,-1,1,1
1511883508718547,-11,-1,0,20,-24,-3,-6,-1
1511883508718547,-6,9,-5,12,-25,-7,0,4
1511883508726066,-1,5,-4,-4,-24,-8,-1,0
1511883508726066,2,4,0,-19,-21,-4,1,0
1511883508734089,4,1,-1,-28,-14,-10,-6,1
1511883508734089,-7,-4,1,-40,-2,-7,-4,-6
1511883508748127,-13,-5,-2,-46,-10,3,12,1
1511883508748127,-29,-1,-1,-48,-2,-12,-9,-2
1511883508757151,-25,2,-3,-45,-5,0,0,2
1511883508757151,30,-4,-6,-33,-5,-5,-2,-4
1511883508770185,35,0,-8,-21,-5,4,-5,0
1511883508770185,15,-2,-4,-11,-10,1,5,2
1511883508779209,1,-4,0,2,-10,-4,0,5
1511883508779209,-18,1,0,11,-6,1,-10,1
1511883508785225,-10,0,-1,16,1,-3,-5,-6
1511883508785225,-7,-1,-12,10,-8,3,13,-2
1511883508794249,4,3,-6,12,-1,-2,0,-4
1511883508794249,4,7,1,18,1,-8,-9,-1
1511883508808287,8,9,-1,20,-10,-6,19,6
1511883508808287,-5,7,-3,23,-6,-6,-15,2
1511883508817313,-1,1,4,16,-14,6,3,1
1511883508817313,-7,-9,1,12,-19,8,-8,-5
1511883508831032,-10,-10,-5,12,-5,4,-6,-3
1511883508831032,2,-6,-3,23,-5,-2,-8,-1
1511883508839926,7,-9,-3,113,2,0,4,0
1511883508839926,-6,0,0,106,2,0,-1,1
1511883508845946,3,9,5,76,0,-1,-6,3
1511883508845946,5,-3,6,22,3,9,13,3
1511883508854426,12,0,3,-25,9,4,1,4
1511883508854426,1,-6,1,-29,2,4,14,0
1511883508868525,-7,-4,-3,-37,9,-8,-6,-11
1511883508868525,-1,0,-3,-34,10,2,7,-1
1511883508877422,10,12,2,-50,8,-2,-2,-4
1511883508877422,-3,3,2,-46,13,2,-2,-1
1511883508892576,-4,-5,-4,-50,11,2,-2,-3
1511883508892576,-1,-5,-1,-33,10,3,-8,-1
1511883508893474,-12,-1,0,-35,3,-2,-6,1
1511883508893474,-9,0,3,-39,-1,0,-3,1
1511883508905687,6,-6,-4,-23,-5,-2,10,4
1511883508905687,12,10,2,-6,2,-2,12,-4
1511883508914520,7,0,-7,-15,7,-11,-5,-2
1511883508914520,5,4,-7,-18,8,-1,7,-1
1511883508928654,-1,-2,1,-9,7,0,-4,4
1511883508928654,3,-4,4,-1,3,-3,-4,1
1511883508937590,2,-3,3,-8,1,-3,-3,-2
1511883508937590,-1,-7,-3,-5,-3,3,13,2
1511883508951658,-4,-6,-2,0,-4,-3,-9,-3
1511883508951658,2,2,4,1,-14,6,0,3
1511883508953636,0,3,1,-8,-10,8,-15,-7
1511883508953636,-2,-3,1,-9,-9,8,-4,1
1511883508965668,-5,-3,-2,-9,-1,4,-8,0
1511883508965668,-6,3,-11,-12,-1,-4,-7,-9
1511883508974693,1,-6,0,-11,7,-6,-1,2
1511883508974693,2,-2,-1,-5,7,-11,-4,0
1511883508987756,-4,-3,-2,3,1,-8,-3,0
1511883508987756,-9,2,-1,4,3,-9,-10,1
1511883508996788,-12,-1,-9,1,3,-4,3,-3
1511883508996788,-10,3,-6,-2,13,8,-1,-7
1511883509011817,-8,6,-2,2,7,5,-5,-5
1511883509011817,-9,-6,-5,-2,-3,1,-5,-5
1511883509013823,-2,-4,-36,-2,-9,9,3,13
1511883509013823,-6,0,-33,-11,-7,-6,-1,6
1511883509025855,-9,6,-28,-9,4,-11,13,2
1511883509025855,-1,-2,-14,0,-6,-13,9,0
1511883509034906,-1,-6,16,20,-10,-14,15,-5
1511883509034906,-3,-1,23,49,-10,-5,13,-2
1511883509048333,1,4,23,42,-11,6,6,-2
1511883509048333,5,1,22,28,-6,10,11,1
1511883509057352,-8,-1,17,13,-46,0,-17,-9
1511883509057352,-3,-5,20,-5,-67,4,0,-7
1511883509072397,-3,-9,22,-8,-54,0,-3,-6
1511883509072397,9,8,9,-15,-35,-4,-7,2
1511883509073377,9,6,-1,-9,-6,1,16,27
1511883509073377,0,-3,-5,-11,10,-7,2,5
1511883509085432,-10,-6,-2,1,9,-3,3,0
1511883509085432,14,10,5,6,9,-3,0,-6
1511883509094433,-10,2,1,3,24,-7,4,-10
1511883509094433,-9,2,-3,-3,39,-8,5,-3
1511883509108498,-1,2,-5,-3,54,-3,0,7
1511883509108498,-19,-1,-5,-3,49,1,-1,-3
1511883509117522,-4,2,1,-14,36,-1,-8,2
1511883509117522,0,-6,2,-12,18,-3,-1,2
1511883509132082,2,-7,-2,-15,5,1,-10,-3
1511883509132082,-9,-12,-6,5,3,0,-8,-5
1511883509134076,-4,-3,-14,17,0,7,2,-14
1511883509134076,9,4,-9,48,4,3,0,20
1511883509145608,3,-3,-9,57,1,-1,5,4
1511883509145608,1,4,-3,44,-7,4,8,10
1511883509154541,1,-3,9,27,-2,1,-1,-7
1511883509154541,7,8,7,11,-5,-5,-8,-7
1511883509168564,2,11,3,8,-6,1,10,1
1511883509168564,-5,-9,-8,8,-7,-1,-6,-1
1511883509177588,2,-4,-4,6,1,-2,-9,-5
1511883509177588,-1,-5,-33,-3,-8,0,0,-3
1511883509191626,-3,-5,-41,-17,-11,2,-5,-4
1511883509191626,-3,-3,-38,-20,-5,7,-3,-5
1511883509197665,1,3,-24,-25,-7,2,-7,3
1511883509197665,-2,4,-10,-33,-6,0,-3,-3
1511883509205689,4,3,-7,-33,-4,-5,-5,-2
1511883509205689,3,-5,-2,-30,5,3,11,5
1511883509214688,1,-4,7,-23,9,-1,1,-3
1511883509214688,4,-4,14,-25,23,-1,-11,-8
1511883509227749,-3,-1,15,-23,25,-9,-3,-5
1511883509227749,-1,0,9,-13,22,-4,-21,6
1511883509237279,4,8,5,-8,30,-4,-31,7
1511883509237279,-12,-8,-2,-3,30,-1,-34,-3
1511883509250840,-1,8,3,-4,16,2,-15,-4
1511883509250840,7,3,2,-12,-6,-5,-11,-4
1511883509259841,-9,-40,-33,-12,-33,-2,-9,-5
1511883509259841,23,39,20,-6,-46,1,1,7
1511883509265882,8,10,13,-7,-44,-1,14,1
1511883509265882,0,-2,4,-3,-37,0,39,-4
1511883509274881,-10,-8,-2,-4,-30,-3,49,-5
1511883509274881,3,-9,10,-9,-29,-3,34,3
1511883509287939,-6,-12,17,-1,-25,3,21,-1
1511883509287939,12,11,25,3,-13,2,18,0
1511883509296952,0,-5,17,7,-6,1,12,5
1511883509296952,-12,-14,5,6,-4,5,-6,-20
1511883509310977,5,1,8,5,0,-2,-11,8
1511883509310977,-11,-7,-2,-2,4,6,-9,-6
1511883509320027,-13,9,1,5,9,18,1,-1
1511883509320027,11,2,-2,-4,5,-6,-11,16
1511883509326043,-8,-5,-4,-7,12,4,-2,-7
1511883509326043,10,2,3,-9,9,-13,-4,8
1511883509334565,4,9,7,-18,6,-2,1,-4
1511883509334565,0,7,2,-16,7,-4,-1,-1
1511883509347623,-6,-11,-2,-11,2,-8,-11,-4
1511883509347623,-6,-13,-5,-7,-3,-2,-16,1
1511883509356742,4,11,13,-2,0,2,-3,-7
1511883509356742,-9,-8,-6,-2,6,-3,-1,-12
1511883509370782,5,-1,-3,-1,-7,2,6,5
1511883509370782,2,1,-2,0,20,-8,-5,-1
1511883509379780,9,4,5,-6,-8,-12,1,5
1511883509379780,2,-1,1,5,-6,2,-7,1
1511883509394848,1,10,5,6,5,-1,1,7
1511883509394848,-8,2,1,0,7,0,-3,-10
1511883509395833,3,3,-3,4,5,0,1,-1
1511883509395833,-8,-14,-4,5,2,-6,-1,2
1511883509407855,3,1,-8,5,-6,-1,-4,-2
1511883509407855,-6,-2,-9,3,-10,-1,-5,6
1511883509416879,-3,0,4,-7,-5,-5,-10,5
1511883509416879,5,5,9,-7,3,0,5,-6
1511883509430916,1,-10,4,-14,6,-3,-17,-10
1511883509430916,-1,-10,8,-22,-7,5,19,2
1511883509439968,4,-5,11,-43,2,-3,-4,-6
1511883509439968,-11,-7,109,-43,-1,8,3,0
1511883509454539,-11,-1,125,-30,2,5,-5,-5
1511883509454539,6,9,127,-12,-14,13,-4,8
1511883509456545,4,11,74,9,-3,7,-2,3
1511883509456545,-7,-11,-30,1,-5,3,1,1
1511883509468550,8,1,-86,8,-8,-4,6,2
1511883509468550,-2,-3,-128,14,1,-8,-14,-4
1511883509477578,7,-1,-117,24,-1,42,-12,0
1511883509477578,3,-7,-119,19,-3,75,-6,1
1511883509490639,-2,-5,-113,13,5,76,2,3
1511883509490639,-2,3,-110,16,1,65,5,0
1511883509499633,0,5,-98,20,7,25,-3,-1
1511883509499633,-2,6,-85,21,10,25,10,-8
1511883509514673,4,-1,-66,16,4,19,-8,-5
1511883509514673,-1,0,-48,20,7,-14,9,-2
1511883509515676,-2,-6,-27,15,5,-37,-6,1
1511883509515676,-5,-5,-13,9,-1,-48,-5,4
1511883509527734,0,6,13,6,1,-32,-10,0
1511883509527734,2,5,22,-1,-22,-16,-2,1
1511883509537234,-4,-4,19,-2,0,7,9,-2
1511883509537234,-2,14,4,3,4,1,-4,-2
1511883509550695,-5,-2,6,-1,10,6,9,-1
1511883509550695,3,-7,13,-9,-7,-7,-8,-6
1511883509559711,-4,-13,9,-11,-3,-11,8,-3
1511883509559711,7,3,18,-11,-3,-12,3,3
1511883509574767,-3,3,12,-10,1,-8,2,-2
1511883509574767,1,-1,5,-7,9,-1,5,0
1511883509575753,1,2,14,2,-4,-4,-1,-2
1511883509575753,5,-2,15,3,0,-12,-4,0
1511883509587797,3,2,5,1,-32,-20,-13,3
1511883509587797,-2,-12,1,-7,-33,-15,-11,-5
1511883509596795,-6,-9,0,-8,-24,-17,-2,4
1511883509596795,-2,10,-17,-9,-20,-17,-10,1
1511883509610832,2,-6,-19,-14,-7,-10,10,5
1511883509610832,-2,-5,-46,-17,-8,-11,-12,-2
1511883509619856,-1,-4,-73,1,-9,3,3,-2
1511883509619856,5,3,-95,6,-7,-13,19,-2
1511883509634450,-4,-4,-92,6,-7,-10,7,-2
1511883509634450,-4,5,-64,3,5,-6,3,-4
1511883509636429,6,11,-35,6,8,-9,0,2
1511883509636429,1,-6,-23,5,1,-8,8,3
1511883509648516,5,1,-15,11,3,-18,0,2
1511883509648516,1,-4,-2,8,2,-17,-10,-3
1511883509657542,0,3,13,10,10,-8,-3,-7
1511883509657542,-1,-3,24,7,6,-4,-5,7
1511883509670571,-6,-2,26,9,0,-8,-1,-8
1511883509670571,1,1,31,3,10,9,10,1
1511883509679571,-6,2,35,-1,6,1,-5,-9
1511883509679571,-4,-5,30,-4,9,8,-4,-1
1511883509694649,2,-3,32,-5,3,5,-6,-3
1511883509694649,1,6,15,-1,3,2,-14,3
1511883509695646,-8,-2,-9,-9,1,1,6,3
1511883509695646,0,-6,-2,-4,4,-7,6,-4
1511883509707678,4,1,-3,-2,8,-4,1,1
1511883509707678,-14,-10,-6,-6,-1,-7,-6,5
1511883509716675,15,10,18,-1,-16,-6,7,5
1511883509716675,-11,-5,36,9,-16,-1,2,-1
1511883509730740,3,18,43,7,-13,-9,-7,-3
1511883509730740,1,1,29,4,-2,-7,12,-6
1511883509739752,8,-2,23,-1,-6,-2,-8,5
1511883509739752,-5,1,37,6,-2,2,1,1
1511883509754638,1,4,51,1,14,6,3,5
1511883509754638,3,1,54,5,17,2,4,-7
1511883509755616,-12,-9,63,-1,9,-7,-12,-9
1511883509755616,-11,-21,51,-4,10,4,4,-6
1511883509768680,1,15,72,0,14,4,-9,2
1511883509768680,-1,7,64,5,12,-5,0,5
1511883509777675,3,9,43,1,13,-5,6,-1
1511883509777675,-5,-1,5,-1,2,9,-7,-7
1511883509790755,-4,-18,-24,1,1,19,1,2
1511883509790755,10,2,-22,3,1,24,1,4
1511883509799727,7,3,-29,1,3,24,-11,-1
1511883509799727,-2,-8,-39,1,-1,17,-1,-2
1511883509814771,8,0,-65,6,-2,12,-2,4
1511883509814771,5,11,-85,7,-8,2,-5,-4
1511883509815774,-9,0,-76,8,-9,-6,-4,-1
1511883509815774,8,9,-64,12,-1,-8,4,0
1511883509828837,-11,-16,-55,4,-3,-11,5,-6
1511883509828837,4,-5,-28,-4,-4,-8,-1,0
1511883509837335,4,-8,-9,-1,3,-19,-70,2
1511883509837335,-1,-7,3,-4,0,-23,-90,-3
1511883509850585,-1,-8,21,-2,-8,-9,-72,-2
1511883509850585,-1,-13,15,6,2,-2,-56,0
1511883509859611,1,13,22,6,3,11,-7,4
1511883509859611,15,2,48,5,1,8,10,4
1511883509874781,4,-4,69,4,0,4,14,-5
1511883509874781,-3,-13,59,4,-4,-1,22,-5
1511883509876660,-9,-20,5,10,6,4,54,1
1511883509876660,6,9,-20,23,8,0,41,-1
1511883509896712,-5,2,-25,13,6,5,37,-2
1511883509896712,-5,-5,-23,3,2,10,22,-4
1511883509898737,-1,-16,-28,-1,8,8,18,-4
1511883509898737,-2,0,-22,-4,9,4,6,0
1511883509910933,3,-1,-22,6,11,12,3,2
1511883509910933,-3,-5,-2,-8,5,41,-9,0
1511883509919769,4,17,30,-7,-13,37,13,4
1511883509919769,0,-10,0,-11,18,41,13,-3
1511883509934855,1,-5,-4,-7,-4,27,11,-1
1511883509934855,2,16,-6,-8,0,20,16,3
1511883509936334,0,0,4,-1,-3,14,11,-5
1511883509936334,-1,4,11,-9,-15,10,12,-4
1511883509948521,-2,0,3,-10,-6,-4,3,-3
1511883509948521,-6,1,0,-8,-5,-7,14,-5
1511883509956543,-3,8,5,-15,2,-18,11,-2
1511883509956543,-11,1,15,-8,-1,-31,-17,-3
1511883509970580,1,0,10,-8,2,-23,-4,2
1511883509970580,6,1,15,6,6,-24,3,6
1511883509979603,1,-4,8,3,9,-18,3,-1
1511883509979603,1,-3,4,0,0,-23,13,2
1511883509994644,-6,-2,5,-4,-10,-9,30,-7
1511883509994644,-1,3,9,-2,1,-20,61,-3
1511883509995647,0,-2,8,-9,7,-9,50,-1
1511883509995647,4,4,2,-4,2,-12,50,4
1511883510007708,-1,1,-8,-16,0,-23,22,2
1511883510007708,-5,-12,4,-5,-8,-17,-8,0
1511883510016729,7,11,4,1,-12,-15,-13,0
1511883510016729,-1,0,4,-2,-13,-7,-6,-4
1511883510030754,-4,0,0,-3,-11,-11,-38,-1
1511883510030754,-1,-2,2,5,-21,-15,-31,-2
1511883510039793,-3,-3,3,6,-23,-17,-10,2
1511883510039793,0,3,4,7,-19,-15,5,-2
1511883510054381,4,2,-4,9,2,-5,19,2
1511883510054381,0,-1,-2,9,30,-7,3,3
1511883510056390,-3,-3,-5,-5,34,5,-15,2
1511883510056390,1,2,14,-6,21,4,-8,2
1511883510068417,-4,0,15,-3,22,7,-9,-3
1511883510068417,0,4,7,-9,19,7,-24,-2
1511883510077416,-3,1,11,-7,11,-5,-20,-5
1511883510077416,1,3,8,-13,4,4,-6,-3
1511883510090477,-2,-3,10,-14,-3,-5,-23,-6
1511883510090477,-2,1,7,-4,0,2,-25,-1
1511883510099474,-4,-5,-1,1,-4,6,-12,2
1511883510099474,-8,-2,-10,0,-6,6,-14,0
1511883510114515,-1,0,-5,0,-7,10,-13,3
1511883510114515,4,3,-9,-13,-1,5,1,6
1511883510115518,5,-3,3,-16,-3,2,-4,-1
1511883510115518,6,2,21,-17,-2,0,-7,1
1511883510128552,3,0,41,-7,4,-12,-6,3
1511883510128552,-2,-2,41,0,-8,-19,0,0
1511883510137079,-1,-2,35,3,-15,-13,3,0
1511883510137079,-6,-4,21,7,-8,-25,-30,-10
1511883510150115,-6,-2,17,7,-7,-5,-13,-1
1511883510150115,-5,-4,17,10,1,5,-4,0
1511883510159140,-5,-5,17,6,-2,0,-4,2
1511883510159140,-3,1,18,-2,-2,4,4,5
1511883510174205,3,-3,7,-7,1,38,15,1
1511883510174205,-2,0,-26,-7,-10,38,2,-4
1511883510180206,-3,2,-39,-2,-7,54,-7,-10
1511883510180206,-4,1,-39,4,5,58,-3,-6
1511883510188243,3,11,-33,4,0,40,-8,1
1511883510188243,-1,3,-17,7,-12,36,-4,1
1511883510197241,1,-2,-15,5,6,11,1,5
1511883510197241,-1,-2,-5,-1,5,-10,7,6
1511883510210301,-4,-2,0,5,9,-50,-1,-5
1511883510210301,-6,-3,4,4,1,-9,7,-4
1511883510219320,-1,-6,15,1,-9,-24,-16,1
1511883510219320,11,-2,11,-1,-10,-11,-1,5
1511883510233893,-1,-6,-6,3,-3,-24,1,1
1511883510233893,2,-2,-5,4,-10,-34,14,-2
1511883510240885,0,2,1,-3,2,-18,-8,-4
1511883510240885,-6,4,-5,-7,-3,-11,7,3
1511883510248429,-4,1,-4,-11,-3,-11,5,-1
1511883510248429,-2,3,-1,-13,4,-12,-6,-3
1511883510257480,1,4,5,-4,5,-4,-5,2
1511883510257480,1,-12,-2,2,7,-10,1,-4
1511883510270511,-2,-4,-6,7,4,-1,-4,-2
1511883510270511,-6,-3,8,0,3,-3,-7,-3
1511883510279512,6,0,10,-5,5,-9,13,4
1511883510279512,-4,1,-2,-9,10,-4,-4,-6
1511883510293577,5,1,-22,-2,4,4,0,1
1511883510293577,-1,-1,-34,-4,4,-3,-7,-3
1511883510300597,-7,-1,-43,-3,3,-5,-9,-4
1511883510300597,7,1,-32,-3,-2,1,-8,-1
1511883510308591,-11,-5,-21,-14,-9,5,10,-6
1511883510308591,15,-2,-4,-7,-6,-5,0,4
1511883510316633,-6,-6,3,-2,-1,-3,2,-4
1511883510316633,5,-4,-13,-3,2,2,-9,4
1511883510339730,-7,-5,-4,0,2,-1,-2,0
1511883510339730,2,-5,-4,-1,3,-4,-5,1
1511883510341238,1,-7,1,2,1,-1,-7,0
1511883510341238,-7,0,13,4,-2,0,19,-1
1511883510354267,4,1,13,4,-3,0,4,1
1511883510354267,-4,4,-9,4,-4,-25,1,2
1511883510360286,5,7,-25,-3,-5,-46,6,2
1511883510360286,-8,6,-18,-1,-4,-52,3,-1
1511883510377304,-5,9,-13,-3,-6,-45,5,2
1511883510377304,6,-1,-5,-12,-1,-33,15,6
1511883510378307,13,-8,-3,-2,-7,-20,27,1
1511883510378307,12,-3,-2,-1,-4,-18,-6,-2
1511883510390368,6,3,3,8,9,-3,-17,-11
1511883510390368,19,9,14,13,10,4,-4,4
1511883510399393,2,9,18,5,-3,2,-16,0
1511883510399393,-9,5,-8,3,-10,5,13,4
1511883510413432,12,10,-22,2,-2,6,7,5
1511883510413432,-6,1,-31,4,-3,6,-2,-7
1511883510420452,-1,-3,-13,3,1,-1,2,-2
1511883510420452,-4,-11,10,1,-1,2,-3,-2
1511883510436966,-4,-14,21,0,0,-9,-18,-2
1511883510436966,-10,-7,19,-3,-4,2,23,2
1511883510438971,-6,-3,8,-3,-7,-10,0,-1
1511883510438971,-11,-7,-8,1,0,-8,-10,-2
1511883510450503,-6,0,-25,6,-9,-2,15,2
1511883510450503,-8,-1,-14,6,-2,2,3,1
1511883510459527,-5,2,-13,6,-1,7,-9,3
1511883510459527,-1,6,-4,0,0,14,20,-2
1511883510473591,2,0,1,-5,4,-17,-15,-1
1511883510473591,-22,-2,1,1,0,6,-15,-8
1511883510480582,-5,8,-5,0,-4,16,7,3
1511883510480582,-3,-5,-8,2,-4,6,-11,-6
1511883510504670,-6,1,2,0,-5,20,4,8
1511883510504670,-5,-1,-1,-4,-3,8,-7,-7
1511883510505650,10,-2,3,3,-1,4,-6,-2
1511883510505650,4,-5,6,5,7,17,-10,3
1511883510510663,-2,-4,10,8,3,18,-11,-2
1511883510510663,-4,-3,14,1,4,11,-21,-3
1511883510519687,-5,-1,-1,2,7,16,-28,-4
1511883510519687,11,11,0,1,1,3,-32,3
1511883510533790,0,-3,2,0,1,2,-39,-2
1511883510533790,-1,-3,7,1,1,-4,-35,-3
1511883510540785,-3,3,12,-1,-1,5,-9,-4
1511883510540785,2,3,5,-5,-5,0,-42,-4
1511883510556850,-4,0,-7,-1,-1,3,-12,10
1511883510556850,-3,-4,-7,0,2,-9,-31,0
1511883510558835,-7,-3,-7,-1,0,-4,-14,0
1511883510558835,-6,1,0,1,3,-5,2,-4
1511883510570867,2,-2,3,0,-4,1,39,-2
1511883510570867,1,-6,-3,-2,-5,5,65,-3
1511883510579891,-4,-7,-1,-1,0,20,70,-6
1511883510579891,-4,-6,4,0,-1,22,47,4
1511883510593954,-3,2,6,4,5,16,49,5
1511883510593954,17,2,11,2,3,9,43,7
1511883510600975,6,-2,15,-5,1,-19,18,-2
1511883510600975,-4,-1,22,2,2,-4,14,-2
1511883510617018,13,3,22,1,-5,-15,7,-3
1511883510617018,-6,3,7,3,-3,-17,6,-1
1511883510619021,5,-1,18,1,1,-9,-13,-4
1511883510619021,8,9,29,-4,-2,-5,-1,1
1511883510631027,4,2,6,-8,3,-2,2,-3
1511883510631027,-3,-3,-14,-4,-4,-1,-13,-1
1511883510640082,-1,1,-21,1,-1,-3,-2,-1
1511883510640082,-6,-13,-17,5,2,-3,7,0
1511883510654122,-8,-4,-4,10,1,-3,-6,-4
1511883510654122,5,0,-1,5,3,-4,-2,4
1511883510660138,-4,0,-4,6,-1,0,1,2
1511883510660138,9,8,-10,0,-13,-13,4,1
1511883510677209,-2,-2,-11,1,-13,-5,-1,-8
1511883510677209,14,0,-15,-1,-14,2,-9,7
1511883510678212,-2,2,-9,2,-7,44,-11,-1
1511883510678212,-4,-5,-13,2,4,61,-19,-2
1511883510690244,-9,-11,-7,-9,10,68,2,-6
1511883510690244,13,6,10,1,11,46,6,2
1511883510699343,1,-6,0,-5,12,13,1,2
1511883510699343,11,1,-11,1,7,-12,0,-2
1511883510714317,-1,-5,-18,3,2,-16,-2,-4
1511883510714317,0,5,-4,2,1,-15,-1,-6
1511883510720318,9,-2,-10,6,-8,-20,2,-4
1511883510720318,-5,-5,1,0,0,-36,-8,-3
1511883510737382,5,10,11,-1,-5,-39,-8,6
1511883510737382,13,2,14,-2,-1,-40,-8,4
1511883510738866,6,-4,4,-2,-3,-34,-12,4
1511883510738866,3,-4,-4,-2,0,-37,1,2
1511883510751015,4,-5,11,-3,6,-32,7,1
1511883510751015,-5,4,32,-2,-1,-18,-9,-9
1511883510760036,-2,-1,23,-6,-3,0,4,-2
1511883510760036,-4,-5,13,-4,2,4,4,-3
1511883510774189,-3,-2,1,2,0,9,-7,-4
1511883510774189,-22,-4,-2,-1,-1,11,5,-1
1511883510781093,-7,-2,14,-1,-3,1,0,4
1511883510781093,-3,6,17,-2,1,3,0,3
1511883510797135,2,-3,32,-6,3,0,0,2
1511883510797135,-7,-1,25,-2,7,4,-14,-6
1511883510798156,-7,2,18,-6,-4,-5,-3,-3
1511883510798156,-1,8,2,-3,-3,8,1,-2
1511883510811240,-4,-1,-6,0,-7,11,-11,-7
1511883510811240,-3,-5,-23,2,-4,27,9,-3
1511883510820225,-2,-5,-21,7,4,21,-5,5
1511883510820225,-8,-7,-15,5,-2,31,-2,-4
1511883510834344,-8,3,-9,1,-3,9,-3,1
1511883510834344,-27,-7,9,1,-8,15,-7,-1
1511883510840760,-19,2,15,1,3,18,-5,3
1511883510840760,-14,3,13,0,4,10,-1,1
1511883510857603,-10,1,6,3,-4,12,3,6
1511883510857603,-5,1,-11,1,-1,-5,-2,-2
1511883510858435,-11,-4,-30,-3,2,-9,3,-4
1511883510858435,-2,0,-34,6,4,-9,-4,-3
1511883510870552,1,-2,-34,0,6,-8,-5,-2
1511883510870552,1,3,-23,0,0,-11,-3,0
1511883510879488,-3,5,-12,-4,20,-21,-11,-1
1511883510879488,5,1,-14,-5,31,-15,-7,2
1511883510893703,-1,-2,-17,-9,23,-15,-13,1
1511883510893703,7,-7,-20,-10,12,-25,-14,5
1511883510900547,6,-6,-24,-1,-6,-26,-6,-3
1511883510900547,5,-3,-21,-4,-8,-26,11,-1
1511883510916591,-7,8,-33,-2,-9,-16,12,-6
1511883510916591,6,0,-35,-8,-8,-10,4,-4
1511883510918598,4,3,-21,-1,-13,-5,2,3
1511883510918598,1,5,-9,-4,-19,-7,-2,-1
1511883510930627,-7,-14,-12,-5,-9,-2,3,-4
1511883510930627,15,11,-12,-2,-5,0,3,4
1511883510939701,5,0,-6,2,1,10,-9,-3
1511883510939701,-1,-8,-4,6,-4,17,1,-3
1511883510953766,3,3,6,1,-1,10,-13,-1
1511883510953766,-1,-5,-2,0,5,9,-9,0
1511883510960791,-4,-4,4,-4,5,6,-8,-2
1511883510960791,2,-2,17,-3,-3,11,-9,2
1511883510976798,10,-2,16,-6,-8,5,1,5
1511883510976798,2,-5,20,3,-4,5,15,-2
1511883510978803,8,8,27,1,-8,-3,13,-3
1511883510978803,2,3,26,-4,1,-3,11,-4
1511883510990865,1,2,13,0,15,-7,14,-1
1511883510990865,-2,0,11,1,11,-10,0,-2
1511883510999886,1,-1,0,2,2,3,2,-2
1511883510999886,0,11,-1,8,-7,5,2,5
1511883511013897,-1,0,-3,6,-12,11,-1,2
1511883511013897,-5,-4,-1,0,-22,10,6,6
1511883511020941,-5,-9,0,-1,-20,0,1,-2
1511883511020941,0,-9,-1,1,-13,-7,-7,0
1511883511037015,6,-9,-2,3,-9,-1,1,1
1511883511037015,1,1,-6,6,0,0,-2,0
1511883511039019,7,3,-4,1,-12,3,1,4
1511883511039019,-2,2,-4,-4,-7,-2,2,11
1511883511059071,-4,6,-7,-2,10,-1,8,10
1511883511059071,-3,-2,-10,-8,5,4,8,3
1511883511061076,-2,-1,0,0,3,3,5,-3
1511883511061076,1,-6,-11,1,-4,-3,1,-6
1511883511074138,2,-3,-1,3,-14,-12,-6,-7
1511883511074138,-2,0,-2,1,-10,-10,-5,-6
1511883511080153,-4,-8,-11,5,-1,-10,7,-16
1511883511080153,7,9,-6,7,-8,-8,11,-18
1511883511097173,7,2,-1,1,-5,-7,11,-11
1511883511097173,-4,-6,2,3,8,-5,6,-8
1511883511098176,-5,6,6,-2,14,-1,9,-4
1511883511098176,4,-7,5,-3,22,-4,8,2
1511883511110207,-6,4,2,1,8,-14,6,0
1511883511110207,15,6,3,1,-39,-12,-10,6
1511883511119230,-11,1,0,0,-42,-3,2,3
1511883511119230,-4,0,3,4,-37,13,-10,0
1511883511133295,-1,-3,17,5,-28,25,-4,-1
1511883511133295,4,0,12,7,-9,25,-8,3
1511883511140819,-1,-7,0,1,4,14,-11,2
1511883511140819,-3,-7,-1,-5,13,14,-20,1
1511883511156389,-5,0,-5,-4,18,14,-6,23
1511883511156389,-1,0,-6,-3,23,10,-7,16
1511883511163381,3,0,-8,1,20,6,13,13
1511883511163381,5,-1,1,-2,20,1,-2,-2
1511883511170429,0,-2,-1,-3,3,0,-11,-1
1511883511170429,-5,6,0,-4,11,-2,0,-4
1511883511179424,1,4,-13,-4,10,4,3,11
1511883511179424,-12,-3,-15,-7,8,3,-6,2
1511883511193460,3,1,-14,-5,7,2,-2,-5
1511883511193460,-4,-1,-28,-9,4,9,-2,-4
1511883511200506,0,-1,-35,-14,3,10,0,-19
1511883511200506,-3,1,-34,-8,-2,1,3,-8
1511883511216545,2,1,-23,-6,-5,6,-3,-5
1511883511216545,-4,-2,-12,-2,2,-1,-6,-9
1511883511223542,-3,-2,4,-3,9,-4,7,-9
1511883511223542,0,0,11,-5,0,-13,-3,4
1511883511230561,1,2,8,-2,4,-14,-6,-2
1511883511230561,-1,3,27,0,5,-21,-1,-5
1511883511239609,0,3,43,3,3,-4,-6,-1
1511883511239609,-2,2,35,0,3,4,4,-3
1511883511253647,2,-7,21,2,0,6,-2,3
1511883511253647,-10,-1,5,-3,1,5,0,1
1511883511260665,13,5,4,4,-8,-3,-4,12
1511883511260665,-9,-4,-1,3,-7,-2,-6,-4
1511883511276707,3,-3,-2,1,-3,-1,-9,-5
1511883511276707,-6,-4,-9,-2,3,-6,10,-2
1511883511282725,-2,-5,2,-6,4,-10,-16,-6
1511883511282725,5,-6,5,-8,-3,-5,-1,4
1511883511299770,-1,-6,0,-3,-3,-5,-9,-4
1511883511299770,6,-5,4,1,-1,0,-17,-5
1511883511300773,-5,-4,1,-4,-1,-14,-4,-2
1511883511300773,-6,1,-7,4,-4,-42,-3,-3
1511883511313833,-6,-6,-3,1,-6,-32,0,-1
1511883511313833,-3,-4,3,-5,-4,-16,8,-2
1511883511320825,-3,-2,-3,1,-6,3,-7,-8
1511883511320825,-5,-5,5,-3,-3,-4,2,2
1511883511336368,-3,-2,2,-11,-1,-23,8,2
1511883511336368,4,-6,4,-5,3,-33,3,-4
1511883511343386,0,-11,5,-7,2,-10,3,-1
1511883511343386,7,-3,0,-3,3,19,15,11
1511883511358930,-5,1,3,-2,2,32,5,3
1511883511358930,3,-2,-3,-4,-1,34,3,-7
1511883511360936,1,-4,-1,-4,-7,22,-17,-9
1511883511360936,0,2,-2,2,-1,24,-10,6
1511883511373996,-2,1,-1,-6,1,5,-13,7
1511883511373996,-3,-2,-5,-6,-2,13,-9,4
1511883511381015,8,6,-4,0,1,21,22,5
1511883511381015,-3,-4,-2,0,0,28,11,-16
1511883511396029,14,7,1,1,3,28,14,-11
1511883511396029,-5,2,0,2,8,15,1,-3
1511883511403074,2,2,-2,4,-2,-6,-3,6
1511883511403074,-5,1,0,3,-5,-12,-11,-2
1511883511419090,0,-1,3,3,-3,2,-4,-10
1511883511419090,0,-1,0,2,-4,36,5,25
1511883511421096,-3,-5,1,-4,1,49,8,22
1511883511421096,3,11,2,-5,3,62,-11,4
1511883511434130,3,9,5,-3,2,47,-2,-12
1511883511434130,1,-4,5,2,3,27,-2,-22
1511883511440651,-3,-10,-2,4,-2,9,-6,4
1511883511440651,2,-6,0,5,-7,-12,-3,16
1511883511455805,-2,2,0,10,-7,-17,-1,9
1511883511455805,1,4,2,8,-7,-28,-3,5
1511883511462823,1,7,3,-1,-6,-27,-11,-22
1511883511462823,2,9,5,-6,7,-30,-2,-34
1511883511479868,-2,-3,7,-5,5,-19,15,-19
1511883511479868,16,-2,4,-8,4,0,4,26
1511883511480852,-1,-7,3,-5,3,2,-4,0
1511883511480852,6,-4,-6,1,-1,4,-3,-12
1511883511493906,4,1,0,2,-5,-3,-7,35
1511883511493906,-2,0,0,3,-4,-17,1,4
1511883511500899,10,8,4,-8,5,-12,11,-9
1511883511500899,2,2,14,-9,7,-20,-5,-18
1511883511515945,-2,-3,6,-9,3,-18,2,-6
1511883511515945,-2,0,-3,-12,-4,-27,-5,-16
1511883511522984,6,1,-2,-7,-4,-25,-6,18
1511883511522984,0,-4,2,-4,-3,-21,-1,11
1511883511539501,-3,-3,2,1,2,-15,-1,20
1511883511539501,-4,2,6,7,-6,-5,0,28
1511883511541506,-5,6,2,4,-3,-6,-4,0
1511883511541506,-4,-7,-3,1,-3,3,0,-2
1511883511554068,-10,-11,-3,-8,-1,16,1,-16
1511883511554068,5,-3,-6,-15,3,22,-8,-15
1511883511561066,-12,-7,-11,-8,0,18,-8,-17
1511883511561066,-3,-6,-9,-11,2,28,12,5
1511883511576127,-2,5,-7,-14,3,16,3,-13
1511883511576127,-11,2,-1,-9,2,3,9,-22
1511883511583120,-3,1,-7,-2,2,-5,8,67
1511883511583120,3,-4,-3,1,-6,-6,-6,86
1511883511599161,9,5,4,6,0,-17,3,51
1511883511599161,-4,-4,2,1,-3,-17,6,-3
1511883511601166,-8,0,-1,-2,3,-22,2,-43
1511883511601166,-2,3,-1,-13,2,-24,-3,-56
1511883511614222,-6,-6,-9,-19,0,-6,2,-44
1511883511614222,1,0,9,-19,-4,-13,3,-15
1511883511620245,-4,2,14,-14,-4,0,0,-29
1511883511620245,-4,-6,7,-3,-1,13,0,-21
1511883511636762,-3,0,13,2,4,5,-1,-29
1511883511636762,-6,2,5,-2,5,-3,-5,-15
1511883511643280,-2,-1,5,5,4,-7,-11,14
1511883511643280,-4,3,4,10,-2,24,-1,4
1511883511659324,-7,-5,3,12,-2,41,-9,-2
1511883511659324,0,-2,-5,11,4,53,5,7
1511883511661329,-3,-1,-9,8,-1,36,-4,17
1511883511661329,-2,1,-1,4,0,4,-5,2
1511883511673390,1,5,-7,7,-4,-11,-6,3
1511883511673390,2,3,4,13,-11,-9,0,4
1511883511680391,-4,0,7,7,-11,-20,-3,-3
1511883511680391,-13,-1,-2,9,-10,-9,4,25
1511883511696530,-14,-3,-6,3,-10,-14,-5,-8
1511883511696530,-16,-1,-16,-1,-1,-26,-5,-15
1511883511703567,-3,3,-14,7,5,-18,8,-18
1511883511703567,-1,2,-6,1,3,-18,7,-8
1511883511719618,5,-2,-3,6,8,-15,-1,8
1511883511719618,19,-1,-6,5,0,-4,-3,11
1511883511721616,2,-10,-1,-3,-7,4,1,17
1511883511721616,-2,-9,-2,-4,0,-11,4,1
1511883511733525,1,-8,6,-4,1,-13,-5,-3
1511883511733525,-1,-3,14,5,10,-6,-4,-4
1511883511742552,3,0,8,1,12,-8,2,-8
1511883511742552,4,6,0,-2,8,-1,2,-10
1511883511756315,2,9,-2,-7,-4,0,-1,0
1511883511756315,-4,-3,-7,-4,-10,0,-1,-3
1511883511763330,0,-1,-9,2,-6,8,14,-2
1511883511763330,5,-7,-9,4,2,3,-4,-3
1511883511779553,-5,-14,-16,-2,1,4,7,-3
1511883511779553,-2,2,-12,-1,3,-3,-7,13
1511883511781379,8,7,-13,0,6,-8,-2,-1
1511883511781379,2,10,-18,0,9,-11,-4,-7
1511883511793597,2,6,-14,12,9,-19,-6,110
1511883511793597,-15,-4,-5,7,2,-13,-5,40
1511883511802438,-2,-10,4,3,-4,-8,-5,-37
1511883511802438,-7,-8,10,-2,-6,-5,-5,-49
1511883511816475,-9,-2,10,0,1,6,4,-77
1511883511816475,-11,43,13,5,-4,15,4,-25
1511883511823685,-14,77,16,4,-6,15,1,-1
1511883511823685,1,92,12,0,-5,18,6,6
1511883511840081,8,80,7,0,-3,15,-2,0
1511883511840081,6,55,-1,4,-2,10,-1,-1
1511883511841545,2,23,-6,4,0,4,-2,5
1511883511841545,5,7,1,0,0,-8,-11,29
1511883511853113,-1,-13,2,-1,-1,-8,-3,32
1511883511853113,12,-13,2,-4,4,-4,4,110
1511883511862135,7,-21,5,-6,6,-2,-1,124
1511883511862135,-1,-27,-2,-3,5,-6,3,127
1511883511876345,4,-24,-5,0,-1,2,3,68
1511883511876345,-1,-39,-2,0,0,-5,2,-1
1511883511883360,1,-40,-3,4,-1,1,-3,-23
1511883511883360,7,-44,-7,1,-3,-3,3,-60
1511883511899312,-5,-48,3,5,-4,-2,11,-83
1511883511899312,12,-37,5,7,-1,3,3,-90
1511883511901239,1,-37,2,1,-3,1,3,-86
1511883511901239,-5,-36,-1,-1,-3,-5,-1,-93
1511883511913289,-2,-20,-11,-7,-6,-23,-9,-91
1511883511913289,-3,-14,-15,-8,2,-35,0,-85
1511883511922295,-3,-12,-17,-3,0,-33,-8,-82
1511883511922295,9,-7,-16,7,4,-24,-3,-65
1511883511936341,9,-4,-17,2,2,-14,3,-51
1511883511936341,10,-15,-9,-2,9,-17,-27,-43
1511883511943359,4,-4,-7,-5,8,9,-21,-27
1511883511943359,3,-7,-8,1,1,14,-30,-14
1511883511959934,14,9,-7,-3,-5,13,-32,5
1511883511959934,-18,0,-9,-3,-11,2,-8,-1
1511883511960905,-10,-2,-11,16,-10,-7,-8,6
1511883511960905,-16,5,-5,9,-10,-2,2,-2
1511883511972964,-12,-4,-7,4,5,0,-6,-5
1511883511972964,-7,-17,-7,0,-2,3,0,-8
1511883511981961,6,-20,-3,-6,6,0,-4,-3
1511883511981961,-2,-24,3,3,1,4,-1,-4
1511883511996028,15,-14,4,2,-3,4,15,5
1511883511996028,9,-5,6,-8,-13,3,30,16
1511883512003040,5,-3,9,-4,-8,-6,39,24
1511883512003040,4,-3,7,-8,-4,-4,45,23
1511883512019086,-6,-1,4,-8,-7,-3,38,14
1511883512019086,-1,1,3,4,-12,7,20,11
1511883512021064,-5,-1,-1,-1,-14,5,2,-8
1511883512021064,6,5,5,-6,-8,-1,5,-76
1511883512033123,0,2,12,2,0,-3,-8,-83
1511883512033123,-3,9,1,2,10,4,6,-67
1511883512042147,3,15,5,2,13,-4,-9,-32
1511883512042147,0,9,-3,3,11,-1,-21,-3
1511883512056239,-1,11,-3,3,6,9,-7,10
1511883512056239,2,14,1,0,4,10,-4,9
1511883512063232,-9,2,2,-5,0,9,6,14
1511883512063232,-12,-2,8,1,2,11,5,37
1511883512078272,-5,-2,-4,6,5,12,-1,34
1511883512078272,-5,2,-9,-1,8,14,-9,35
1511883512085316,7,13,-11,-1,5,1,-10,32
1511883512085316,-10,7,-17,0,-9,5,2,32
1511883512093337,-1,6,-17,-4,-10,-10,-11,29
1511883512093337,3,2,-9,-9,-11,0,-5,21
1511883512102364,-7,2,-7,-15,-14,-36,-12,17
1511883512102364,9,13,-1,-9,-4,-34,-2,17
1511883512116373,-3,9,-2,-7,3,-29,-5,12
1511883512116373,-3,-5,1,-4,8,-26,-3,8
1511883512123392,0,-6,1,-6,10,9,-5,4
1511883512123392,1,8,-1,-8,-3,4,-8,11
1511883512138935,0,4,-3,-8,-1,4,-9,12
1511883512138935,4,2,2,-8,1,9,-14,4
1511883512145955,2,-5,3,-6,2,19,4,3
1511883512145955,28,8,6,-2,0,4,-4,7
1511883512153477,23,5,12,-5,-6,9,-3,6
1511883512153477,16,-1,20,-4,-11,10,-9,2
1511883512162527,23,0,21,1,1,25,10,0
1511883512162527,6,5,7,0,3,6,-5,-4
1511883512176564,7,2,6,2,4,2,4,-1
1511883512176564,12,7,3,7,-2,-1,0,3
1511883512183556,2,4,-4,-3,-3,-3,1,3
1511883512183556,-6,-9,-3,-3,3,6,-3,2
1511883512198623,-13,-8,-2,-5,0,-2,-6,-1
1511883512198623,-6,-6,-5,-2,2,-2,-3,-2
1511883512205641,-9,1,-4,2,1,-2,-1,-6
1511883512205641,-12,3,-2,6,1,-5,5,3
1511883512221684,-11,4,1,8,5,-7,-2,1
1511883512221684,-11,5,9,6,2,-15,0,-2
1511883512223663,-6,5,8,7,-5,-4,3,-5
1511883512223663,-6,-2,10,1,-9,0,0,-1
1511883512236736,-4,2,24,4,-16,-3,-3,1
1511883512236736,-1,6,24,1,-7,-9,13,7
1511883512243256,-8,1,21,-1,-5,-16,-13,-4
1511883512243256,2,-5,23,6,-1,-5,3,-2
1511883512258799,-5,-6,10,6,7,-8,-4,-6
1511883512258799,-5,-5,-1,-5,1,-23,-11,-9
1511883512265840,-6,6,-4,-12,-5,-13,1,4
1511883512265840,-9,1,0,-17,-1,-3,-3,2
1511883512281887,-1,-3,0,-9,1,-1,-4,5
1511883512281887,1,-2,0,-15,-2,9,5,1
1511883512283900,-5,-4,-7,-29,3,1,3,-1
1511883512283900,-4,-4,-2,-37,-3,-7,-13,-7
1511883512295921,-4,-2,-1,-21,-5,-8,7,0
1511883512295921,-6,-4,5,-2,-4,2,1,-1
1511883512302939,0,-4,22,17,4,-1,3,-4
1511883512302939,-1,21,27,12,-2,13,12,7
1511883512318985,-3,34,17,9,5,4,-12,-3
1511883512318985,3,30,-3,-7,10,10,-14,-6
1511883512325978,-5,24,-7,9,6,15,8,-4
1511883512325978,1,12,-9,25,2,8,-1,0
1511883512342026,0,5,-13,19,4,24,2,6
1511883512342026,1,1,-16,34,-2,17,15,7
1511883512344080,1,-3,-30,25,-1,4,1,5
1511883512344080,-5,-10,-76,23,2,-11,-6,-5
1511883512356087,1,-10,-36,18,5,-11,3,3
1511883512356087,3,-17,-5,15,16,-19,0,2
1511883512363105,1,-12,8,12,10,-16,5,-1
1511883512363105,4,-11,16,1,2,-17,-10,-6
1511883512379147,-5,-6,15,-7,-8,-4,11,0
1511883512379147,-13,-10,6,2,-3,9,-2,0
1511883512385163,-5,-8,-2,0,-2,16,4,2
1511883512385163,-14,-10,-6,3,7,15,4,-3
1511883512402210,-15,-13,-15,3,0,9,7,-8
1511883512402210,-11,-17,-18,1,26,-1,-4,-5
1511883512403214,1,-4,-14,0,42,-4,-16,3
1511883512403214,-6,0,-10,0,9,4,1,-2
1511883512416247,-3,0,2,5,-4,-4,-4,-4
1511883512416247,-8,7,3,7,-30,-1,-3,1
1511883512423270,-2,2,12,13,-29,-9,-6,-4
1511883512423270,-4,2,26,6,-13,-1,-8,3
1511883512447304,6,12,28,2,-18,-2,1,1
1511883512447304,-5,7,3,-3,-16,13,1,-5
1511883512448808,1,2,5,-5,-7,21,3,1
1511883512448808,12,-4,2,-19,-8,39,2,2
1511883512462346,-1,-10,-6,-14,-9,21,5,1
1511883512462346,9,2,-1,-16,-1,3,-4,-1
1511883512463350,-2,2,-4,-12,-11,-8,-5,-2
1511883512463350,-3,5,-1,7,-6,-11,3,1
1511883512476384,-5,-3,0,8,1,-2,3,-2
1511883512476384,6,-5,-7,-1,7,-3,2,5
1511883512483403,-3,-7,-1,-7,2,6,4,2
1511883512483403,-1,-8,34,-42,11,-3,3,-2
1511883512498443,20,6,46,-30,12,-15,-7,1
1511883512498443,5,2,47,-13,7,-17,12,3
1511883512505462,-1,-2,23,-7,-1,-25,-9,-6
1511883512505462,2,4,4,-3,10,-21,-9,0
1511883512521531,-3,-2,-9,1,5,-10,-15,-1
1511883512521531,2,-2,-6,22,-1,-8,-12,3
1511883512523508,5,-1,-10,18,-4,-11,-20,2
1511883512523508,7,-8,-10,42,-3,-10,11,3
1511883512536570,-1,-4,-11,87,-7,8,2,1
1511883512536570,2,0,-25,44,-9,6,0,-1
1511883512543119,-5,6,-22,5,-6,3,7,-4
1511883512543119,-6,5,-9,-36,0,0,21,-7
1511883512558634,0,-7,-8,-49,5,1,13,-1
1511883512558634,5,-3,11,-30,3,-6,-3,-5
1511883512565684,6,-6,23,-26,-3,4,2,0
1511883512565684,11,-8,14,-23,2,-7,-7,-3
1511883512581725,8,-7,5,-29,-2,-5,8,3
1511883512581725,-1,-5,-12,-36,0,0,5,-2
1511883512583700,0,-4,-34,-28,-2,-3,0,-3
1511883512583700,5,4,-54,-7,-5,3,-3,0
1511883512595758,-4,-1,-58,3,2,7,-13,-5
1511883512595758,-12,-3,-37,9,5,-3,-15,3
1511883512604756,0,6,-23,23,-3,2,2,5
1511883512604756,-13,-4,-12,32,-2,-3,-3,2
1511883512618820,-26,-1,-8,13,0,-2,4,-3
1511883512618820,-4,7,-1,26,-2,7,5,-6
1511883512625839,-8,-1,1,37,0,5,-14,-8
1511883512625839,4,8,8,29,5,11,-4,1
1511883512642387,-8,1,6,6,3,3,-5,4
1511883512642387,-7,1,4,6,1,6,0,1
1511883512643918,-5,-4,5,4,4,0,3,5
1511883512643918,-10,-1,1,-1,0,-4,5,3
1511883512655952,9,0,5,2,-2,-1,-2,0
1511883512655952,-2,-3,3,9,-6,-5,-5,-5
1511883512662997,16,-2,14,8,-11,-11,-5,4
1511883512662997,3,-2,3,8,-1,-21,-5,-4
1511883512679013,6,0,0,-6,1,-12,14,1
1511883512679013,-1,3,-2,-13,-4,-13,-2,-4
1511883512685029,-6,-2,0,-10,-2,-8,0,0
1511883512685029,4,-4,1,-1,-4,2,1,-3
1511883512702078,-73,-9,3,-10,1,7,-13,-10
1511883512702078,-38,7,9,-26,-2,7,-10,-4
1511883512704118,-3,5,-1,-39,1,9,7,-5
1511883512704118,21,8,-7,-37,2,3,-3,1
1511883512716113,61,2,-4,-31,-2,1,4,-2
1511883512716113,44,3,-5,-36,2,-4,4,2
1511883512724133,9,-12,5,-22,6,1,-2,-3
1511883512724133,23,1,12,-5,-5,20,4,2
1511883512739352,12,-2,4,1,-7,25,-2,4
1511883512739352,4,-2,1,10,-1,27,3,6
1511883512745826,9,6,-1,12,1,18,-19,4
1511883512745826,-12,-11,-2,18,4,4,-4,-1
1511883512762527,-1,4,0,18,2,1,14,1
1511883512762527,5,8,6,17,0,-4,1,-2
1511883512763427,-4,6,-4,14,-2,-5,0,-10
1511883512763427,-8,-5,1,9,-4,-2,0,-3
1511883512775488,-6,6,0,-3,-1,-24,-3,-7
1511883512775488,14,5,-2,0,2,-20,4,-1
1511883512784481,2,9,2,4,1,-30,0,1
1511883512784481,-13,-8,0,5,-4,-29,-8,5
1511883512798523,0,0,-4,2,-2,-22,-6,0
1511883512798523,-3,-13,-12,0,0,-14,2,0
1511883512805541,-9,-9,-2,13,16,-3,9,2
1511883512805541,-11,2,-11,9,28,-5,-8,-4
1511883512822588,7,14,2,14,29,1,-7,4
1511883512822588,3,10,3,13,22,7,2,-1
1511883512823591,1,2,-4,8,12,8,-2,-6
1511883512823591,-6,-4,-1,6,14,13,5,-4
1511883512835659,12,17,8,9,16,11,-5,1
1511883512835659,-8,-19,-7,-5,7,1,-10,-2
1511883512845200,-1,-4,-8,-16,4,7,1,2
1511883512845200,9,11,11,-17,-6,6,2,0
1511883512858411,-4,-11,-8,-26,-6,-2,8,-3
1511883512858411,7,10,3,-14,4,15,6,5
1511883512865399,-2,4,0,-11,-3,19,4,-3
1511883512865399,-7,-1,-10,-6,-17,-5,2,-3
1511883512882476,7,1,-9,-7,100,-26,-7,-1
1511883512882476,0,2,-6,-2,41,-24,0,0
1511883512883448,-11,-2,-13,-3,7,-16,-1,-5
1511883512883448,1,8,3,1,-13,-3,3,-1
1511883512895508,-12,-8,5,6,-61,8,6,0
1511883512895508,-7,-15,-3,9,-38,10,21,4
1511883512904500,12,35,22,2,-23,4,3,2
1511883512904500,-9,-12,12,-1,-28,-1,-9,-5
1511883512918540,5,9,13,0,-21,20,11,0
1511883512918540,6,4,-8,-14,-6,20,-4,-1
1511883512925558,3,-7,3,1,-16,10,-4,9
1511883512925558,0,-2,12,12,2,4,-1,7
1511883512942104,8,-3,6,61,-13,-16,-12,-3
1511883512942104,-9,-17,-4,81,-15,-29,-7,-6
1511883512943608,-6,-13,-12,80,-15,-36,-1,-1
1511883512943608,2,-2,-11,57,1,-13,-1,4
1511883512955195,-8,-15,-12,28,-7,-9,5,-6
1511883512955195,-9,-17,8,13,-13,-14,-1,5
1511883512964219,8,-6,-5,0,-5,-10,-4,0
1511883512964219,6,2,2,-2,3,-12,-3,-4
1511883512979258,0,0,-3,-18,-13,-9,-6,-4
1511883512979258,-6,-13,-4,-27,1,-12,-9,-14
1511883512985301,-12,-23,-10,-26,7,-11,6,3
1511883512985301,1,0,1,-29,3,-4,9,1
1511883513001317,6,9,28,-28,-11,-3,22,3
1511883513001317,-3,4,27,-34,-8,-1,20,0
1511883513008336,4,-5,31,-28,1,5,23,-6
1511883513008336,-5,-6,22,-12,0,-3,23,0
1511883513015380,5,9,-3,-17,4,1,9,5
1511883513015380,11,6,-15,-12,-2,0,28,8
1511883513024379,10,7,-21,-14,-7,6,30,2
1511883513024379,4,-11,-33,-21,6,13,31,-3
1511883513038928,-1,-13,-35,-31,-9,-3,-3,-13
1511883513038928,6,12,-22,-25,0,1,14,-4
1511883513045939,-7,-16,-24,-13,4,4,-1,-7
1511883513045939,-8,-18,-7,-3,-1,-10,-16,0
1511883513061513,-7,4,-3,3,-2,3,-6,5
1511883513061513,-2,0,-1,6,-7,4,-18,2
1511883513068502,1,-10,-3,3,-2,-6,-24,2
1511883513068502,-1,0,-3,-3,2,12,-24,-4
1511883513075525,-5,-31,-3,-12,-1,13,-27,2
1511883513075525,5,5,8,-3,5,24,-37,-8
1511883513084555,-4,-6,0,-1,5,39,-3,-6
1511883513084555,9,9,5,-1,3,32,-24,-4
1511883513098580,-13,2,0,-2,-5,34,-12,-1
1511883513098580,-16,3,3,-2,-8,27,-7,-3
1511883513105625,-16,5,8,-12,-7,15,9,5
1511883513105625,0,9,-2,-11,-10,7,-3,5
1511883513121643,6,13,5,-2,0,-5,-8,1
1511883513121643,2,9,2,2,-1,-25,-6,-1
1511883513127659,1,10,-2,5,-7,-26,-15,1
1511883513127659,-14,-4,-3,-9,-4,-16,4,-7
1511883513144732,1,-7,7,-15,3,-19,7,1
1511883513144732,-5,-8,1,-17,11,-3,4,0
1511883513146236,2,-2,-1,-17,18,-15,-22,2
1511883513146236,1,0,-1,-11,19,-8,15,2
1511883513158793,-5,-5,5,-4,13,3,-8,0
1511883513158793,7,-6,9,-6,6,0,-15,1
1511883513165838,1,-5,11,-8,-3,-10,-1,-6
1511883513165838,3,-11,9,-2,-11,-12,-1,-1
1511883513180852,-6,-17,9,12,-8,-8,14,-9
1511883513180852,-4,-9,4,4,-5,-7,24,-1
1511883513187870,-1,-8,-21,2,-1,11,25,1
1511883513187870,2,1,-15,-4,-5,6,24,7
1511883513204915,3,-6,-10,-10,-5,3,8,8
1511883513204915,3,-4,2,-6,-2,7,1,-4
1511883513205918,2,-2,18,-8,-3,-2,-9,1
1511883513205918,-3,-4,7,-9,-3,-6,-20,-1
1511883513218953,-4,-4,-4,0,-7,-4,-5,-3
1511883513218953,0,-2,4,8,-8,-5,-17,-3
1511883513225972,0,15,7,-1,-8,4,-13,-3
1511883513225972,-6,19,13,1,-4,2,-10,-2
1511883513241571,-5,9,6,-8,-4,-5,-8,1
1511883513241571,4,9,2,-1,-7,3,-6,-3
1511883513248562,0,0,-1,3,-3,-2,-5,-6
1511883513248562,1,5,-5,8,-9,-4,-7,1
1511883513264622,-6,12,-6,-3,-8,-4,-5,-1
1511883513264622,-2,12,-8,-4,-10,-12,10,4
1511883513265623,2,-2,-5,-8,-6,-1,4,3
1511883513265623,1,-10,-12,-7,1,1,0,-2
1511883513278658,13,-12,-7,1,2,-9,-17,-3
1511883513278658,10,-19,-10,4,0,-8,-16,-3
1511883513285703,16,-16,0,7,6,-6,-7,-5
1511883513285703,7,-17,-7,6,6,-7,-4,0
1511883513301748,12,-10,-2,-2,6,0,-7,1
1511883513301748,18,-6,-1,-10,7,14,-2,3
1511883513307767,20,-1,10,-16,-7,85,-8,-3
1511883513307767,6,-2,0,-15,-5,116,-17,-6
1511883513324821,-9,3,-3,-6,0,90,-14,-1
1511883513324821,-25,-11,1,2,-1,39,-12,4
1511883513325796,-2,-12,-2,6,-1,-21,-17,3
1511883513325796,3,-9,4,0,0,-47,-5,0
1511883513338848,-19,-2,-4,-2,-4,-26,29,1
1511883513338848,0,-4,-10,-5,-1,-38,21,-5
1511883513345839,4,3,-5,1,1,-25,30,1
1511883513345839,3,1,-4,2,5,-18,18,-3
1511883513361382,-2,4,-3,-4,6,-23,7,-3
1511883513361382,-33,4,-2,-13,7,-4,12,0
1511883513368402,-27,10,-1,9,2,-8,14,1
1511883513368402,-2,-1,7,16,-3,-12,-3,0
1511883513384444,-6,0,7,22,4,-16,-5,4
1511883513384444,13,-7,4,23,2,-9,-4,0
1511883513386450,3,-6,3,5,-8,-15,-11,-1
1511883513386450,-20,3,-2,4,-6,-7,3,-3
1511883513398481,-4,11,-2,5,-3,5,7,-2
1511883513398481,1,16,-2,-3,-3,11,-20,0
1511883513405499,2,9,3,2,4,10,-16,-3
1511883513405499,12,9,7,-1,-1,-6,-6,-3
1511883513421542,-10,4,7,0,0,3,-3,5
1511883513421542,-29,4,5,5,-2,5,4,-5
1511883513428560,9,6,7,0,-5,-5,14,1
1511883513428560,8,6,1,0,-8,-9,-3,7
1511883513444659,6,5,-6,-1,-1,7,13,-2
1511883513444659,-18,2,-6,-3,4,-5,-3,-1
1511883513446137,-1,-3,-9,-5,-2,-10,-1,3
1511883513446137,1,1,-2,-2,-5,-10,-3,-1
1511883513458198,14,3,0,-2,-5,-8,1,-2
1511883513458198,27,1,0,-4,-12,-10,6,-1
1511883513467221,-26,7,4,-7,-7,-5,14,-2
1511883513467221,-26,-4,3,-16,-14,-14,-2,-1
1511883513481288,30,-8,-4,-8,-5,-15,1,2
1511883513481288,14,0,-2,0,0,-18,-7,0
1511883513495324,11,-7,-2,3,7,-17,-7,-5
1511883513495324,5,1,7,13,9,-18,-12,0
1511883513504319,-9,-4,5,-3,-7,-15,-9,-3
1511883513504319,3,-2,-1,-8,-7,-1,-12,2
1511883513506348,-8,4,-5,-2,-1,-3,-21,4
1511883513506348,-9,-1,-11,15,9,16,1,6
1511883513518382,-11,-6,-4,31,4,28,-6,3
1511883513518382,1,1,5,34,2,42,17,2
1511883513527381,-24,3,-2,28,-4,34,3,0
1511883513527381,-21,3,-1,18,-7,24,5,0
1511883513541451,-12,6,3,-4,-5,8,1,-4
1511883513541451,-11,6,2,-12,-2,-2,8,-3
1511883513548466,-5,4,0,-20,4,-12,9,-5
1511883513548466,2,3,-14,-15,8,-21,-4,-3
1511883513564042,-3,-4,-10,-11,3,-24,-5,-4
1511883513564042,1,4,-3,-10,-3,-18,-8,3
1511883513566048,4,-1,-1,-8,-1,-9,-7,0
1511883513566048,12,-4,-8,-14,3,-6,17,4
1511883513578106,-1,-2,-6,-12,4,-6,-4,-5
1511883513578106,4,-5,-1,-14,8,-15,-9,-4
1511883513587104,0,-3,2,-7,6,-15,3,6
1511883513587104,2,3,4,-9,-4,-11,1,0
1511883513601167,-1,3,8,-18,1,-13,9,-1
1511883513601167,1,4,-5,-12,1,-7,4,1
1511883513608186,7,21,-4,-11,1,-9,-6,-3
1511883513608186,2,28,-5,-6,-1,-9,-4,-1
1511883513624233,7,20,-9,-11,-7,-8,-3,-3
1511883513624233,-2,-4,-4,-1,-8,-1,-3,-3
1511883513626207,12,0,11,17,-2,6,-4,1
1511883513626207,-2,-4,5,7,1,4,1,-3
1511883513638239,0,-11,6,19,1,-1,3,5
1511883513638239,-3,-4,-1,3,-2,-2,3,2
1511883513647264,-4,-24,-6,-3,-7,0,3,-4
1511883513647264,3,-18,-4,-7,-5,10,1,-6
1511883513661302,2,-15,-5,-3,-2,10,2,2
1511883513661302,-4,-14,0,-2,6,10,0,1
1511883513668321,-3,-7,0,-9,5,3,0,-3
1511883513668321,-4,-2,4,-11,1,1,-9,-5
1511883513684364,16,-1,5,-5,4,-9,-27,-1
1511883513684364,12,8,4,6,12,2,-48,0
1511883513686369,2,5,0,-2,8,-10,-65,-4
1511883513686369,27,2,-9,3,1,-3,-69,1
1511883513698406,12,6,17,8,-1,-3,-51,5
1511883513698406,10,1,10,1,0,-7,-28,7
1511883513707431,4,11,6,6,3,4,-7,2
1511883513707431,-12,-7,-4,1,3,1,-4,-8
1511883513721542,-5,-7,1,11,3,5,17,-5
1511883513721542,-2,7,-2,2,3,-4,23,-6
1511883513728558,-1,5,-1,2,1,-4,21,5
1511883513728558,-7,3,0,3,-8,-3,20,-4
1511883513744764,1,2,0,0,-12,9,23,3
1511883513744764,-5,-7,6,11,-7,27,29,-2
1511883513746148,3,-8,9,9,-5,104,44,2
1511883513746148,12,-10,5,4,3,121,30,3
1511883513758185,12,-4,3,-8,-1,116,20,-7
1511883513758185,67,-1,4,-11,-3,55,18,-4
1511883513767205,40,1,-9,-1,1,-30,27,5
1511883513767205,-11,-4,6,3,-1,-55,28,2
1511883513781246,-52,-5,-1,4,0,-53,34,-1
1511883513781246,-44,4,0,4,-9,-49,28,-1
1511883513788264,-25,1,0,7,-11,-48,25,-1
1511883513788264,-27,-6,-8,5,-2,-38,33,-9
1511883513804404,1,5,-18,2,7,-47,19,-2
1511883513804404,-22,8,-5,-1,0,-22,18,-5
1511883513806309,-10,-6,-5,-10,4,-15,-10,-7
1511883513806309,-19,7,5,-7,-3,-25,6,5
1511883513818344,11,-9,-8,-2,-5,-26,-5,3
1511883513818344,3,-4,-19,3,-2,-25,-6,5
1511883513827368,-4,11,-19,-8,4,-30,-6,3
1511883513827368,28,17,-14,-6,14,-27,-11,-2
1511883513841638,16,20,-5,-3,10,-23,-9,-6
1511883513841638,15,6,2,-2,8,-16,-11,0
1511883513848649,-8,12,6,-3,13,-9,1,0
1511883513848649,-17,13,13,-2,10,-4,-5,6
1511883513864875,-28,8,9,-3,4,2,-12,1
1511883513864875,-41,2,12,-9,3,12,-14,-4
1511883513865729,-9,8,14,-12,-3,21,-10,-5
1511883513865729,-2,3,19,0,9,15,-4,-7
1511883513878768,4,10,12,-1,3,4,-12,1
1511883513878768,-15,-2,7,-1,4,-1,-11,2
1511883513886760,12,1,3,-2,-8,2,-11,1
1511883513886760,8,2,-6,-8,-5,-6,-11,3
1511883513900793,-4,-9,-14,-8,10,-5,-4,0
1511883513900793,16,-2,-16,1,13,-4,-13,5
1511883513907942,-6,-11,-9,1,11,-9,-5,-4
1511883513907942,4,-14,-6,-2,-7,-9,-33,2
1511883513924999,5,-7,2,-11,-5,16,-2,3
1511883513924999,5,-4,-16,-16,-18,79,-17,1
1511883513925863,-15,-7,-29,-6,-29,85,-15,-1
1511883513925863,-2,-8,-33,0,-25,72,-8,-8
1511883513938592,4,-7,-37,-4,-16,43,-12,-3
1511883513938592,-3,-2,-35,-3,-3,6,-11,-7
1511883513947115,-2,-3,-17,3,9,-18,-9,2
1511883513947115,-7,-3,-15,4,19,-32,-7,-2
1511883513961206,-4,-6,-5,3,16,-34,-5,3
1511883513961206,15,3,0,2,14,-37,13,3
1511883513968227,13,-7,-7,-4,14,-23,4,3
1511883513968227,2,0,2,-12,8,-14,13,0
1511883513984243,-1,2,0,-8,-4,5,2,-4
1511883513984243,1,2,0,-8,-8,4,11,2
1511883513990289,-2,-4,11,-3,-1,-10,0,-2
1511883513990289,2,-9,18,3,9,-16,13,2
1511883513998279,0,-6,15,1,8,-16,5,-2
1511883513998279,-1,-6,15,-3,0,-32,8,-3
1511883514007329,-2,-9,1,5,-14,-29,18,-2
1511883514007329,0,-5,-14,7,-19,-11,10,4
1511883514021367,4,-9,-12,4,-29,-13,-1,-4
1511883514021367,2,-9,-7,7,-18,-5,-1,-8
1511883514028385,2,4,-11,9,-23,3,4,-4
1511883514028385,1,-5,-5,3,-22,18,6,-1
1511883514043931,-2,-2,-6,-1,-23,18,4,0
1511883514043931,-16,-5,2,6,-18,14,-9,-4
1511883514050979,1,-9,17,-1,-16,11,-7,0
1511883514050979,-2,-6,41,5,-13,1,-5,-1
1511883514057995,-5,-4,31,4,-8,11,-10,0
1511883514057995,-2,-27,16,4,4,6,4,-3
1511883514067020,7,26,19,5,5,-5,14,8
1511883514067020,4,-2,-11,-5,8,-11,4,2
1511883514081057,4,0,2,-1,0,-19,8,0
1511883514081057,2,4,13,-2,4,-16,2,-4
1511883514088076,0,-9,6,-2,10,-6,0,-2
1511883514088076,12,4,6,-2,4,-7,2,-1
1511883514103117,9,3,-4,-6,2,-4,14,-3
1511883514103117,4,0,-4,-9,2,22,10,4
1511883514112141,-2,-12,-3,-7,-3,17,4,2
1511883514112141,9,-2,-3,-2,3,6,-12,0
1511883514127206,11,-8,-2,0,4,-2,-4,-4
1511883514127206,16,1,11,-1,5,-12,1,2
1511883514128198,12,10,10,-6,7,-11,-1,-5
1511883514128198,1,1,-1,-9,1,-6,-7,0
1511883514141723,4,9,-3,-7,-3,-6,5,3
1511883514141723,-5,-2,-6,-6,0,-12,2,-4
1511883514148240,-8,-11,-11,-8,8,-11,4,-4
1511883514148240,-6,-6,-6,-8,-2,1,12,4
1511883514163824,-10,-9,0,-8,1,11,6,0
1511883514163824,-3,6,11,-2,3,10,0,-3
1511883514170869,2,-5,0,-4,6,6,-14,-8
1511883514170869,-26,4,4,5,1,13,0,-2
1511883514186908,-11,4,3,6,5,5,-8,-1
1511883514186908,-8,-3,-8,8,-2,8,-4,4
1511883514188916,12,13,4,16,10,9,-7,-3
1511883514188916,7,3,5,6,9,10,-10,0
1511883514200946,-2,5,5,7,7,16,-12,2
1511883514200946,3,1,3,1,-3,13,-15,1
1511883514207941,-6,-5,6,5,-8,3,-5,6
1511883514207941,6,-6,-2,6,-14,0,-8,5
1511883514224007,4,-12,-2,8,5,-1,-5,20
1511883514224007,2,3,-1,5,19,-12,-20,15
1511883514231003,0,3,-2,3,12,-4,-5,11
1511883514231003,-3,2,-5,10,16,-6,-7,-4
1511883514247047,3,-1,-12,10,12,-27,-1,-9
1511883514247047,0,-5,-8,5,1,-24,9,-11
1511883514248551,-4,-7,-6,4,-6,-8,5,-18
1511883514248551,1,0,0,2,-17,-12,4,-11
1511883514261646,2,3,4,2,-18,-1,9,-9
1511883514261646,-8,7,-4,-4,-16,-10,-8,0
1511883514267633,1,-3,-1,-3,-20,-20,-6,-4
1511883514267633,3,-3,6,-1,-10,-20,-1,4
1511883514283676,-1,-1,9,-2,-12,-19,-12,-3
1511883514283676,11,1,16,3,-7,-20,3,-3
1511883514290694,1,-3,18,1,-8,-11,4,-1
1511883514290694,4,5,23,-1,-3,4,0,1
1511883514306762,-15,5,24,5,2,24,-7,3
1511883514306762,-27,8,16,11,-2,31,-4,4
1511883514308741,-43,-6,4,9,2,11,0,-1
1511883514308741,-32,-2,3,7,1,3,3,-4
1511883514320800,-32,4,-19,6,2,-8,7,-1
1511883514320800,-19,7,-46,4,1,-10,4,-4
1511883514327821,-10,8,-52,3,1,0,-5,2
1511883514327821,-6,4,-44,7,5,8,-13,-2
1511883514343890,1,-2,-26,2,0,21,-6,0
1511883514343890,2,-6,-11,5,0,10,3,3
1511883514350906,-1,-7,-1,2,-1,12,-13,1
1511883514350906,5,-4,1,-1,2,0,-17,0
1511883514366977,3,0,0,2,-4,-7,-10,-2
1511883514366977,3,2,8,-1,-4,8,-6,-3
1511883514368985,9,11,13,-6,0,8,-8,-1
1511883514368985,8,1,9,-5,-9,2,-7,2
1511883514380989,5,4,14,-3,-5,-4,-18,5
1511883514380989,-4,1,11,-4,0,-18,-23,-2
1511883514389008,-4,1,8,-3,3,-9,-13,0
1511883514389008,0,2,1,2,4,4,-3,3
1511883514404050,1,-6,-7,4,7,-4,2,-4
1511883514404050,4,-9,-5,5,-1,-4,5,3
1511883514411069,3,0,-5,1,0,-7,1,-6
1511883514411069,-1,9,-2,-3,3,-22,4,-1
1511883514427142,2,-5,4,-5,2,-17,5,-7
1511883514427142,3,-7,4,-3,0,-2,9,-5
1511883514428140,9,-10,6,-2,-6,-1,10,-2
1511883514428140,5,-6,-1,-9,-6,1,8,-4
1511883514440675,4,0,3,-7,-8,2,8,4
1511883514440675,0,2,9,-5,-6,3,8,-1
1511883514449673,-1,-4,2,-6,-7,12,8,4
1511883514449673,5,-5,1,-7,0,15,10,1
1511883514464238,2,-3,1,-5,-2,6,8,-2
1511883514464238,-7,3,11,-4,5,-1,3,1
1511883514470282,0,14,18,-5,3,-8,6,-1
1511883514470282,-4,-2,16,-13,3,-10,3,-5
1511883514487332,-7,-7,7,-18,2,-13,-3,-6
1511883514487332,18,5,7,-16,4,-6,9,4
1511883514488303,-4,-18,-9,-3,3,-16,-6,-1
1511883514488303,0,-7,-12,11,8,-2,-1,1
1511883514500369,15,4,-3,8,0,-8,3,1
1511883514500369,8,-9,-12,9,3,-8,7,-2
1511883514509360,3,-7,-9,4,7,5,3,1
1511883514509360,3,-3,-9,3,5,2,6,0
1511883514523423,2,0,-3,0,2,-2,6,-1
1511883514523423,1,8,2,4,3,1,4,0
1511883514530414,1,8,-6,4,8,2,10,0
1511883514530414,-1,18,0,4,9,3,0,0
1511883514547463,-4,22,1,6,12,4,-4,0
1511883514547463,-3,14,-3,-4,1,-1,-6,-1
1511883514548987,-5,16,-3,2,-1,1,-7,-2
1511883514548987,1,6,-5,4,-3,2,-6,-1
1511883514560551,2,2,-11,5,-5,3,-5,-2
1511883514560551,3,-6,-18,5,2,-11,-9,-1
1511883514569550,-2,-7,-14,4,-1,-6,5,3
1511883514569550,-7,-3,-3,-1,3,-7,4,-5
1511883514583612,3,-6,3,6,15,0,-2,-2
1511883514583612,-4,-11,-3,-2,11,2,-10,-1
1511883514590635,2,-2,7,-1,12,1,-5,6
1511883514590635,11,-2,0,-1,13,6,10,10
1511883514606674,4,-9,-5,-6,10,3,9,4
1511883514606674,-5,-8,-5,-7,8,-2,10,-2
1511883514606674,6,1,-4,-1,0,-9,4,0
1511883514606674,-3,-5,0,-4,-6,-9,1,-5
1511883514628733,-6,-5,-2,-2,-5,5,-5,-6
1511883514628733,-1,-4,14,2,1,9,3,2
1511883514629709,7,5,8,3,-2,3,-12,1
1511883514629709,-3,5,0,11,1,-3,-7,-4
1511883514644751,-8,0,-5,16,-3,-4,2,-3
1511883514644751,-9,2,-5,23,-5,-2,4,-5
1511883514650767,-8,-4,7,29,-4,5,3,-4
1511883514650767,1,2,4,29,-11,13,13,2
1511883514665810,-1,-6,-6,18,-4,-12,-5,-5
1511883514665810,-11,2,-5,12,-4,4,4,-4
1511883514666812,-1,-5,-4,3,-1,-4,9,5
1511883514666812,2,-6,-2,-4,0,-5,-10,4
1511883514688871,-5,-1,8,-8,1,7,-2,-4
1511883514688871,3,-6,1,-9,-1,4,-3,2
1511883514689900,13,-6,3,-16,-5,8,-10,-3
1511883514689900,-4,-12,-2,-23,-7,0,-5,-1
1511883514704914,-2,-1,5,-11,-5,7,4,4
1511883514704914,2,2,11,1,-10,-3,2,1
1511883514710947,-3,-3,10,-4,-6,3,3,-7
1511883514710947,2,-7,4,-10,-1,-5,9,-6
1511883514725993,-1,2,-2,-24,-4,1,9,-3
1511883514725993,-3,-8,-8,-33,-5,0,2,3
1511883514726977,-2,4,-13,-40,-7,-12,1,3
1511883514726977,3,-11,-8,-48,-8,-5,1,0
1511883514749077,6,-10,3,-52,-4,-17,-5,0
1511883514749077,-5,-18,14,-51,9,-7,2,-6
1511883514750056,-1,-7,29,-40,14,-3,5,2
1511883514750056,3,8,28,-23,11,9,-1,3
1511883514764116,2,-2,31,-14,6,12,-3,3
1511883514764116,1,3,21,-6,-1,6,-8,-1
1511883514771157,-4,-10,16,-3,4,5,-1,-3
1511883514771157,-5,-7,13,4,5,1,-6,-8
1511883514786225,1,-5,0,11,-4,5,-7,-4
1511883514786225,4,-4,-11,10,-5,9,-9,-1
1511883514787178,0,-7,-20,16,-14,4,-10,-1
1511883514787178,-3,1,-17,21,-21,7,2,5
1511883514809262,-6,1,-17,16,-24,3,-4,0
1511883514809262,1,1,-16,14,-17,7,9,0
1511883514809262,-7,2,-20,11,-12,-1,-12,-2
1511883514809262,-2,-3,-11,6,-11,-3,0,1
1511883514824383,-6,-5,-6,0,-4,-5,-5,2
1511883514824383,-2,1,-21,-1,-10,-6,-3,-4
1511883514830498,-9,-7,-41,-2,-12,3,0,-2
1511883514830498,-4,3,-43,3,-9,0,5,-3
1511883514846552,-1,-2,-43,8,0,-4,9,-2
1511883514846552,4,13,-20,12,5,-9,3,0
1511883514847450,1,13,-19,10,4,6,12,0
1511883514847450,-2,0,-12,8,15,-3,-9,0
1511883514868742,0,6,-5,10,8,-2,0,4
1511883514868742,-4,-2,-1,5,9,-8,-11,-1
1511883514869544,-3,-7,13,2,4,-6,-1,2
1511883514869544,1,-5,15,0,-1,-2,14,1
1511883514884583,0,-9,6,4,-6,7,-8,-3
1511883514884583,3,-5,3,0,-2,7,-8,0
1511883514890711,1,-2,7,6,-1,1,-5,0
1511883514890711,-6,2,7,2,-1,1,-6,-2
1511883514905638,5,5,5,4,11,-6,-1,-3
1511883514905638,0,3,-3,2,4,-5,1,-3
1511883514912676,17,14,5,-1,1,-4,-2,9
1511883514912676,-8,-4,-4,-3,11,0,-6,-2
1511883514928880,0,-2,3,0,5,-10,-12,2
1511883514928880,2,8,3,3,-1,-9,-1,1
1511883514929705,-10,-11,2,1,-7,-15,1,-5
1511883514929705,-2,6,3,2,-10,-7,0,2
1511883514944750,-3,1,1,-5,-9,-14,-7,-3
1511883514944750,9,-1,13,-5,-3,2,15,5
1511883514950765,-1,-4,7,-1,-8,5,2,-5
1511883514950765,3,4,7,4,-12,5,-6,-6
1511883514965329,-4,7,2,6,-11,23,14,-3
1511883514965329,-8,-1,2,1,-21,17,-8,23
1511883514973353,5,2,12,1,-16,12,-9,43
1511883514973353,3,-4,20,0,-14,7,-5,61
1511883514988393,2,-17,17,4,-17,6,-5,75
1511883514988393,5,14,22,6,-15,-6,-3,71
1511883514989370,-11,-7,6,1,-8,-5,5,66
1511883514989370,8,4,2,-2,-2,-9,-13,61
1511883515004409,3,3,4,-5,2,-3,13,55
1511883515004409,2,0,-5,-6,1,-8,0,28
1511883515010425,-5,-11,-16,-4,3,-10,-3,10
1511883515010425,4,0,-12,5,2,-4,2,3
1511883515025467,-3,3,-6,-2,8,-7,-1,-8
1511883515025467,-5,-8,-6,7,13,-6,-6,-11
1511883515033503,9,25,7,7,20,10,10,-15
1511883515033503,-3,-13,-9,3,17,2,-4,-23
1511883515049084,3,12,4,7,5,9,-1,-12
1511883515049084,2,2,11,3,-8,1,-1,-25
1511883515049560,-8,-5,-10,-4,-11,-4,33,-14
1511883515049560,-11,-5,3,-6,-15,-15,6,-21
1511883515064602,-1,7,-2,-8,-11,-4,-2,-17
1511883515064602,-2,-3,6,-7,-6,-8,-12,-20
1511883515070643,-5,-12,-3,-6,-4,-3,-7,-24
1511883515070643,8,4,5,3,1,6,5,-18
1511883515085683,-1,-9,-8,1,-1,-4,4,-17
1511883515085683,6,2,-7,2,1,-6,8,-18
1511883515092702,-10,-24,-14,2,-1,9,21,-6
1511883515092702,6,17,-1,-1,-1,-1,-3,-11
1511883515108720,0,3,-5,1,-4,4,6,-12
1511883515108720,-1,14,14,18,10,-3,-7,-16
1511883515109722,11,26,16,30,9,6,1,-6
1511883515109722,-1,2,-3,20,19,3,-24,-15
1511883515124762,-11,0,1,15,31,5,18,-17
1511883515124762,-11,-26,-18,-2,27,3,-7,-22
1511883515130807,-4,-6,5,-11,19,-1,-10,-18
1511883515130807,-11,-4,6,-16,8,2,-1,-12
1511883515145869,11,4,-5,-14,14,-5,-26,-12
1511883515145869,0,-5,-12,-13,10,-1,-11,-10
1511883515153387,-10,-5,4,-4,7,3,-10,-21
1511883515153387,8,12,2,-2,-2,7,13,-15
1511883515168928,-8,-10,-4,-10,-9,1,-6,-16
1511883515168928,-2,-6,-16,-13,-11,6,-8,-10
1511883515169931,6,7,-9,-18,-4,-7,1,-10
1511883515169931,-8,-1,-6,-15,1,-3,-8,-9
1511883515184996,7,6,6,-9,0,3,-3,-7
1511883515184996,12,9,2,-6,6,6,-17,-3
1511883515191013,-7,-1,3,-2,-5,5,-14,-5
1511883515191013,-4,-1,2,0,-8,2,26,-3
1511883515206026,-1,-11,-10,1,-8,-9,-11,-4
1511883515206026,18,5,7,9,-9,11,49,0
1511883515213044,2,16,4,4,-2,-3,-8,-3
1511883515213044,-11,-16,-6,1,-8,-11,-1,-2
1511883515229114,-3,12,0,4,-10,-14,-7,-1
1511883515229114,-13,0,6,5,-1,-10,-19,0
1511883515229114,12,4,-1,1,-1,-3,-13,-2
1511883515229114,-4,-3,-3,0,-8,-7,12,-2
1511883515244633,3,-9,-5,5,-10,-3,-6,-1
1511883515244633,-9,-11,0,5,-13,0,0,0
1511883515250649,5,6,-1,3,-10,-2,20,-2
1511883515250649,1,1,-5,-1,-8,2,-12,-1
1511883515265214,-8,-17,-3,-3,-6,-9,-2,-1
1511883515265214,0,0,-1,-9,-9,-3,13,-1
1511883515273236,8,2,4,-4,-10,4,1,-1
1511883515273236,1,-1,4,0,-5,4,-17,-1
1511883515288250,-3,-1,3,3,-2,8,-1,-1
1511883515288250,1,0,1,-2,6,5,8,1
1511883515289252,1,-11,-3,-12,0,-3,-17,-1
1511883515289252,0,0,-3,-6,10,1,35,-1
1511883515304292,-9,6,6,0,8,-1,20,-1
1511883515304292,0,12,7,7,-1,-9,5,0
1511883515310339,-9,-7,0,2,0,-4,-30,-1
1511883515310339,4,-1,0,5,2,11,-13,-1
1511883515325375,2,1,1,-2,-3,5,4,-1
1511883515325375,-3,-4,-5,3,2,-4,-2,0
1511883515333395,1,-5,-8,3,2,-6,17,-1
1511883515333395,1,4,2,8,3,-9,-13,-1
1511883515348940,-6,-2,1,-1,8,6,25,-1
1511883515348940,2,1,-4,0,9,6,-1,0
1511883515349943,-8,-4,-4,1,1,-2,-5,-1
1511883515349943,15,2,0,-3,1,4,-8,-1
1511883515364483,-1,-5,3,1,8,7,-1,-1
1511883515364483,1,-3,6,-4,6,-5,-8,-2
1511883515370531,-3,0,13,3,5,5,32,-6
1511883515370531,-4,-1,19,4,7,-6,1,-24
1511883515385539,4,5,20,-5,-6,7,-15,-54
1511883515385539,-2,-2,19,-12,-12,3,2,-76
1511883515392586,6,-2,20,-15,7,-4,-8,-84
1511883515392586,2,-1,13,-22,1,-18,-12,-88
1511883515408631,2,0,12,-19,-3,-13,30,-62
1511883515408631,-4,-3,7,-15,-6,-8,-2,-43
1511883515409603,-6,0,-1,-12,-10,-2,-4,-25
1511883515409603,-5,3,-6,-9,-2,-2,-2,-5
1511883515424643,-2,5,-13,-2,4,-7,-25,2
1511883515424643,4,2,-10,2,3,13,13,6
1511883515430659,3,-4,-11,1,0,12,1,13
1511883515430659,-1,-6,-12,4,6,16,3,22
1511883515445723,2,-6,-9,2,5,6,-21,13
1511883515445723,1,-4,-10,4,1,0,0,18
1511883515453266,0,0,-8,8,4,-2,-9,18
1511883515453266,-3,8,-7,1,-3,2,-1,14
1511883515468310,3,1,-9,1,-5,-18,-1,18
1511883515468310,1,-6,-12,7,6,-9,1,14
1511883515469313,1,2,-13,13,4,-9,3,12
1511883515469313,1,2,-17,18,-3,-1,-13,13
1511883515484353,-1,6,-8,23,-4,1,-5,17
1511883515484353,-6,4,-3,17,-6,-1,-4,17
1511883515490397,-4,6,3,12,-4,-7,-5,13
1511883515490397,-4,-6,-2,6,-8,4,-16,10
1511883515505436,-1,-2,-4,-2,-5,1,21,9
1511883515505436,-2,-4,-4,-4,-1,2,-5,8
1511883515513457,3,0,0,-9,5,-5,0,8
1511883515513457,-1,-4,-2,-6,8,-10,7,7
1511883515528498,-2,-3,-2,-4,0,-3,-7,7
1511883515528498,-3,-1,-5,-10,-3,4,-5,9
1511883515529473,-1,-2,-2,-5,2,-10,-12,4
1511883515529473,3,0,-1,-2,-2,-4,4,5
1511883515545045,0,2,-2,-5,-4,-8,-2,8
1511883515545045,-3,4,-6,-14,-7,-2,4,5
1511883515551033,1,2,-12,-11,-4,10,-9,3
1511883515551033,0,-6,-8,-7,-4,-12,-11,7
1511883515565126,3,-5,-1,-9,-3,-1,5,6
1511883515565126,-1,-1,2,-10,0,6,1,7
1511883515573125,-5,-1,6,-7,-8,14,6,8
1511883515573125,-9,-1,1,3,6,10,10,3
1511883515589168,-4,2,0,0,4,12,-8,7
1511883515589168,-4,-4,3,7,0,-4,5,2
1511883515589168,-2,-3,4,4,2,2,-2,2
1511883515589168,1,-4,1,1,-5,2,7,6
1511883515604213,0,7,-2,2,2,-8,-11,2
1511883515604213,2,3,-7,-4,4,-5,-8,-2
1511883515610252,2,-5,-2,1,3,-13,0,1
1511883515610252,-2,-1,2,4,2,-4,-2,5
1511883515625284,3,-1,-1,5,3,-6,-1,7
1511883515625284,1,5,-3,8,-2,-4,-7,4
1511883515633307,0,3,-5,4,-4,0,-9,-2
1511883515633307,-4,-4,6,2,-1,2,-3,-5
1511883515648830,-2,-4,3,2,3,0,-4,-1
1511883515648830,-1,-3,0,5,2,-6,-9,0
1511883515649833,-3,-5,-3,1,0,-18,-9,6
1511883515649833,1,-4,-3,-6,-3,-15,-6,3
1511883515664412,1,-4,-4,-7,-12,-15,-3,2
1511883515664412,-1,-5,3,-3,-3,-10,-3,3
1511883515670455,-1,4,-3,-1,-1,-11,-8,1
1511883515670455,0,5,-4,-5,-1,1,-1,-3
1511883515685494,1,6,-5,1,1,-8,0,-2
1511883515685494,-2,0,-7,3,-4,-20,16,0
1511883515693515,-2,-1,3,5,1,-12,24,4
1511883515693515,-1,-2,6,4,2,-6,20,7
1511883515708559,2,-2,6,-3,4,17,19,1
1511883515708559,-4,-1,4,-3,5,17,2,2
1511883515709531,-3,1,-2,-6,1,22,3,0
1511883515709531,-1,-1,-2,-5,-2,13,5,0
1511883515724571,-4,-11,-4,-3,-5,11,-3,1
1511883515724571,3,2,1,-2,-10,16,0,0
1511883515730587,5,-4,1,-1,1,9,2,1
1511883515730587,0,-8,-7,0,12,7,-4,-2
1511883515745850,4,3,6,-3,1,-2,0,2
1511883515745850,-3,0,-2,-3,-2,0,0,3
1511883515753245,-5,5,1,-6,-1,-3,4,-4
1511883515753245,-2,12,-6,-8,-6,-6,-5,1
1511883515768320,-9,-3,-3,1,4,4,-1,2
1511883515768320,2,-12,-1,-1,-1,0,-1,1
1511883515775337,3,-17,-3,-2,4,3,-5,1
1511883515775337,-1,-14,-4,-2,-2,-4,-5,-1
1511883515784368,-2,-2,-7,-3,1,-9,2,-4
1511883515784368,-1,2,-6,-8,1,-9,-8,0
1511883515790378,-6,-13,-13,-5,-1,-8,0,-3
1511883515790378,7,4,3,-6,3,-11,-6,4
1511883515805418,-7,-3,-1,1,-3,-11,-16,1
1511883515805418,-9,-1,-3,2,3,-11,-9,-1
1511883515813617,15,8,-1,3,2,-8,-3,7
1511883515813617,-7,0,-2,2,-6,-7,-5,1
1511883515828611,5,0,0,-1,-5,-8,6,2
1511883515828611,-6,-2,6,-1,-1,-5,1,-3
1511883515835543,-8,2,2,-4,-1,0,0,-2
1511883515835543,1,6,4,-4,0,0,7,-1
1511883515845074,25,10,3,1,5,-6,-5,0
1511883515845074,-20,-29,-13,1,5,-7,0,-3
1511883515851117,17,10,2,5,1,-9,5,6
1511883515851117,6,16,12,9,-5,-16,8,3
1511883515865238,-8,5,-2,2,-3,-61,-9,-3
1511883515865238,6,14,1,6,3,-86,-3,-1
1511883515873236,-15,-7,-3,6,-3,-92,-1,-6
1511883515873236,-4,-7,-4,9,0,-69,-10,4
1511883515888261,-6,-1,2,5,1,-23,-5,-6
1511883515888261,-3,-7,2,5,-1,-6,-1,2
1511883515895473,-1,-1,-6,1,-9,7,0,1
1511883515895473,7,-1,-7,3,-3,18,-2,-1
1511883515904301,-9,-4,-7,-5,-3,27,-14,-1
1511883515904301,14,7,-4,-5,-4,28,4,1
1511883515910528,2,-1,0,-9,0,29,-6,-5
1511883515910528,-4,-10,-3,-2,4,40,6,-2
1511883515925359,-1,-1,-5,0,5,39,-2,1
1511883515925359,13,6,-3,1,1,49,-6,4
1511883515933381,-5,2,3,6,3,47,7,4
1511883515933381,-5,-7,-4,-5,1,28,-1,-5
1511883515948424,-2,-7,2,-3,-7,24,8,2
1511883515948424,-2,10,3,-13,-9,20,0,-1
1511883515955941,-8,5,-1,-12,-1,15,-6,1
1511883515955941,-16,-5,-1,-10,-2,16,-4,-3
1511883515970762,-1,2,1,-8,2,12,10,1
1511883515970762,1,-6,-1,-7,-2,4,4,-1
1511883515971739,0,-7,1,-3,-2,3,0,0
1511883515971739,3,2,-2,-6,-3,1,1,-1
1511883515985802,6,5,0,1,0,9,1,2
1511883515985802,3,6,-3,6,3,11,-1,2
1511883515992821,-6,-2,5,2,3,1,-3,-9
1511883515992821,22,14,6,4,-1,2,6,3
1511883516007834,-5,-2,3,2,-2,5,8,-5
1511883516007834,2,1,-2,3,-1,1,7,0
1511883516015887,5,2,-7,-2,0,2,1,5
1511883516015887,0,-7,-5,-2,2,-1,25,1
1511883516030895,-10,-6,-3,8,0,2,1,-5
1511883516030895,-2,-8,-2,4,1,1,1,3
1511883516031898,-14,-6,-7,1,1,-2,-3,1
1511883516031898,3,-5,-6,-2,-4,1,4,0
1511883516053960,1,6,-1,7,-5,2,6,-3
1511883516053960,0,5,-2,7,-6,4,-6,-4
1511883516054462,4,1,3,5,-3,4,-5,-4
1511883516054462,-3,-6,-1,4,5,11,-11,-3
1511883516067999,0,9,11,4,4,-1,-1,-3
1511883516067999,-2,-1,10,2,0,3,-8,-5
1511883516075040,1,2,2,0,-8,4,-2,-1
1511883516075040,-5,-3,-8,-3,-7,-1,-14,2
1511883516091087,9,-4,-5,-8,-3,1,-3,6
1511883516091087,-4,5,-4,-8,3,1,-4,2
1511883516092063,-4,1,-3,-7,5,5,2,-3
1511883516092063,-9,4,6,-2,1,-1,-1,-4
1511883516107106,-6,-2,-2,-3,-4,-5,5,-2
1511883516107106,6,0,7,0,3,-5,6,0
1511883516113146,5,-1,8,5,-1,3,6,2
1511883516113146,-3,-6,8,3,2,-6,2,-2
1511883516128159,1,-9,5,4,3,-9,-11,-2
1511883516128159,-6,4,6,10,-3,0,1,-1
1511883516135204,9,-1,-2,6,-3,-4,-13,0
1511883516135204,-1,-3,6,1,-1,8,-11,-2
1511883516151259,-5,-8,-2,-4,-3,7,-8,-6
1511883516151259,13,3,6,-4,0,7,0,4
