timestamp,emg1,emg2,emg3,emg4,emg5,emg6,emg7,emg8
1511884029531435,-1,-2,-2,3,-4,-13,-12,-2
1511884029531435,-1,0,2,4,1,2,1,4
1511884029532468,1,0,0,-7,-3,0,-1,-2
1511884029532468,2,-2,-5,4,-6,1,0,-3
1511884029535494,-2,-2,-3,-3,2,3,3,-1
1511884029535494,-2,0,0,4,2,-2,0,-2
1511884029536449,3,9,5,0,1,-2,-2,-1
1511884029536449,-5,-14,-5,3,-5,0,1,-1
1511884029542468,0,2,-4,-12,-3,-4,0,1
1511884029542468,0,1,-2,2,-3,-1,-2,0
1511884029552508,-2,-2,-2,-5,2,2,1,1
1511884029552508,-1,7,3,4,5,-1,-2,-1
1511884029556532,0,-2,0,3,-12,-1,0,-2
1511884029556532,1,-1,-2,0,2,0,-3,-2
1511884029571542,0,-5,-3,3,-4,-2,0,-1
1511884029571542,-3,-1,-2,-12,1,0,-1,0
1511884029582131,-3,-3,2,4,6,0,0,-2
1511884029582131,2,3,-2,-12,0,-1,-1,-2
1511884029603172,-2,-3,1,10,-1,0,-1,0
1511884029603172,1,2,0,-5,-4,-1,-1,0
1511884029604174,-1,-1,-1,11,12,3,2,-2
1511884029604174,-2,-3,0,-16,-7,-2,0,-1
1511884029649293,-2,3,4,2,2,-5,-4,0
1511884029649293,-1,-1,-2,4,-3,-1,1,0
1511884029651299,-1,0,2,-5,-1,-1,-1,-3
1511884029651299,-2,2,-2,-1,0,-1,1,0
1511884029652301,0,-3,-1,1,-3,-4,-2,1
1511884029652301,0,-1,2,5,0,3,0,-1
1511884029654307,-2,-1,-4,-6,-1,-3,-3,-1
1511884029654307,1,0,1,0,3,3,0,1
1511884029662328,0,0,0,-5,-5,-4,0,-2
1511884029662328,-2,0,2,1,0,-1,-3,-3
1511884029670351,0,-2,-1,6,-5,0,2,0
1511884029670351,-2,-4,-3,-4,0,1,-2,-2
1511884029676887,-1,-2,-3,1,-1,0,0,0
1511884029676887,0,-1,0,0,1,-4,-1,-1
1511884029691937,-1,0,-4,0,-1,0,-1,0
1511884029691937,1,0,0,0,-3,-4,0,0
1511884029698980,-3,-2,-1,-2,1,2,-1,0
1511884029698980,2,1,-1,-6,-1,-1,0,0
1511884029723019,-1,1,0,0,2,-1,1,1
1511884029723019,1,-1,-1,2,0,0,1,-3
1511884029724022,0,-2,-3,-5,0,-1,1,-1
1511884029724022,-1,-1,2,7,3,2,-2,-2
1511884029737058,-1,-1,0,-5,1,-1,-2,1
1511884029737058,1,-2,1,-3,-5,-5,0,-2
1511884029738061,-2,0,-2,7,11,20,-1,-1
1511884029738061,-2,0,-4,-5,-10,3,4,2
1511884029760120,-3,-3,-2,-6,12,-11,-9,-4
1511884029760120,-2,1,3,8,-2,-4,0,-1
1511884029761148,3,-2,1,-1,0,-8,4,0
1511884029761148,-5,-6,-5,-10,-3,-3,-13,-5
1511884029783182,0,2,1,-2,-1,18,6,1
1511884029783182,-5,0,-2,3,5,7,1,0
1511884029784185,1,1,0,-6,9,-6,-1,1
1511884029784185,-2,-2,-5,-7,-55,-43,-7,-6
1511884029797774,0,-2,-4,-3,10,20,-4,-15
1511884029797774,2,-1,1,0,3,13,1,17
1511884029798777,3,3,2,7,24,45,10,3
1511884029798777,1,2,2,4,9,-20,8,3
1511884029819833,1,-3,-2,0,-10,12,-4,-3
1511884029819833,-3,-1,-1,-4,-9,-28,-8,-10
1511884029820835,-1,-1,0,-3,-12,-12,-1,1
1511884029820835,-5,-1,1,-2,11,12,-2,-5
1511884029842895,3,-1,-1,8,-4,-3,3,12
1511884029842895,-6,0,0,3,9,8,-1,-15
1511884029843897,15,4,0,-2,-5,-9,1,26
1511884029843897,-6,1,-2,-2,12,16,2,-6
1511884029857935,-1,0,4,-6,-5,-9,-1,-5
1511884029857935,-2,-2,-8,-4,-11,-13,-4,-4
1511884029857935,-5,-3,0,0,-10,-12,-6,-1
1511884029857935,8,3,2,19,10,19,5,3
1511884029880024,2,2,-6,-23,-2,-7,7,18
1511884029880024,0,2,3,-5,-8,-11,-1,-2
1511884029881053,-9,-4,-2,7,0,-4,-9,-22
1511884029881053,4,-1,-3,-18,-7,-1,-1,3
1511884029902900,-2,-1,2,13,1,-16,-3,-2
1511884029902900,3,2,1,4,10,23,5,-6
1511884029902900,-3,-3,-3,-1,19,-9,-1,19
1511884029902900,-2,-2,3,-1,-27,-7,-3,-8
1511884029917981,-3,1,1,12,11,13,-5,-9
1511884029917981,2,-4,-3,-16,-6,17,-3,-8
1511884029917981,0,3,3,5,-8,0,11,1
1511884029917981,1,-2,-3,-2,11,4,-11,4
1511884029940024,0,0,2,-4,3,-12,1,-1
1511884029940024,-2,-2,0,4,2,4,4,4
1511884029941028,0,-1,0,5,-23,-45,-16,-9
1511884029941028,-3,-3,-7,0,24,40,7,1
1511884029962077,-4,-2,-3,-8,-16,-16,-4,-14
1511884029962077,-1,-3,3,15,1,-4,-4,1
1511884029963059,1,0,-5,-17,-5,-7,6,8
1511884029963059,1,2,7,11,5,-3,0,-6
1511884029977601,-4,-4,-5,-2,5,10,-3,1
1511884029977601,0,1,-1,-20,-11,-16,-5,-12
1511884029978603,1,0,6,18,3,-5,7,27
1511884029978603,-7,-4,-6,-6,-18,4,-3,-22
1511884030000188,7,-1,6,13,6,-1,9,20
1511884030000188,0,1,-6,0,17,7,-1,-4
1511884030001191,-4,-2,-10,-15,6,0,-3,-12
1511884030001191,-1,5,12,5,-4,16,-10,-2
1511884030022247,-9,-5,-7,-12,14,27,-2,-17
1511884030022247,6,3,-2,21,-27,-11,8,18
1511884030023249,-5,-5,-5,-18,24,21,-3,-17
1511884030023249,1,0,-5,-7,5,-39,1,13
1511884030037287,5,8,12,19,11,-23,7,10
1511884030037287,-9,-7,-7,-23,-3,36,-2,-4
1511884030045332,-3,2,3,20,-6,-15,-5,-17
1511884030045332,5,4,-14,-28,-33,-4,6,5
1511884030060348,-1,-10,5,33,63,44,9,13
1511884030060348,-1,-6,-3,-6,-9,-20,-5,9
1511884030060348,-4,2,9,1,-29,10,3,-16
1511884030060348,-3,-6,-16,-43,2,-37,-9,3
1511884030082961,-1,4,-5,-10,-39,-9,-9,-12
1511884030082961,10,4,13,29,8,-6,7,10
1511884030083433,-1,1,-2,27,8,10,-2,9
1511884030083433,1,-1,1,-4,-4,6,2,6
1511884030096571,-5,-1,-12,-14,-3,-16,-3,-9
1511884030096571,-7,7,6,-7,11,4,-12,-14
1511884030104592,5,24,18,45,-3,-1,4,-3
1511884030104592,1,-6,5,-7,-20,12,20,3
1511884030119634,-5,-14,-17,-61,-11,-15,-12,3
1511884030119634,-9,-18,-24,-7,8,3,-1,-3
1511884030120636,-1,4,-4,-38,-12,-4,-17,-10
1511884030120636,8,41,17,58,14,-7,3,-3
1511884030142694,-1,-22,8,6,-51,-3,6,5
1511884030142694,6,7,0,87,20,11,12,13
1511884030143720,12,23,6,-100,-1,7,-3,4
1511884030143720,-6,10,6,53,11,0,-13,-12
1511884030156730,3,59,62,103,22,-30,-19,-19
1511884030156730,-29,-84,-94,-103,-38,-25,13,26
1511884030164752,1,50,1,7,7,28,11,1
1511884030164752,-3,-5,4,39,-3,-17,-6,-6
1511884030180343,-10,25,-28,-51,-35,34,6,-14
1511884030180343,-12,29,45,-48,17,1,-19,-22
1511884030180821,12,-85,-28,50,1,-16,-3,-8
1511884030180821,0,26,30,36,24,26,15,12
1511884030202483,4,-12,-6,51,-13,-26,-12,0
1511884030202483,15,37,11,-38,2,22,7,10
1511884030203459,10,1,-14,-107,-15,5,15,17
1511884030203459,-23,-88,-6,19,-2,-11,-14,-13
1511884030216496,-3,-34,-19,3,-10,-3,8,7
1511884030216496,-7,21,5,22,-19,-10,-6,-17
1511884030224514,3,47,23,29,-10,-14,-13,-3
1511884030224514,9,-38,-10,-16,20,11,7,15
1511884030239586,13,97,31,-26,26,18,11,7
1511884030239586,-21,-115,-30,23,-7,-14,-16,-11
1511884030240557,-3,62,15,46,14,4,8,0
1511884030240557,-6,-20,-18,-42,-68,-6,-10,-9
1511884030262643,-3,-34,-22,-10,6,-4,2,-4
1511884030262643,10,22,21,14,13,-11,-2,6
1511884030263638,-6,-9,-3,-2,1,5,4,-5
1511884030263638,-3,12,-7,-29,13,4,8,-3
1511884030277193,7,10,9,-1,1,-8,-21,0
1511884030277193,9,15,8,9,-11,-7,2,1
1511884030285214,-16,-56,-19,-11,-14,4,0,-6
1511884030285214,0,23,0,-1,21,-5,10,1
1511884030301833,1,-14,-1,1,-9,1,5,4
1511884030301833,7,13,6,-9,10,7,6,0
1511884030301833,-5,-3,-3,20,-8,-7,-15,-5
1511884030301833,0,12,-3,-12,25,4,-4,2
1511884030322975,0,-11,-9,-16,-5,-1,7,2
1511884030322975,6,11,8,5,3,-3,-2,0
1511884030323893,-3,-7,0,9,2,-2,-2,-1
1511884030323893,6,16,-1,-11,-7,0,0,6
1511884030336900,-5,-14,-6,17,7,-1,-1,-1
1511884030336900,1,17,6,-31,-15,-5,-3,-2
1511884030345048,-7,-13,1,36,-2,-2,-2,-2
1511884030345048,4,5,-4,-22,-21,-5,-4,-1
1511884030359986,-3,-15,-17,-19,5,-2,-2,-1
1511884030359986,6,17,11,35,8,1,2,0
1511884030360964,-2,-5,0,26,8,2,2,2
1511884030360964,-5,-2,3,30,-14,-4,-5,-3
1511884030382729,-1,-1,4,5,-6,-2,-1,-2
1511884030382729,3,10,6,9,4,3,4,0
1511884030383634,-5,-11,-7,-12,-2,0,-2,-3
1511884030383634,3,6,-11,-32,30,8,-1,4
1511884030396786,2,-2,-11,-35,-19,-4,2,2
1511884030396786,-1,3,-5,-13,10,2,0,0
1511884030404910,-4,-6,5,11,-21,-11,-4,-2
1511884030404910,0,7,3,-12,-20,2,-2,0
1511884030419853,-1,-2,-3,1,31,-1,-1,0
1511884030419853,3,3,1,2,-5,-10,0,1
1511884030420855,0,-3,-2,-12,21,33,-3,-5
1511884030420855,-1,6,3,4,5,-3,1,2
1511884030442910,-2,-7,-4,-25,7,1,0,0
1511884030442910,-1,4,9,22,-13,-12,-4,-3
1511884030442910,1,-8,-10,-19,4,-2,3,4
1511884030442910,-1,2,6,1,-3,-6,-4,-5
1511884030466095,2,-3,0,15,4,10,2,-1
1511884030466095,0,6,3,4,1,-2,1,0
1511884030466978,-4,-3,-8,-33,10,2,0,-3
1511884030466978,3,-1,2,27,-24,-11,-2,1
1511884030480536,0,3,5,37,12,5,5,1
1511884030480536,-4,-5,-13,-45,-43,-14,-6,-2
1511884030481039,-5,1,11,31,-34,-23,-5,-4
1511884030481039,-2,1,9,-1,15,19,0,-3
1511884030502804,0,-3,-7,59,14,-8,-2,-3
1511884030502804,-1,-2,8,14,3,2,0,-1
1511884030503804,-5,-3,6,19,-60,1,-5,-8
1511884030503804,-1,3,4,11,-24,-30,-3,-1
1511884030526046,3,7,45,-43,25,8,4,7
1511884030526046,0,-19,-50,-15,22,23,4,1
1511884030527023,-3,10,20,-29,-69,-12,-5,-4
1511884030527023,2,-4,-10,-31,59,-18,1,1
1511884030540015,3,4,-2,7,6,21,-2,-1
1511884030540015,-1,6,20,22,-6,-44,-5,0
1511884030540902,6,4,-11,-50,50,31,10,7
1511884030540902,-5,-10,-20,-8,-6,28,0,-5
1511884030561957,-7,4,22,-20,-25,-17,-11,-8
1511884030561957,2,8,9,25,54,20,5,4
1511884030562959,3,-10,-32,4,40,-3,-4,-1
1511884030562959,1,3,17,28,-17,-35,6,7
1511884030586056,0,-7,-11,22,-28,-14,2,3
1511884030586056,-7,-2,-3,-27,-26,36,-19,-19
1511884030586558,-4,-9,-5,17,30,15,0,-4
1511884030586558,6,9,12,21,35,20,3,3
1511884030600068,-6,-19,-19,4,-53,-29,2,3
1511884030600068,4,3,4,46,-30,-37,3,7
1511884030601071,-3,-6,14,28,3,4,0,0
1511884030601071,5,11,-2,-34,9,-39,-4,2
1511884030622099,5,15,5,8,43,42,0,2
1511884030622099,-5,-2,10,-10,27,30,-1,-11
1511884030631124,7,-1,-14,-18,-5,-67,6,14
1511884030631124,-9,-9,2,1,-2,80,-7,-12
1511884030645164,-4,-8,-12,17,-43,-23,-3,-4
1511884030645164,5,13,19,-2,-18,-2,2,6
1511884030647166,-2,-7,-28,10,11,38,-3,-8
1511884030647166,5,5,-11,39,-23,-73,2,10
1511884030668222,-2,1,0,-38,4,25,-4,-6
1511884030668222,-9,-8,-17,-53,-4,14,-3,-11
1511884030670228,17,43,49,53,25,-10,15,10
1511884030670228,-8,-19,-29,-17,-21,-15,-9,-1
1511884030682261,-11,-35,-11,-64,-21,16,2,-5
1511884030682261,22,39,19,38,30,-8,12,20
1511884030691285,-15,-7,-17,-65,-36,-18,-12,-10
1511884030691285,5,25,7,13,71,64,17,-3
1511884030704846,-2,16,4,-79,-30,-8,5,-2
1511884030704846,7,-13,-5,-10,1,-61,-23,-2
1511884030711891,-5,-67,-11,-20,7,45,30,-12
1511884030711891,3,92,11,32,-28,-56,-43,15
1511884030727907,-6,1,-21,53,34,22,14,-6
1511884030727907,7,33,11,-22,13,8,8,4
1511884030729939,16,41,29,117,-3,15,5,6
1511884030729939,-9,-24,-5,-56,29,-36,-27,-13
1511884030741945,6,-9,20,81,30,-7,9,5
1511884030741945,9,32,17,56,3,13,-9,6
1511884030750968,-17,-50,-24,-92,-30,-10,4,-5
1511884030750968,2,9,7,-53,0,43,31,-2
1511884030765029,-2,-31,-33,-28,19,0,3,4
1511884030765029,-2,-5,12,54,25,-17,-16,8
1511884030779547,1,26,7,12,2,-34,-55,-12
1511884030779547,-5,-31,-23,-46,-5,16,3,-4
1511884030788571,12,19,39,102,-30,-31,0,7
1511884030788571,-21,-52,-53,-116,-46,36,35,-13
1511884030790076,-4,50,11,41,19,-34,-25,6
1511884030790076,9,8,3,-27,-12,24,14,6
1511884030801435,7,65,22,37,-4,-29,-22,-5
1511884030801435,-2,-31,-2,106,25,2,2,-3
1511884030810458,-10,-3,-17,-83,-13,15,-2,-5
1511884030810458,-20,-101,-19,-34,-37,-14,-15,-9
1511884030824495,8,43,-1,-47,-5,18,21,3
1511884030824495,-12,-17,-10,-55,-45,-23,-31,-10
1511884030831541,10,15,-1,-10,92,30,23,9
1511884030831541,3,-13,5,5,-4,-3,-1,1
1511884030848586,-4,7,9,61,-5,-28,-13,-6
1511884030848586,1,16,-5,-83,-13,20,13,3
1511884030849562,12,12,30,44,18,23,28,6
1511884030849562,3,45,1,-22,-19,-13,-9,1
1511884030861595,2,-8,-7,1,28,15,-5,6
1511884030861595,-7,-20,-16,56,-28,2,21,-7
1511884030870626,2,27,9,-29,5,-15,-17,-2
1511884030870626,3,-9,12,44,-8,7,10,6
1511884030885215,-2,-5,-22,-109,-30,-5,-12,-8
1511884030885215,-3,9,5,6,12,8,12,1
1511884030892204,0,-7,-5,62,-7,-14,-2,2
1511884030892204,-8,-20,-28,-64,-23,-5,-10,-7
1511884030907774,0,-13,3,63,-3,-6,9,5
1511884030907774,0,6,-2,-20,6,9,-1,1
1511884030909752,7,25,9,17,23,-8,-1,4
1511884030909752,-12,-46,-8,43,19,3,-5,-10
1511884030921812,-4,-3,-5,-32,3,17,11,-4
1511884030921812,5,12,0,-38,-25,-14,-10,4
1511884030930808,-6,-23,-13,-14,3,5,-10,-1
1511884030930808,4,10,0,26,-2,-26,3,1
1511884030944846,-5,1,-1,-21,-14,-9,-21,-7
1511884030944846,-2,-16,4,39,-12,-12,-7,-4
1511884030951891,1,-6,-7,-39,-15,20,16,3
1511884030951891,-1,9,-3,15,31,3,-4,-4
1511884030967908,-5,-13,-6,-33,18,12,20,3
1511884030967908,-4,-4,-2,-18,20,5,3,-3
1511884030969913,-1,-17,-11,12,-23,-7,1,3
1511884030969913,2,15,-9,-61,36,33,23,-3
1511884030991001,2,-12,-2,23,18,-25,-20,6
1511884030991001,8,26,3,-15,-6,-6,-10,3
1511884030992475,-8,-39,-7,-14,-14,-9,-6,-5
1511884030992475,1,-9,2,36,-9,4,5,3
1511884031004635,2,5,2,-13,-2,28,9,-1
1511884031004635,0,12,3,29,24,-16,-6,1
1511884031011654,-8,-6,-4,-9,-38,-13,-11,-8
1511884031011654,11,31,20,48,2,23,16,11
1511884031028670,0,-29,-16,-41,-30,-33,-17,-1
1511884031028670,-11,-7,2,2,3,19,9,-8
1511884031029714,-1,-4,-7,-6,4,-7,-8,-2
1511884031029714,0,20,20,31,-3,0,2,1
1511884031050760,3,14,8,42,-3,13,6,-2
1511884031050760,7,0,-7,-39,34,2,0,3
1511884031052734,-6,-10,-6,20,15,-3,-2,-2
1511884031052734,3,3,3,0,-11,10,4,1
1511884031064764,-4,-5,-4,-15,-15,7,-4,-4
1511884031064764,-6,-6,-6,-27,-26,-12,-8,-7
1511884031071783,0,1,6,20,16,-5,-5,0
1511884031071783,2,7,-2,-5,12,-23,-19,-1
1511884031088358,-5,-13,0,3,2,1,-2,-3
1511884031088358,2,1,2,23,-12,12,4,1
1511884031089837,-1,2,-7,-34,-51,-5,21,3
1511884031089837,-3,-6,4,20,-12,-10,-12,-3
1511884031110942,-1,5,-4,-3,19,0,-2,-1
1511884031110942,1,-4,-3,-13,-17,-2,1,0
1511884031111955,1,-3,-1,-9,-7,-1,-5,-3
1511884031111955,-2,5,5,4,14,3,7,-2
1511884031123954,-2,-4,-3,2,20,0,0,1
1511884031123954,0,-1,3,26,19,2,-2,1
1511884031132978,0,6,1,-10,-9,2,3,1
1511884031132978,-4,-10,0,8,5,1,-3,-3
1511884031148045,1,-1,-9,-26,4,-2,-1,0
1511884031148045,1,-2,0,5,-16,3,4,3
1511884031150050,1,-1,0,-4,15,-1,-4,-2
1511884031150050,-1,-4,-4,-4,-31,-8,0,0
1511884031171078,-2,5,4,-9,17,3,3,0
1511884031171078,1,-3,-8,13,19,-4,-9,1
1511884031172096,0,7,4,6,0,8,11,5
1511884031172096,-5,-18,-4,-2,-16,-18,-15,-4
1511884031184615,-4,2,-2,-17,-10,0,3,-1
1511884031184615,0,0,-3,-4,16,2,3,2
1511884031192660,0,-2,-5,-15,6,11,6,0
1511884031192660,1,6,0,1,-5,8,3,0
1511884031208088,3,3,4,16,2,-1,6,3
1511884031208088,-3,-6,2,8,23,9,8,-4
1511884031210068,0,-2,-16,-64,-66,-24,-12,1
1511884031210068,-2,-1,-4,-19,49,3,-4,-3
1511884031231124,0,0,-1,0,-18,-5,-6,-5
1511884031231124,-2,-3,4,34,19,3,6,0
1511884031232127,-1,3,1,-1,-25,-8,-4,-3
1511884031232127,2,-1,-1,12,-11,1,4,3
1511884031244159,0,0,3,6,6,5,1,1
1511884031244159,2,3,-1,1,0,0,-1,1
1511884031253183,-2,3,8,13,2,-1,-2,-2
1511884031253183,-1,1,-6,-12,-15,-2,1,0
1511884031268249,-1,-2,2,13,-4,-5,-7,-5
1511884031268249,1,0,4,-6,-17,-2,2,1
1511884031270228,0,-7,-7,-3,14,-1,-2,1
1511884031270228,1,7,5,61,5,-1,-4,-2
1511884031290834,-2,-4,-5,-42,-9,-1,-1,-3
1511884031290834,0,2,3,21,-1,0,-4,-2
1511884031292815,2,3,4,21,33,11,6,1
1511884031292815,1,-4,-2,-11,-14,-2,2,-1
1511884031304401,-7,-4,-2,25,13,-2,-1,-4
1511884031304401,1,2,1,-22,-7,-2,-2,2
1511884031313398,1,-5,5,13,-3,-13,-8,-5
1511884031313398,1,4,2,37,28,11,7,2
1511884031328438,3,0,-4,-14,-9,-2,-3,1
1511884031328438,-3,1,3,-5,-1,6,2,-2
1511884031329445,-3,-2,0,23,-4,9,4,-3
1511884031329445,2,0,0,-25,-29,-10,1,5
1511884031350546,-1,0,-4,-16,-1,-3,-6,-3
1511884031350546,-2,-3,1,0,10,-11,-9,-1
1511884031352540,3,2,0,23,17,13,7,2
1511884031352540,-5,-5,-2,-10,-15,-5,-7,-4
1511884031364584,-1,1,5,18,-6,3,1,-1
1511884031364584,-1,-4,-3,-4,5,-6,-5,0
1511884031373564,0,1,0,1,2,2,1,-1
1511884031373564,-3,1,-1,-21,-4,-3,-2,0
1511884031388611,-1,-5,-4,-10,-1,-3,0,0
1511884031388611,-1,-3,-10,-30,-9,-2,-2,-3
1511884031390155,0,5,-3,-29,-10,-6,-7,-2
1511884031390155,-1,-18,-6,1,8,5,5,1
1511884031411327,4,4,0,-2,-7,-4,-2,1
1511884031411327,-2,-3,0,1,-10,1,1,-1
1511884031412289,-6,-2,3,39,27,-7,-8,-4
1511884031412289,3,3,-4,-34,-28,2,4,1
1511884031425361,1,2,-8,-24,11,0,-1,2
1511884031425361,0,1,4,18,7,2,1,-1
1511884031433350,-1,-5,-1,-22,3,-8,-8,-1
1511884031433350,-1,0,-6,7,18,6,3,1
1511884031448521,-1,-4,-4,3,-13,4,0,-1
1511884031448521,0,7,8,25,-9,5,6,-2
1511884031449392,-1,-1,3,-13,-30,-18,-13,0
1511884031449392,-2,1,-8,8,16,7,3,0
1511884031470450,3,3,0,-12,0,-4,-2,3
1511884031470450,-3,-4,-3,-16,-3,-1,-1,-1
1511884031472497,1,-1,-2,3,6,7,5,1
1511884031472497,0,3,6,-5,1,8,3,-2
1511884031484487,2,0,2,-1,-19,-12,-3,-1
1511884031484487,-5,-4,-7,-2,0,-6,-8,-2
1511884031493520,-4,-5,-3,6,24,9,2,1
1511884031493520,-1,-1,-5,0,-33,1,0,-2
1511884031508704,-1,0,0,4,0,-6,0,2
1511884031508704,3,3,-2,-30,-3,-11,-9,-1
1511884031509569,-1,3,4,-15,8,11,10,0
1511884031509569,-1,1,2,41,9,-5,-6,0
1511884031530659,-6,-5,-1,0,-12,-7,-6,-7
1511884031530659,1,-1,-3,14,-12,1,2,0
1511884031532622,0,1,1,-12,0,-7,-12,-4
1511884031532622,-1,-3,-8,-42,-10,13,20,4
1511884031544682,3,2,6,39,37,-11,-14,-3
1511884031544682,0,0,4,-8,7,6,6,2
1511884031553689,1,1,-4,1,-4,5,3,1
1511884031553689,-3,1,8,4,18,-1,-4,-5
1511884031567744,-2,-2,-5,-5,-9,3,3,-2
1511884031567744,4,0,0,35,29,6,5,5
1511884031569728,0,-1,4,-9,6,0,-3,-2
1511884031569728,0,6,1,-5,-9,3,3,-2
1511884031590835,-7,-12,-6,15,16,9,4,-1
1511884031590835,-1,3,11,14,-9,-12,-16,-3
1511884031592812,-4,-19,-10,-17,-8,1,3,2
1511884031592812,0,2,2,28,18,3,1,1
1511884031604464,2,1,-2,-18,-15,-6,-3,-1
1511884031604464,-4,-3,-1,-22,2,-7,-9,-4
1511884031613464,1,3,0,-10,-37,-2,6,2
1511884031613464,-1,-2,-1,-24,32,-5,-8,-3
1511884031628505,-3,-9,-9,-9,-22,4,8,1
1511884031628505,-1,-4,-2,-5,-8,-3,-2,-1
1511884031629507,4,4,-5,6,19,6,3,6
1511884031629507,0,1,1,-16,-8,-11,-7,-3
1511884031650563,2,3,2,17,5,10,10,2
1511884031650563,-1,2,-3,-48,-28,-10,-7,-6
1511884031652568,-5,-1,-3,5,19,1,0,-3
1511884031652568,-3,-19,-6,20,27,-4,-8,0
1511884031664601,0,4,2,-22,11,-3,-4,2
1511884031664601,-3,-6,1,10,-8,13,5,-1
1511884031673625,4,5,1,-1,10,-4,4,2
1511884031673625,0,2,0,-4,-14,3,-1,-3
1511884031687663,-2,-5,-3,17,24,-14,-15,-3
1511884031687663,0,1,3,-7,-6,-3,2,-2
1511884031694247,0,-2,7,23,-13,-2,-2,-1
1511884031694247,-2,-4,-14,-37,-14,-4,0,1
1511884031710289,0,3,5,-18,2,12,9,1
1511884031710289,2,4,-2,12,-11,-12,-11,1
1511884031712295,3,7,7,14,11,6,-1,-2
1511884031712295,0,3,2,9,-5,-10,-3,0
1511884031724327,-1,-2,-4,2,4,7,1,-1
1511884031724327,-4,-8,-4,5,-8,3,12,2
1511884031733351,-1,-2,-4,12,-3,-3,-6,-2
1511884031733351,-2,4,2,1,1,-2,-3,0
1511884031747389,-2,0,-2,-15,-36,3,13,2
1511884031747389,0,-1,-2,8,14,-19,-14,-3
1511884031754408,2,0,-8,16,29,6,0,2
1511884031754408,-3,-6,-9,-23,-24,0,0,-5
1511884031770451,2,6,8,17,7,-2,0,0
1511884031770451,1,-5,-5,19,17,18,14,2
1511884031772455,-1,0,-3,-15,-14,-5,-1,0
1511884031772455,-2,2,10,36,-4,-10,-9,-5
1511884031784489,2,4,-3,1,31,0,-6,-3
1511884031784489,-1,0,-2,-20,-13,10,10,2
1511884031793011,-1,-2,3,18,-3,-10,-9,0
1511884031793011,0,-3,1,-3,-4,-9,-5,0
1511884031807269,1,2,6,22,-3,4,1,-2
1511884031807269,1,1,-9,-22,2,4,0,1
1511884031814289,-1,-2,-5,-24,-7,-1,1,-1
1511884031814289,-1,-2,2,-11,-20,1,2,-2
1511884031830331,-2,-2,-8,-35,-12,-9,-6,0
1511884031830331,-3,-5,0,10,21,8,7,-1
1511884031832337,-3,-3,0,5,-21,-7,-2,-2
1511884031832337,2,4,-2,-23,-4,6,6,4
1511884031844370,-2,-2,0,22,0,-8,-12,-6
1511884031844370,0,1,1,-16,-9,-2,-4,-2
1511884031853394,0,2,-6,-18,13,5,4,-1
1511884031853394,1,-6,-3,27,-3,-8,-3,0
1511884031867429,-5,-6,-4,-26,1,25,15,0
1511884031867429,1,-2,-4,10,5,-4,-2,0
1511884031874448,0,0,-2,-24,-24,-26,-12,-5
1511884031874448,1,3,-6,-9,15,18,11,5
1511884031891496,0,-3,5,23,4,2,-2,-1
1511884031891496,3,3,-5,-7,-4,18,15,2
1511884031893000,-3,-3,0,-13,-4,1,-1,-2
1511884031893000,-2,-2,-7,-20,-37,-18,-14,-3
1511884031913082,0,-5,-3,-17,14,4,5,1
1511884031913082,-3,-1,-1,-1,1,-12,-7,-4
1511884031915088,1,-1,-4,-12,1,8,1,1
1511884031915088,3,6,5,2,14,21,16,0
1511884031927120,-1,0,-1,-4,-12,-28,-11,-1
1511884031927120,2,5,14,22,-10,-21,-17,1
1511884031934139,0,3,0,24,4,14,9,-2
1511884031934139,-2,-5,-1,4,26,7,0,0
1511884031950181,4,13,9,11,6,1,-3,2
1511884031950181,-4,-10,-6,10,2,1,2,-1
1511884031952188,-2,-1,-1,21,-21,-1,2,1
1511884031952188,0,4,7,23,75,7,1,0
1511884031973243,-4,-5,-5,-13,-43,-11,-4,-1
1511884031973243,1,1,0,7,0,0,-1,-1
1511884031975248,1,-1,7,12,-12,0,-5,-2
1511884031975248,-3,-3,-7,-25,20,-4,1,-3
1511884031987282,3,4,-4,-12,-20,-7,-10,-3
1511884031987282,-2,0,-1,-9,-1,9,8,0
1511884031995334,-1,-3,-7,-31,13,-10,-9,-1
1511884031995334,-1,3,1,4,-22,-1,-1,-1
1511884032010373,1,-1,13,42,10,22,17,4
1511884032010373,4,6,2,-14,-12,-21,-19,1
1511884032012379,1,-6,-3,28,11,9,10,0
1511884032012379,1,4,3,7,-21,-12,-13,-3
1511884032033434,-2,-5,2,13,17,5,4,0
1511884032033434,-2,-1,-2,-12,39,9,0,-5
1511884032034437,1,-5,1,10,-9,-1,0,3
1511884032034437,3,4,1,5,-18,-15,-10,-1
1511884032046469,-2,-2,-5,-8,-1,2,5,0
1511884032046469,-1,3,6,52,-8,2,5,2
1511884032055492,-3,-17,-6,-25,-2,-5,-4,-2
1511884032055492,-2,2,-2,-8,-7,-8,-7,-5
1511884032070533,0,-9,-1,12,-11,-1,-5,0
1511884032070533,4,10,3,6,-14,8,7,2
1511884032072538,-1,1,8,15,6,3,-3,0
1511884032072538,-3,-7,-3,-3,-3,5,-5,-1
1511884032093597,0,-2,-7,-22,-3,-9,3,4
1511884032093597,-5,-4,-5,-38,-8,9,7,-5
1511884032094691,1,8,3,-28,-6,-18,-17,-5
1511884032094691,2,-3,1,4,-21,7,8,4
1511884032106722,0,4,-5,-18,-4,-5,-10,-4
1511884032106722,-2,-2,0,10,-5,-1,2,-1
1511884032115747,0,5,-4,-8,-10,1,8,2
1511884032115747,-6,-15,-4,-16,-20,-4,0,-3
1511884032130787,-1,1,3,12,45,7,1,-1
1511884032130787,2,1,-3,-3,19,-9,-10,0
1511884032131790,0,4,3,0,-13,2,4,0
1511884032131790,1,1,0,7,10,-2,-3,-2
1511884032152845,1,2,-4,-5,-18,-3,4,1
1511884032152845,-5,-6,-3,-26,-14,-9,-11,-5
1511884032154851,-2,4,8,12,27,4,5,-1
1511884032154851,0,4,-11,-38,8,3,3,1
1511884032166883,1,-7,-1,36,-13,-3,-2,-2
1511884032166883,-2,1,-6,-30,11,1,0,1
1511884032175907,-1,2,3,9,6,5,3,-4
1511884032175907,3,6,2,-8,16,5,0,1
1511884032190948,0,-13,-5,11,-22,0,-3,-1
1511884032190948,0,-1,-4,0,5,-9,-6,1
1511884032192453,-3,-2,-3,6,18,9,10,4
1511884032192453,1,5,3,3,-19,5,4,-1
1511884032213553,-3,0,-4,-2,-3,-20,-19,-2
1511884032213553,2,-5,3,3,-17,8,10,2
1511884032214557,-1,-2,0,25,34,1,-8,-3
1511884032214557,8,8,9,23,0,-1,2,4
1511884032226588,-9,-20,-1,2,-28,9,13,-1
1511884032226588,-4,-9,-14,-68,16,-4,-8,-4
1511884032235612,2,0,-8,-16,2,-6,-4,0
1511884032235612,-1,-4,2,9,2,0,3,-1
1511884032250652,1,7,-3,-31,3,-3,-5,-3
1511884032250652,2,4,14,48,11,5,5,2
1511884032252658,-1,-4,-6,-5,-32,-1,-2,-2
1511884032252658,-6,-11,-3,-11,3,0,-2,-2
1511884032272711,3,2,-5,-20,8,-5,-3,-2
1511884032272711,-4,-6,-5,2,-43,-11,-7,-3
1511884032274717,0,-1,0,-3,17,1,-1,-4
1511884032274717,0,-3,3,24,20,1,-4,-5
1511884032287250,0,14,13,38,26,-4,-1,0
1511884032287250,-3,-20,-12,9,1,4,5,-1
1511884032296290,-3,-1,0,-7,-11,-5,-10,-4
1511884032296290,0,1,4,16,18,1,-4,-1
1511884032310327,2,1,-4,-16,6,2,9,6
1511884032310327,-1,3,0,6,-4,2,1,-3
1511884032312332,2,2,6,17,-5,0,0,-1
1511884032312332,-3,-6,-2,15,-16,2,4,2
1511884032333420,-2,5,1,-13,18,-10,-11,-6
1511884032333420,2,3,1,18,-4,14,10,1
1511884032334395,0,-1,-3,-25,-18,-20,-10,2
1511884032334395,-3,-5,-7,-17,-10,0,3,-4
1511884032346455,1,-2,7,13,9,6,1,1
1511884032346455,-1,6,-3,0,-5,-3,-1,-1
1511884032355495,-1,-14,-8,-32,-9,6,6,-2
1511884032355495,-3,-1,-4,-20,-14,-8,-4,0
1511884032370495,-3,-1,1,-7,-1,2,-2,-5
1511884032370495,-1,-3,1,4,-29,-16,-10,-5
1511884032372530,-1,6,4,17,21,7,6,-1
1511884032372530,1,3,-1,9,-12,-9,-2,4
1511884032393560,1,-2,-4,-18,-2,6,2,-1
1511884032393560,4,5,0,22,14,3,0,2
1511884032394689,-1,-2,-5,-34,-24,-8,-1,0
1511884032394689,-3,-6,-3,-5,-6,4,1,-2
1511884032406771,0,3,11,59,-3,-3,2,-1
1511884032406771,0,1,-3,2,4,-16,-15,-1
1511884032415745,0,0,2,3,-23,-17,-7,-3
1511884032415745,4,8,4,21,8,0,-3,1
1511884032430835,-5,-19,-7,-11,-21,2,0,-2
1511884032430835,-4,1,9,2,-3,10,7,-2
1511884032432788,-2,0,0,14,19,7,4,2
1511884032432788,-1,1,0,-6,-3,-1,-2,-1
1511884032452845,1,3,-1,-17,-19,-15,-10,0
1511884032452845,-1,-4,2,14,11,3,6,0
1511884032454849,-2,2,-1,14,16,14,7,-1
1511884032454849,4,2,3,3,-2,-3,-4,3
1511884032466930,-1,2,-1,-19,10,-1,-4,-2
1511884032466930,-2,-3,-3,-30,0,3,0,0
1511884032475905,1,3,1,-4,-21,-4,3,0
1511884032475905,-3,-10,-8,-9,-19,-6,-4,-3
1511884032490449,-1,8,1,-4,19,7,5,1
1511884032490449,1,-11,-8,-4,-18,4,4,-1
1511884032496504,-3,-2,1,0,-7,6,3,3
1511884032496504,0,-2,2,16,47,-4,-5,-4
1511884032513551,1,1,3,11,-12,-10,-2,3
1511884032513551,1,3,-1,-5,-26,-9,-8,0
1511884032514549,-1,1,1,10,12,12,10,-2
1511884032514549,-4,-5,-1,6,18,2,1,1
1511884032526756,1,1,-2,-10,-17,-13,-11,-2
1511884032526756,-1,0,-4,-3,15,3,1,-1
1511884032535613,1,-1,0,0,-4,2,2,-1
1511884032535613,0,0,-5,0,-11,0,0,-1
1511884032550649,-1,-5,-2,-8,8,3,-4,0
1511884032550649,2,5,0,1,10,-1,3,2
1511884032552656,-2,-4,-6,-32,-2,-11,-11,-2
1511884032552656,-2,-1,-2,-21,21,20,10,-3
1511884032572704,2,3,2,6,1,-16,-6,3
1511884032572704,-1,1,3,26,31,5,4,1
1511884032574710,-2,-1,-2,8,-18,-4,-4,-2
1511884032574710,0,3,-1,13,10,7,2,-1
1511884032587246,1,-2,-2,-25,-22,-4,-5,-3
1511884032587246,-1,-4,0,4,3,0,-1,0
1511884032595785,-1,3,2,10,-4,6,7,2
1511884032595785,-1,-4,-8,17,-5,-10,-7,-1
1511884032610826,-3,-2,-2,5,12,17,9,-4
1511884032610826,1,2,3,15,4,-7,-8,0
1511884032611829,1,-2,2,3,10,3,0,0
1511884032611829,4,5,7,6,-24,-7,4,2
1511884032632884,-1,-6,-6,-19,31,8,0,-2
1511884032632884,-1,2,-5,-9,-32,-7,-4,0
1511884032634889,-3,-4,-3,5,-3,2,-3,-3
1511884032634889,-4,1,7,10,2,-17,-10,-2
1511884032646921,-1,-4,-6,26,-16,11,7,1
1511884032646921,-2,-4,-9,-29,-21,-1,3,-2
1511884032655946,2,4,0,8,4,-9,-7,0
1511884032655946,0,3,2,5,6,5,1,0
1511884032669983,-1,0,-1,-19,-26,7,10,2
1511884032669983,-1,-1,4,-1,22,-9,-11,-3
1511884032677001,1,-1,2,50,39,4,2,2
1511884032677001,-2,-6,-6,-42,-30,-6,0,0
1511884032693547,1,5,4,19,6,4,-1,0
1511884032693547,0,2,1,-20,-1,-4,4,2
1511884032695142,0,0,1,-6,-21,-11,-6,-2
1511884032695142,1,1,4,23,22,4,2,0
1511884032707174,-4,-1,-1,-1,-2,0,1,-3
1511884032707174,1,7,1,10,24,2,1,1
1511884032716199,-1,2,-3,-20,8,5,-2,-4
1511884032716199,-5,-18,-6,-3,-16,1,2,2
1511884032730235,-2,2,-1,8,2,-13,-8,-3
1511884032730235,0,-1,1,23,14,13,4,0
1511884032737254,0,-2,-5,-31,-16,-3,0,1
1511884032737254,1,6,2,-12,-16,0,1,-1
1511884032753297,0,-6,-4,-26,20,4,3,-1
1511884032753297,-4,-5,-2,-18,-13,-3,-4,-3
1511884032754300,4,1,5,28,21,2,0,3
1511884032754300,-1,6,-1,-23,-11,0,2,0
1511884032766332,-3,-4,-7,2,-9,-2,-2,-4
1511884032766332,1,-2,-1,-19,-12,-12,-7,0
1511884032775355,1,3,4,-15,5,-3,-8,-4
1511884032775355,1,-5,0,7,6,-4,1,2
1511884032790398,-1,1,-2,26,17,13,5,-1
1511884032790398,-3,-1,-2,-26,7,-1,-5,-4
1511884032796951,-1,-2,-3,7,-16,0,3,1
1511884032796951,1,3,2,4,-16,-3,0,1
1511884032812993,-1,1,2,-3,1,-2,-2,-4
1511884032812993,-1,-2,-5,-10,-1,3,0,-2
1511884032815000,-1,0,-6,-36,-1,4,10,1
1511884032815000,0,0,7,32,19,-13,-13,-1
1511884032836056,1,-1,-6,-6,-35,5,5,5
1511884032836056,0,1,13,39,-3,-9,-4,-3
1511884032837058,-1,-3,-1,-18,17,13,5,-1
1511884032837058,-2,9,-6,-1,-20,-10,-7,-4
1511884032850092,-3,-12,0,2,-2,0,4,2
1511884032850092,0,0,4,-8,-7,-9,-4,-1
1511884032857110,0,-4,-5,17,-1,6,5,0
1511884032857110,-1,-3,0,-24,22,-4,-6,-2
1511884032873153,-1,5,3,16,12,-7,-7,-1
1511884032873153,-1,1,-7,5,10,9,3,-2
1511884032875159,-2,-5,4,3,13,3,0,-2
1511884032875159,-2,0,-6,-14,-31,5,7,-1
1511884032895251,5,5,5,21,27,-3,-3,-4
1511884032895251,1,4,-3,-36,-37,-1,4,2
1511884032897257,-9,-23,-16,-26,8,-4,-5,-4
1511884032897257,-1,1,0,44,44,10,0,0
1511884032910290,-2,-2,-4,-26,-24,-8,-5,-2
1511884032910290,-1,2,5,17,-12,4,2,3
1511884032916308,3,6,4,16,-12,-2,-2,2
1511884032916308,-3,-6,-5,-27,5,7,-6,-5
1511884032933352,1,-1,-4,-2,6,-24,-6,2
1511884032933352,1,-1,-2,13,22,5,1,-1
1511884032934355,0,3,1,21,-17,-4,-2,-2
1511884032934355,-2,-3,4,-2,8,-2,-1,1
1511884032955411,4,9,5,11,19,8,5,1
1511884032955411,0,1,0,-8,-15,-4,-5,-1
1511884032957417,1,5,6,3,6,4,6,4
1511884032957417,0,-1,1,9,-10,-21,-14,-5
1511884032969449,-4,-6,-2,-8,6,10,5,-2
1511884032969449,-1,-1,-4,-29,-5,-1,4,-1
1511884032978472,-1,0,4,16,-9,-4,-5,-5
1511884032978472,-1,1,-3,-29,-9,-2,0,-1
1511884032993514,0,-1,-4,-39,8,-2,-8,-1
1511884032993514,2,2,4,44,28,8,4,-1
1511884032994518,0,-1,-1,10,3,-9,-5,0
1511884032994518,0,0,5,-2,-30,3,4,-1
1511884033015665,-1,0,-4,29,11,6,2,1
1511884033015665,1,2,-1,5,17,12,4,2
1511884033017670,1,-5,-3,-19,-4,-1,-2,-1
1511884033017670,-2,-2,2,17,0,-3,0,2
1511884033029701,2,1,10,-8,-24,10,10,3
1511884033029701,-4,-7,-2,25,24,-16,-17,-10
1511884033038726,1,4,-2,-26,-18,-5,4,5
1511884033038726,1,-1,-7,-5,1,4,1,0
1511884033052763,-2,0,-9,-46,-29,1,-2,-1
1511884033052763,-2,-2,4,-8,12,10,8,0
1511884033054769,-2,2,1,10,-28,-20,-16,-2
1511884033054769,-1,-5,0,-14,3,8,4,-1
1511884033075824,1,9,0,9,-6,-2,0,-1
1511884033075824,-3,-16,-6,7,-7,-1,-5,-2
1511884033076827,0,3,-2,11,14,4,-1,-2
1511884033076827,1,1,-3,-7,2,16,16,2
1511884033089363,0,2,5,27,7,-21,-12,-1
1511884033089363,1,2,0,4,-15,3,4,1
1511884033098409,0,-5,2,22,10,5,2,2
1511884033098409,4,5,3,41,-28,-3,-1,-4
1511884033113449,-7,-12,-4,9,19,7,-2,0
1511884033113449,0,2,-1,-12,-26,-13,-8,-1
1511884033114451,0,4,4,10,-7,2,6,3
1511884033114451,0,-1,1,7,33,-6,-7,-2
1511884033135507,-1,-5,-3,8,-9,0,4,0
1511884033135507,0,3,-3,-12,-45,-6,-2,-2
1511884033137512,0,5,3,-12,12,1,-4,-2
1511884033137512,0,-4,-11,0,19,16,10,4
1511884033149545,-3,-4,-1,-1,-27,-14,-12,-3
1511884033149545,3,1,-7,-47,15,12,10,5
1511884033158568,-3,-1,-4,3,-20,-17,-12,-8
1511884033158568,-1,0,-1,-40,-19,-16,-6,-1
1511884033173608,0,-3,2,-2,25,5,1,-1
1511884033173608,-4,-3,1,17,5,2,-1,1
1511884033174611,2,3,-4,11,5,8,6,0
1511884033174611,-3,-5,-1,-4,-17,-17,-11,-4
1511884033195706,-1,-7,-1,14,-19,3,-1,-3
1511884033195706,0,3,3,7,19,-8,-3,2
1511884033197712,-5,-6,-6,-21,4,4,-3,-5
1511884033197712,1,6,6,-4,9,9,3,2
1511884033209744,2,3,-2,-5,-3,0,4,-1
1511884033209744,1,-1,2,13,19,9,5,-1
1511884033218768,1,-1,-2,-1,2,-9,-9,-2
1511884033218768,-1,0,-2,-6,-39,-14,-6,-2
1511884033232805,1,2,6,19,4,3,0,-2
1511884033232805,-7,-5,-2,-22,-19,-2,4,-1
1511884033234811,-1,0,-3,-2,-13,2,5,0
1511884033234811,1,2,3,9,6,-6,-8,-2
1511884033255866,-3,-2,-3,-10,-11,0,-2,1
1511884033255866,-1,-3,-1,-2,-7,-10,-10,-5
1511884033256869,-2,1,3,5,-3,3,3,-2
1511884033256869,-1,3,4,27,8,14,10,3
1511884033268901,-1,-16,-8,-38,-12,-2,4,1
1511884033268901,3,5,2,37,6,0,-4,3
1511884033277925,-1,-6,-8,-44,-28,-18,-6,0
1511884033277925,1,3,1,-10,3,6,-3,-4
1511884033293469,-4,0,4,27,23,7,13,4
1511884033293469,1,-2,0,2,14,13,7,-1
1511884033294974,-2,-7,-2,3,7,-10,-9,-2
1511884033294974,-4,-5,0,9,9,3,5,1
1511884033316134,1,1,-3,-21,-18,-6,-7,-4
1511884033316134,1,-1,1,-22,-5,7,13,1
1511884033317161,3,9,2,22,3,-7,-9,0
1511884033317161,-1,-15,-12,-42,-14,-8,-8,-3
1511884033329169,-2,-1,4,18,20,5,-2,-3
1511884033329169,0,4,3,6,-13,-2,0,1
1511884033338190,-3,-5,0,30,23,13,2,-4
1511884033338190,-3,-4,-9,-52,-58,-3,10,4
1511884033353238,1,2,2,2,13,1,-8,-6
1511884033353238,0,0,3,0,5,-22,-8,0
1511884033355235,2,3,6,11,1,-5,-4,-2
1511884033355235,-3,-10,-5,17,9,0,-2,0
1511884033375415,1,4,2,-1,-3,4,4,-1
1511884033375415,1,5,1,21,0,3,-2,1
1511884033377298,-3,0,3,-9,22,18,13,2
1511884033377298,-3,-5,-1,-4,-28,-17,-10,-3
1511884033389577,-2,3,-2,10,13,-6,-7,-5
1511884033389577,-3,-6,-8,-12,8,-4,-8,-5
1511884033398116,1,3,1,-27,-3,5,8,2
1511884033398116,2,4,3,34,34,10,2,1
1511884033413215,-4,-2,-1,-28,-31,-8,-4,1
1511884033413215,0,-2,-1,-2,-27,-5,-4,0
1511884033415136,-2,-3,-3,-6,4,-1,-9,-1
1511884033415136,0,3,3,6,20,11,13,1
1511884033436214,2,-1,0,18,-1,5,8,2
1511884033436214,2,4,0,12,-16,-24,-15,-2
1511884033437182,-5,-17,-10,-36,-3,-4,-4,-1
1511884033437182,2,4,-3,-18,22,-4,-12,-2
1511884033449337,-1,2,-8,-28,-8,7,6,-1
1511884033449337,-4,-1,4,15,-4,-1,-3,-3
1511884033458234,2,3,1,0,-13,1,7,2
1511884033458234,-3,0,2,2,-1,-1,-5,-4
1511884033473401,3,4,5,23,48,20,14,6
1511884033473401,-5,-7,-14,-56,-37,-15,-13,-6
1511884033475280,-1,-2,0,17,20,5,5,-1
1511884033475280,2,1,-4,-13,7,-3,4,0
1511884033495989,2,4,4,7,-8,-6,-7,2
1511884033495989,-2,1,5,15,31,20,12,0
1511884033496944,-2,-12,-8,4,-11,3,2,1
1511884033496944,0,0,3,6,-1,-10,-11,0
1511884033509024,-1,1,-1,-6,-16,-7,-1,-3
1511884033509024,2,0,-1,11,13,11,7,2
1511884033518031,3,7,8,14,-8,-4,-1,1
1511884033518031,-5,-8,2,13,33,16,12,1
1511884033533088,-5,-6,0,-6,-13,-18,-11,-5
1511884033533088,-2,0,1,23,9,11,5,2
1511884033535042,0,4,-4,-36,-17,-4,2,-3
1511884033535042,1,2,-1,6,-6,-15,-12,-1
1511884033556237,0,-1,-1,-11,-5,-3,-2,3
1511884033556237,0,-3,0,11,5,2,7,-3
1511884033557109,-1,5,2,19,31,3,-5,1
1511884033557109,3,4,1,10,-5,-2,2,0
1511884033569132,-4,-7,-17,-20,-14,-3,-8,-2
1511884033569132,-1,-4,-3,-30,8,17,14,1
1511884033578156,0,1,-3,7,1,-24,-18,-2
1511884033578156,-2,6,4,31,2,4,5,-2
1511884033592697,-3,-9,-6,-94,4,6,-4,-6
1511884033592697,2,-2,-2,0,-37,-16,-6,5
1511884033598875,-1,-1,0,-12,-23,6,-1,-5
1511884033598875,4,3,6,-2,15,15,20,8
1511884033615921,-2,-3,-1,25,-6,-21,-18,-8
1511884033615921,-1,1,-2,-7,0,3,1,-1
1511884033616924,-4,-5,-7,-27,-31,-12,-6,-3
1511884033616924,-2,-5,3,38,-13,4,-3,-4
1511884033628955,2,5,6,18,-1,19,20,4
1511884033628955,-4,-1,-2,2,19,-13,-13,-2
1511884033637980,0,6,5,36,-6,-2,0,1
1511884033637980,-3,-3,-11,-60,-7,-1,-5,-4
1511884033652017,-3,-3,-10,-13,-10,-1,2,1
1511884033652017,1,2,0,2,-2,3,1,-3
1511884033659036,4,4,5,32,19,8,6,0
1511884033659036,-6,-7,-7,-30,-13,-1,-6,-3
1511884033676081,3,5,4,31,-8,-13,-8,-2
1511884033676081,-2,-3,1,-27,2,-6,-7,-2
1511884033677083,3,3,0,20,9,5,1,0
1511884033677083,-3,-4,-2,-20,-15,-3,1,-1
1511884033689620,-3,-11,-2,29,30,10,12,-2
1511884033689620,1,4,-1,3,-17,-25,-24,-2
1511884033698145,-1,-2,4,11,4,6,7,3
1511884033698145,2,5,-6,-15,8,16,11,3
1511884033712183,0,3,7,21,-18,-6,-16,-2
1511884033712183,-1,-2,8,14,-53,-12,14,-2
1511884033719201,-1,-1,-11,-53,-4,-3,-3,-4
1511884033719201,-2,-9,-7,8,-5,-8,-6,-1
1511884033735244,0,3,5,31,35,11,5,4
1511884033735244,-2,-3,-9,-31,10,14,5,-3
1511884033737249,-1,-1,1,9,4,-10,-8,1
1511884033737249,4,7,4,17,3,0,2,-2
1511884033749281,-1,-2,1,-11,4,-11,-5,0
1511884033749281,1,-2,-1,8,9,3,1,2
1511884033758306,-6,-4,-2,8,8,6,6,-4
1511884033758306,0,1,-1,-11,0,-1,-2,1
1511884033772343,2,2,1,-9,-1,-2,-5,-1
1511884033772343,1,2,2,18,-1,-5,-3,4
1511884033779361,1,1,1,1,-16,4,0,0
1511884033779361,2,0,10,38,-2,5,-3,1
1511884033795920,0,4,-12,-39,0,0,11,-1
1511884033795920,-1,-1,4,16,-14,-2,-4,-2
1511884033796923,1,2,0,-10,39,7,10,0
1511884033796923,-8,-12,-16,-37,-11,-25,-20,-7
1511884033817979,2,5,7,24,0,13,10,2
1511884033817979,-6,-12,-11,-22,-7,-8,-10,-4
1511884033819986,1,5,9,44,9,5,0,1
1511884033819986,-1,0,-2,-12,3,6,5,-3
1511884033832017,-1,-3,-6,-23,-2,-11,-7,3
1511884033832017,0,2,4,25,22,5,4,-1
1511884033839036,-4,-5,-9,-49,-12,-3,-5,-3
1511884033839036,1,-2,8,56,10,-4,2,0
1511884033856080,-1,0,-8,-31,3,2,-3,-1
1511884033856080,1,4,3,24,4,9,5,3
1511884033857083,0,-5,-5,-21,-21,7,5,0
1511884033857083,1,5,5,3,19,-25,-19,-5
1511884033878139,0,2,3,16,-25,-1,4,1
1511884033878139,-3,-5,3,16,11,0,-5,-4
1511884033880147,0,2,-7,-62,-12,2,2,0
1511884033880147,-1,-6,-6,-4,-16,5,4,-1
1511884033892180,-1,2,8,24,-7,-4,-3,-2
1511884033892180,1,-2,-7,-8,11,5,4,1
1511884033900317,-2,-5,-2,3,-27,7,9,1
1511884033900317,1,2,3,7,-1,-21,-16,-1
1511884033915357,0,5,10,14,-11,-4,-1,1
1511884033915357,-4,-17,-18,-31,5,4,0,-1
1511884033917363,1,1,3,21,8,-3,2,2
1511884033917363,2,5,-3,-10,27,11,8,3
1511884033938418,1,0,2,15,21,7,-3,-2
1511884033938418,-2,3,-3,-18,-2,-13,-6,-2
1511884033939421,1,-2,-3,-30,4,-4,-7,-1
1511884033939421,-3,-7,-4,0,2,10,7,-3
1511884033951453,-2,-7,0,4,-2,0,-4,-4
1511884033951453,4,8,6,-4,5,8,11,5
1511884033960476,-2,-6,-5,14,6,-3,-2,-2
1511884033960476,1,6,2,4,-18,-2,0,2
1511884033975518,-3,-6,-5,-5,9,0,2,0
1511884033975518,-1,-2,1,-12,0,-1,-3,1
1511884033977522,-4,-6,-2,13,6,-4,-1,-4
1511884033977522,1,3,2,3,-5,7,3,-1
1511884033998113,0,-2,-4,14,-15,-7,-3,1
1511884033998113,1,6,7,5,30,3,1,-1
1511884034000118,3,7,-5,-20,16,3,-1,-1
1511884034000118,-7,-9,0,2,-14,1,-3,-4
1511884034012150,1,2,-4,-30,1,-1,-2,0
1511884034012150,0,-2,-2,34,8,0,2,0
1511884034021175,1,1,4,24,-2,-5,-4,0
1511884034021175,-2,-1,-2,-11,-12,2,2,-3
1511884034035212,0,-2,-2,-5,-3,0,1,2
1511884034035212,1,2,-1,-20,-11,7,-1,-1
1511884034037217,1,1,3,37,-3,-5,2,1
1511884034037217,-4,-9,-6,-14,-25,-7,-2,-1
1511884034058274,-1,-5,-3,9,6,1,4,-1
1511884034058274,-4,-2,-5,-7,-4,2,1,-1
1511884034059276,3,3,6,17,-10,1,-4,1
1511884034059276,2,9,0,-33,8,-2,5,1
1511884034071308,-3,-6,-3,14,0,-13,-12,-4
1511884034071308,-3,-2,5,0,-28,-3,-1,-3
1511884034080836,-2,-2,2,-4,27,4,-1,1
1511884034080836,3,4,2,35,2,7,6,2
1511884034095878,-2,-1,-4,-51,-1,-1,2,0
1511884034095878,0,1,0,23,13,-2,-2,-2
1511884034096881,-2,-2,4,17,-16,2,-1,-2
1511884034096881,2,-3,-4,-24,6,-2,-1,2
1511884034117936,0,6,1,5,1,-4,-2,-3
1511884034117936,-7,-7,-7,-25,-14,-1,-2,-2
1511884034119944,-1,-4,-3,1,-14,-6,-4,-2
1511884034119944,1,1,4,4,13,0,-3,0
1511884034131973,2,3,3,11,-10,2,2,-1
1511884034131973,0,-2,-10,4,28,-3,-4,-1
1511884034140998,-3,3,-4,-12,-18,-2,-8,-5
1511884034140998,-3,-5,3,2,13,7,5,3
1511884034156038,2,2,5,33,24,1,15,9
1511884034156038,-1,-1,-4,-25,-33,-4,-5,-3
1511884034157041,1,-2,-3,-15,28,-5,-5,-1
1511884034157041,1,1,3,29,5,7,-1,-1
1511884034178096,-3,-2,-2,-24,-7,-2,-4,-2
1511884034178096,-1,2,-4,-18,-20,-2,3,1
1511884034180102,-3,-2,-1,-3,18,0,1,-2
1511884034180102,-1,5,0,10,-10,-1,-2,-5
1511884034192136,1,-3,-1,-4,-4,3,0,2
1511884034192136,0,-2,-4,0,-3,-4,0,0
1511884034200685,-1,-1,-1,-12,-11,0,-3,-2
1511884034200685,2,6,0,7,9,1,1,0
1511884034215725,-4,-8,-5,15,-22,-5,-5,-4
1511884034215725,1,1,3,-21,13,2,-3,2
1511884034216728,0,0,3,16,-6,1,3,2
1511884034216728,-2,-3,-4,-27,22,-3,-3,-2
1511884034237784,-2,0,-5,0,-6,-1,-6,-4
1511884034237784,1,2,7,17,-6,0,8,1
1511884034239789,-1,3,-1,-20,11,-2,-1,-3
1511884034239789,-3,-12,0,17,-38,-6,-4,-2
1511884034251821,2,2,1,-6,-4,-4,-4,-1
1511884034251821,-2,-3,-2,7,-6,3,-2,-6
1511884034260845,-1,-2,4,4,8,5,8,3
1511884034260845,0,1,3,0,-14,-11,-6,-3
1511884034275886,-1,-1,1,-18,2,-2,-3,-5
1511884034275886,3,2,8,52,3,-1,-4,1
1511884034276888,-3,1,-4,-24,-35,-1,2,0
1511884034276888,-1,-2,-7,-16,12,-1,-2,-1
1511884034298222,-5,-8,-1,15,-18,2,1,-1
1511884034298222,1,2,3,4,14,1,0,0
1511884034300229,-1,-6,-6,-27,-11,-8,-6,-3
1511884034300229,3,10,7,28,28,3,3,1
1511884034311258,0,-12,-2,12,15,-4,-7,-4
1511884034311258,-3,-2,1,-9,11,6,2,-2
1511884034321286,1,1,-2,12,7,-2,-1,0
1511884034321286,0,0,-1,-31,-33,-5,-2,3
1511884034335324,1,3,-3,-32,21,2,-1,0
1511884034335324,0,0,1,1,-2,-10,-8,1
1511884034337337,1,-2,6,27,9,8,5,2
1511884034337337,1,5,-5,-19,5,3,5,1
1511884034358383,2,4,5,6,-10,-13,-10,0
1511884034358383,-2,0,0,-8,18,11,5,-1
1511884034359389,-1,-6,-6,-21,16,-1,-2,0
1511884034359389,-2,-3,-1,12,-28,-1,0,-4
1511884034372451,3,4,3,-4,17,11,7,3
1511884034372451,-3,-3,-13,-39,-6,-3,-1,0
1511884034388478,0,2,3,2,-9,-6,-2,-3
1511884034388478,-1,2,3,-8,2,0,-4,0
1511884034396095,-3,-3,-4,21,3,2,1,-1
1511884034396095,-1,-1,3,12,1,1,2,0
1511884034397215,-3,1,0,16,0,-6,-9,-6
1511884034397215,4,-4,-5,11,31,0,-1,4
1511884034418275,-3,7,2,-6,-4,-1,-3,-4
1511884034418275,2,-1,4,17,-3,4,8,7
1511884034420277,1,-1,-6,-10,-13,0,7,1
1511884034420277,-5,-5,0,-5,-8,-8,-13,-3
1511884034432356,1,1,3,11,-8,1,7,1
1511884034432356,2,2,3,12,-22,9,9,0
1511884034441333,0,-3,-2,7,3,-27,-23,0
1511884034441333,0,3,-2,-5,-18,1,8,0
1511884034455474,-3,-7,-9,-35,-11,6,0,-5
1511884034455474,1,-1,-2,-4,4,-11,-11,-1
1511884034457375,1,-2,5,17,-20,9,6,1
1511884034457375,1,5,6,-9,26,2,3,1
1511884034478431,-2,-2,1,4,-28,-10,-7,-1
1511884034478431,-2,-4,0,10,-4,1,-1,-2
1511884034479434,-2,-1,-2,-11,2,5,-1,-1
1511884034479434,-1,-3,-3,6,3,-4,-5,-1
1511884034491972,1,1,2,16,-2,8,9,3
1511884034491972,0,-1,-4,-15,-4,-6,-3,1
1511884034501142,-1,-2,-1,-1,9,-2,-3,-2
1511884034501142,-3,-8,0,5,-7,5,5,-3
1511884034516213,2,-1,-3,-3,9,3,3,2
1511884034516213,0,4,3,7,-4,-6,-4,-2
1511884034517181,-3,-1,-6,-24,24,5,3,-1
1511884034517181,-4,-5,-7,-17,-9,-3,-3,-3
1511884034538275,-2,2,-1,8,14,-2,-2,-1
1511884034538275,-1,-2,0,-1,1,-4,-4,-3
1511884034540268,-1,-1,-3,1,-25,3,4,0
1511884034540268,1,-1,1,19,9,2,-1,3
1511884034562302,0,-1,1,-6,-1,-5,-3,-2
1511884034562302,-1,-3,-1,-1,1,1,1,0
1511884034563305,0,0,3,10,5,1,1,0
1511884034563305,-1,1,-3,-14,-20,-3,-1,-1
1511884034575336,-2,-3,-1,-9,9,-3,-1,-2
1511884034575336,0,0,-2,19,-32,0,2,2
1511884034577341,-1,0,-3,-17,45,5,-2,-2
1511884034577341,-2,-1,0,18,-3,-4,0,0
1511884034598414,0,-2,-3,-14,18,1,2,-2
1511884034598414,2,-1,-1,9,0,-1,-1,-1
1511884034599417,0,-1,1,15,-13,2,0,2
1511884034599417,-1,-2,2,4,44,10,-2,-2
1511884034611449,0,0,-4,13,-45,-14,-1,0
1511884034611449,-1,-2,-7,-12,-14,-5,-1,-1
1511884034620473,-3,-4,0,14,53,7,-2,-3
1511884034620473,-1,-2,0,1,-44,-6,-1,1
1511884034634510,0,0,2,9,7,2,-1,2
1511884034634510,-2,-2,-2,-15,-2,-9,-2,-2
1511884034641529,-2,-1,-4,1,-10,5,2,0
1511884034641529,0,-2,-4,-1,30,-5,-1,0
1511884034665593,-2,2,4,0,-25,-2,-2,-3
1511884034665593,-2,-2,-6,-18,4,-6,-4,-4
1511884034667599,2,1,0,-7,-34,3,8,3
1511884034667599,-2,0,2,16,105,5,-8,-4
1511884034671608,-4,-6,-11,-26,-78,-20,-8,-6
1511884034671608,-4,-2,0,11,-8,-5,-4,-6
1511884034681136,0,1,2,18,0,-3,0,-1
1511884034681136,0,-1,-2,-9,-29,2,3,1
1511884034695173,1,-1,-4,-1,38,14,3,1
1511884034695173,0,-2,2,0,11,-3,-3,1
1511884034701724,-1,-2,-3,-20,-39,-9,-1,0
1511884034701724,1,2,1,5,-19,6,3,-1
1511884034717767,-3,-2,4,6,36,14,1,-2
1511884034717767,-1,0,1,-19,-13,-16,-6,-3
1511884034719773,1,-1,-1,-18,33,7,0,1
1511884034719773,3,0,0,-9,-14,-13,5,3
1511884034740828,1,1,1,3,10,10,1,0
1511884034740828,2,2,4,16,27,26,5,1
1511884034741831,-3,-4,-6,11,-27,-17,-4,-2
1511884034741831,-2,1,0,12,-13,14,5,-3
1511884034754865,4,3,2,6,-26,-8,4,5
1511884034754865,-1,-3,-2,-13,-36,-9,-6,-1
1511884034761884,2,1,2,11,11,-11,4,4
1511884034761884,-8,-6,-8,-22,-43,-15,-15,-9
1511884034777927,4,0,-3,5,31,42,4,0
1511884034777927,-4,-3,-6,-3,15,-13,2,-2
1511884034779932,2,2,2,1,-29,9,1,1
1511884034779932,-4,-5,-7,-49,-20,-40,-4,-2
1511884034801006,1,0,-10,-40,64,22,-4,-1
1511884034801006,-2,0,-2,5,12,6,-4,-1
1511884034802008,-5,-1,0,0,53,14,-5,-7
1511884034802008,-2,0,4,-9,-36,-19,1,1
1511884034815043,-3,-1,2,1,-14,-7,-1,1
1511884034815043,2,2,3,21,-3,-16,7,6
1511884034822061,4,2,-3,-18,-30,-24,4,5
1511884034822061,-7,-7,-1,-5,27,46,-14,-11
1511884034838104,0,0,8,19,8,-25,6,3
1511884034838104,2,-7,-4,11,24,1,-4,1
1511884034840111,0,14,4,0,-4,16,1,-1
1511884034840111,6,4,5,20,13,-5,7,7
1511884034860163,-4,-1,3,10,-23,-29,-11,-4
1511884034860163,1,2,10,16,49,43,20,6
1511884034862168,-2,-3,1,19,-33,-24,-4,-1
1511884034862168,0,-5,-14,-10,-16,-54,-18,-8
1511884034875203,-2,9,2,-55,59,98,35,7
1511884034875203,-8,-4,-5,7,-105,-103,-38,-13
1511884034882223,-3,-1,4,39,-6,-30,-11,-7
1511884034882223,2,1,-5,-56,-20,-12,13,10
1511884034898280,-5,-9,0,59,-22,9,-15,-9
1511884034898280,7,7,9,52,49,60,26,12
1511884034899282,-4,-4,-1,-3,17,31,10,1
1511884034899282,3,1,10,2,12,-12,1,7
1511884034920339,-1,1,12,51,-7,-11,-9,-6
1511884034920339,-5,0,-1,26,6,25,-3,-7
1511884034922344,1,-1,-10,-65,-15,-12,-3,-1
1511884034922344,1,-8,-19,-15,2,9,5,4
1511884034935378,4,6,13,41,-13,-19,4,7
1511884034935378,3,6,3,12,-2,-15,-6,-1
1511884034941394,4,25,18,76,10,19,-14,-8
1511884034941394,-1,-5,14,31,6,24,4,-2
1511884034958439,-13,-24,-19,8,-17,-17,-2,-6
1511884034958439,0,1,-16,-59,-8,-4,4,1
1511884034959443,4,46,11,-25,5,-6,4,2
1511884034959443,-18,-81,-20,38,10,9,-12,-7
1511884034980498,14,85,18,-27,-11,3,16,-6
1511884034980498,-3,2,-4,-17,-12,-18,-14,9
1511884034982506,-21,-82,-41,-36,-2,15,2,-8
1511884034982506,-9,-43,-17,-13,-17,14,12,2
1511884034994538,2,28,11,-39,4,5,2,0
1511884034994538,-2,-50,-14,3,15,0,-3,-2
1511884035003580,21,89,42,20,1,5,-7,2
1511884035003580,-15,-38,-19,-27,-2,0,-6,-4
1511884035017617,-13,-83,-41,-4,2,-7,3,7
1511884035017617,10,89,23,-20,-5,7,11,-5
1511884035019622,11,0,17,6,2,1,4,8
1511884035019622,5,25,-2,36,10,6,-1,-2
1511884035040679,-1,20,6,-9,-3,-8,-8,-2
1511884035040679,-1,10,7,1,5,1,-9,-2
1511884035042684,-21,-74,-41,-24,-10,-7,7,-6
1511884035042684,13,58,27,8,1,2,-6,-3
1511884035054716,-5,-27,-14,2,4,-5,-4,-4
1511884035054716,-6,-6,-8,-17,4,12,17,4
1511884035063740,10,71,12,-21,-7,-37,-20,-2
1511884035063740,-6,-49,-28,-22,12,42,2,-4
1511884035079783,4,24,22,39,-23,-70,-8,11
1511884035079783,-5,-12,0,14,6,28,15,-15
1511884035080786,-3,-9,6,16,-13,29,19,4
1511884035080786,-1,47,14,0,32,-8,-18,-2
1511884035101048,9,6,-4,-44,2,18,5,0
1511884035101048,-7,-22,0,51,-7,-11,-8,1
1511884035102050,5,16,2,-7,21,7,9,3
1511884035102050,12,13,11,36,-15,10,5,5
1511884035114083,-12,-13,-4,-14,-1,18,1,-6
1511884035114083,8,19,-3,-54,-13,-22,-1,7
1511884035123106,-2,-3,9,57,1,-15,-18,-2
1511884035123106,-4,-15,-20,-53,8,6,14,-3
1511884035138147,0,-1,0,18,-17,-7,-9,-2
1511884035138147,8,-8,5,-8,22,11,-7,5
1511884035140154,-7,5,-4,-31,8,16,15,-4
1511884035140154,6,22,12,21,15,-30,-4,11
1511884035160206,1,-11,-5,-2,-9,-16,-10,-1
1511884035160206,-4,3,-6,-19,-5,3,-6,-6
1511884035162212,4,-1,-2,-3,0,2,3,4
1511884035162212,-2,-15,-2,8,-30,3,8,-2
1511884035174242,-8,-10,-5,10,37,4,-5,-5
1511884035174242,4,5,8,-3,14,-4,-8,-4
1511884035183769,-2,-9,-1,16,-29,-18,1,-2
1511884035183769,-5,5,3,24,-54,-3,-6,-1
1511884035197807,5,15,3,6,46,-8,-10,-8
1511884035197807,-3,-17,-6,-9,-23,-2,-3,-3
1511884035199824,-2,-14,-4,15,32,23,7,-1
1511884035199824,2,19,11,34,1,-1,6,-2
1511884035220880,0,-9,1,7,-23,-1,-8,-1
1511884035220880,-3,1,-4,-17,3,9,8,-1
1511884035221882,-6,-10,-8,-27,-17,-8,-20,-7
1511884035221882,3,17,8,11,51,-1,4,2
1511884035233915,5,9,2,1,-45,-17,-4,4
1511884035233915,-4,-14,-8,2,23,2,-4,-3
1511884035242939,1,-6,-8,-5,-4,-3,2,1
1511884035242939,-1,16,7,3,5,10,1,-3
1511884035257979,0,-4,-6,-26,5,5,5,1
1511884035257979,-3,-2,0,-10,-13,-9,-7,-1
1511884035259984,0,-13,-1,20,-3,-4,0,2
1511884035259984,4,22,7,-7,4,-4,-12,-3
1511884035281040,-8,-25,-19,-29,13,2,5,4
1511884035281040,-4,-8,-3,11,-13,9,1,-3
1511884035282547,-1,-7,-2,-9,8,-4,-5,1
1511884035282547,-3,1,-4,-16,-8,-1,-4,-6
1511884035294578,4,9,6,10,27,3,2,3
1511884035294578,-2,1,2,1,-16,-3,1,0
1511884035303120,-5,-10,-9,-12,-11,-3,-5,-2
1511884035303120,2,4,-4,-36,-20,-2,4,-1
1511884035317161,-1,0,6,21,-7,-2,-5,-2
1511884035317161,-4,1,0,3,-14,-1,9,1
1511884035324178,-3,-3,-2,1,-20,-14,-10,-2
1511884035324178,7,11,6,7,3,1,-4,2
1511884035341313,-5,-18,-7,4,-20,6,8,-3
1511884035341313,5,2,-5,-17,18,-7,-1,6
1511884035342224,-2,-3,-1,-8,0,0,-2,-2
1511884035342224,-1,3,-2,-3,-19,-3,3,2
1511884035354261,-3,-1,2,7,3,-1,-5,-5
1511884035354261,0,1,2,3,-28,6,4,-3
1511884035363282,1,-7,-7,-4,-4,11,12,3
1511884035363282,-3,-1,0,-25,23,-26,-25,-3
1511884035378373,2,3,-4,-13,-11,-5,0,-2
1511884035378373,-3,-8,-5,12,5,5,5,0
1511884035379327,-1,3,-1,-18,12,2,-6,-2
1511884035379327,2,1,3,16,-12,11,12,3
1511884035401157,-3,2,-3,-24,0,-5,0,-2
1511884035401157,-2,4,1,24,13,-1,-11,-5
1511884035402099,1,-1,-1,-18,0,0,3,1
1511884035402099,-7,-8,-2,0,11,3,-1,-5
1511884035414183,3,5,5,-2,15,4,5,4
1511884035414183,2,-2,0,-1,26,-9,-8,1
1511884035423188,-4,-3,6,38,-6,-8,2,-1
1511884035423188,0,4,-3,-17,21,2,2,-4
1511884035438249,-3,-7,2,2,-6,-11,-10,-3
1511884035438249,-1,-3,1,6,16,11,5,-2
1511884035440201,0,0,-1,-13,-18,-4,-4,-4
1511884035440201,-3,-5,-2,14,-13,-8,3,5
1511884035460252,1,4,2,14,7,20,13,-2
1511884035460252,2,3,-1,-6,-4,-15,-12,7
1511884035462254,-5,3,-3,6,-1,-20,-12,-7
1511884035462254,4,-2,7,30,-29,1,2,0
1511884035474291,-2,3,-4,-15,4,1,-2,-2
1511884035474291,2,8,2,7,-9,13,11,3
1511884035483822,-2,-12,-7,-12,-10,-2,0,-2
1511884035483822,0,6,1,-7,7,-5,-2,0
1511884035497855,0,-1,3,1,-6,-7,-6,0
1511884035497855,0,-4,-6,-4,4,-1,2,-3
1511884035504035,0,-2,0,-23,5,1,-4,1
1511884035504035,-5,-2,-5,1,16,11,3,-4
1511884035521108,0,-3,-2,3,-5,-12,-5,0
1511884035521108,0,1,-2,-22,-12,3,9,1
1511884035522058,3,0,3,6,15,2,-1,0
1511884035522058,-1,-2,2,-2,-17,0,-2,0
1511884035534079,3,2,-4,-3,-18,-1,2,7
1511884035534079,-3,-3,-7,-13,0,8,6,-4
1511884035543006,-1,-3,-4,11,-1,-3,-6,-1
1511884035543006,0,-4,-4,-16,0,-5,3,0
1511884035558046,2,1,-1,-5,2,-7,-2,-1
1511884035558046,1,-2,-1,15,9,8,-1,-3
1511884035564066,-3,-5,-2,10,5,8,12,3
1511884035564066,0,7,0,-10,-2,-5,-2,-3
1511884035581110,-4,-17,-3,22,-2,-5,-3,-2
1511884035581110,-4,-2,-2,-28,-2,-4,-6,-2
1511884035582625,1,1,2,5,3,0,-3,-1
1511884035582625,3,4,7,14,7,4,5,3
1511884035594658,2,2,-9,-36,-14,0,1,-1
1511884035594658,-2,-4,-2,-4,-7,-7,-5,-3
1511884035603216,2,1,-2,2,10,7,0,1
1511884035603216,-1,-1,0,2,-10,-13,-11,-4
1511884035617253,-2,0,3,21,14,1,-3,-1
1511884035617253,-2,-6,1,7,4,-4,-3,-5
1511884035624272,1,-2,-3,-23,-7,-1,6,2
1511884035624272,-4,-3,-2,17,-6,3,-5,0
1511884035640315,2,6,3,-1,27,6,2,-3
1511884035640315,-1,4,0,5,-6,-5,-3,2
1511884035642320,0,-4,-8,4,24,14,4,-1
1511884035642320,2,6,10,20,-13,-10,3,3
1511884035663376,-1,-14,-6,-10,-21,-13,-3,-2
1511884035663376,0,2,2,6,-19,2,-4,0
1511884035664380,-3,2,4,18,18,4,1,-4
1511884035664380,-3,-4,2,28,27,9,-2,-2
1511884035677413,-1,5,-3,-23,-25,2,5,1
1511884035677413,-1,-6,-1,7,-9,-7,-6,0
1511884035684434,-2,1,5,22,-3,0,-1,-2
1511884035684434,1,-4,-4,-26,-3,4,1,-3
1511884035700636,0,2,7,10,4,3,0,1
1511884035700636,0,1,-2,-12,18,8,4,1
1511884035702641,2,10,4,26,2,-3,-1,4
1511884035702641,-4,-11,-10,-28,1,-8,-8,-6
1511884035722695,3,6,5,21,16,8,6,6
1511884035722695,-1,-12,0,28,6,1,2,0
1511884035724699,0,-1,-6,-13,-3,-3,4,1
1511884035724699,1,1,-7,-36,-5,-3,-10,-3
1511884035737734,3,6,4,12,-10,0,-2,-1
1511884035737734,-8,-6,-5,2,31,-3,-2,-4
1511884035743750,-1,-3,4,10,-18,1,2,0
1511884035743750,2,-1,-4,1,12,0,1,1
1511884035760796,-1,1,0,-31,5,4,0,0
1511884035760796,4,7,2,-1,-5,-1,-2,0
1511884035761798,-4,-6,-2,-23,-7,-6,-11,-2
1511884035761798,-2,0,2,45,-3,11,16,4
1511884035783358,-4,-3,-11,-64,-10,-10,-9,-3
1511884035783358,0,6,5,-1,-27,-14,-9,-5
1511884035784863,0,-3,-6,-9,8,8,8,3
1511884035784863,2,3,9,12,20,-4,0,3
1511884035796894,-1,-1,-3,36,-12,-2,-5,-3
1511884035796894,4,4,-1,-4,-6,13,10,0
1511884035805430,-3,-3,1,-11,13,-12,-11,-1
1511884035805430,-2,1,-3,-8,-65,-4,2,1
1511884035820470,-3,-11,-3,17,13,1,0,-2
1511884035820470,-6,-9,-4,-19,2,-5,-4,-4
1511884035822475,-1,1,-3,-18,4,2,-5,-2
1511884035822475,3,5,-3,-16,32,9,7,3
1511884035843531,-3,1,5,12,-7,-6,-6,-4
1511884035843531,-1,-1,-4,7,1,0,0,-3
1511884035844533,3,0,1,-15,-1,6,6,2
1511884035844533,-5,-4,0,14,-9,-8,-7,-1
1511884035856566,-3,-4,-5,-27,-10,-6,-8,-6
1511884035856566,1,5,9,31,21,2,2,3
1511884035865589,-1,-3,-2,-25,-9,0,-1,-2
1511884035865589,0,-3,-2,-6,-27,-1,-2,-2
1511884035880629,3,3,3,35,10,0,2,-1
1511884035880629,2,7,5,10,-21,-3,1,-1
1511884035882635,-2,-18,-11,24,11,-11,-6,-3
1511884035882635,-2,3,1,-1,7,8,4,-4
1511884035902733,-6,-10,3,2,2,-10,-10,1
1511884035902733,-2,-3,-7,-18,-5,2,0,0
1511884035904739,0,6,6,16,-1,-5,-3,-2
1511884035904739,1,-2,1,-6,15,14,7,-1
1511884035916770,0,3,-6,5,-5,5,2,0
1511884035916770,-2,1,1,-30,23,-7,-7,-2
1511884035925794,1,3,4,38,2,0,-2,1
1511884035925794,-3,-5,-3,-2,-12,-6,-2,0
1511884035940834,-1,4,4,-18,-12,1,2,-3
1511884035940834,3,2,0,6,-3,-5,-1,0
1511884035941837,-3,3,3,10,12,6,2,-3
1511884035941837,-3,-16,-8,6,24,0,-3,-1
1511884035962893,-1,3,0,-5,-29,-4,0,2
1511884035962893,0,3,-3,-6,6,3,3,-1
1511884035964898,-2,-2,-3,-13,-13,-2,1,-2
1511884035964898,2,7,-1,-18,15,0,1,-1
1511884035976930,2,-5,8,35,12,7,5,3
1511884035976930,-2,-1,-2,5,-24,-2,1,2
1511884035985957,-1,4,-6,-55,-11,-1,2,1
1511884035985957,1,-1,1,-3,-8,-12,-11,-1
1511884036001030,2,2,1,12,20,5,1,-2
1511884036001030,0,0,-1,-11,-27,-6,-3,0
1511884036002034,-1,3,0,2,21,11,6,-2
1511884036002034,0,-4,-3,0,18,-4,-6,2
1511884036023089,-2,-2,-5,-13,5,-9,-6,-2
1511884036023089,-2,-6,1,-3,9,9,4,0
1511884036025095,-1,-4,-6,7,-4,-9,-7,-4
1511884036025095,0,0,1,-2,-5,0,2,-1
1511884036037127,1,4,3,50,4,2,0,0
1511884036037127,-3,-9,-11,-78,-8,-2,-2,-4
1511884036046151,2,7,5,24,-10,-2,0,2
1511884036046151,-1,1,0,-19,-23,-2,-1,-2
1511884036060188,-1,-1,-4,-28,3,0,4,2
1511884036060188,0,-4,-1,12,4,-6,-8,-1
1511884036062194,0,1,2,8,-5,0,0,2
1511884036062194,1,2,5,15,1,-1,-5,-2
1511884036083249,-2,-2,-3,-14,16,14,17,5
1511884036083249,-2,-1,-4,-13,-4,-9,-9,-3
1511884036084755,3,3,1,0,4,-3,-6,-1
1511884036084755,-2,-10,-4,17,4,5,6,1
1511884036096787,-1,1,-1,-4,-1,1,0,-1
1511884036096787,0,0,-1,17,0,7,7,2
1511884036105424,-1,-1,4,-11,2,3,1,-1
1511884036105424,2,6,0,-6,-2,-9,-3,3
1511884036120464,-1,-2,-4,-39,12,2,-4,-3
1511884036120464,-2,-4,-2,19,-22,-6,0,-1
1511884036122470,-2,-4,-1,-14,-12,6,3,-1
1511884036122470,-1,7,2,10,24,6,4,1
1511884036144515,-2,-2,-2,0,-13,-6,-3,-1
1511884036144515,0,-2,1,6,18,5,0,1
1511884036146531,0,0,1,14,0,-8,-5,-4
1511884036146531,0,-4,0,1,-1,0,-3,-3
1511884036156557,-1,6,3,29,-10,-4,-5,-4
1511884036156557,-2,-4,-2,-9,32,1,2,1
1511884036165557,-1,-1,0,8,-4,2,2,1
1511884036165557,1,5,0,10,-9,-4,-5,-3
1511884036180598,4,1,0,-9,0,3,2,1
1511884036180598,1,5,0,-16,7,2,0,0
1511884036182603,-1,-2,-3,-5,0,1,3,2
1511884036182603,-2,-1,-2,-16,18,-3,-8,-6
1511884036202719,0,-5,4,8,-6,-1,0,0
1511884036202719,2,4,-1,-11,-43,-6,-1,0
1511884036204697,-3,-7,-5,3,9,-2,-6,-3
1511884036204697,-1,-2,-1,-17,-17,1,5,1
1511884036216756,0,1,2,-5,-18,9,12,2
1511884036216756,-1,7,-2,9,-3,-24,-23,-6
1511884036225753,-4,-16,-5,9,-4,-1,-2,0
1511884036225753,-1,4,6,24,-13,7,6,-2
1511884036240820,-4,-5,-6,3,-5,-11,-6,3
1511884036240820,-1,-2,3,24,9,8,4,0
1511884036241796,2,8,2,2,6,-2,-2,-1
1511884036241796,-4,-6,-6,-29,-8,1,-2,-3
1511884036262879,0,-3,-4,4,4,-2,-1,-2
1511884036262879,2,1,3,9,7,7,2,0
1511884036264858,-1,-1,1,4,-11,-4,1,1
1511884036264858,0,-2,0,-23,1,3,3,2
1511884036276917,-4,-3,-7,-17,11,-6,-8,-7
1511884036276917,0,2,2,-6,21,1,-1,1
1511884036285925,0,-2,-3,-24,-11,-5,-3,-4
1511884036285925,1,3,3,17,5,-1,1,3
1511884036300463,1,-2,-5,-15,-4,2,0,2
1511884036300463,-2,-1,-1,-11,0,2,4,-3
1511884036302470,0,4,1,-4,-14,2,0,1
1511884036302470,-3,0,-3,9,-4,-10,-5,1
1511884036323564,3,3,-1,0,26,-1,-4,-2
1511884036323564,0,-5,-3,25,-4,3,4,1
1511884036324527,-3,-1,-3,-10,0,1,-1,-3
1511884036324527,1,-1,-1,-4,-4,-3,-2,-1
1511884036336566,-2,0,4,13,-10,-2,2,-1
1511884036336566,-2,-4,-4,-15,3,1,-1,0
1511884036345588,0,-1,-3,-9,13,1,0,0
1511884036345588,-1,0,0,-14,-1,-5,-7,-1
1511884036360628,4,4,7,23,18,4,7,5
1511884036360628,-2,-3,-3,-25,0,4,4,-3
1511884036362630,-3,-4,-1,8,-10,-3,-1,-1
1511884036362630,0,0,-4,-2,3,0,0,-1
1511884036383735,0,4,4,-7,-6,0,-3,0
1511884036383735,1,-7,-3,14,-4,-2,-4,-1
1511884036385246,-3,-3,-2,-2,-20,-2,0,-2
1511884036385246,-2,-3,-1,12,2,9,9,-1
1511884036397310,2,2,1,-9,-8,-10,-7,1
1511884036397310,-3,4,3,8,11,3,-1,-5
1511884036405486,2,-6,-1,-6,-45,-10,-7,0
1511884036405486,-2,0,-1,-2,-5,-4,-5,-3
1511884036420533,1,1,-1,25,-3,6,4,2
1511884036420533,-1,-1,-2,2,-5,-3,0,1
1511884036426500,-1,2,7,24,27,7,7,1
1511884036426500,2,1,-7,-22,-6,-3,-4,-1
1511884036443548,-5,-6,-5,-13,-4,-3,3,-2
1511884036443548,1,-1,4,21,-10,-2,-2,2
1511884036444548,-3,3,-3,-9,7,7,7,-3
1511884036444548,1,3,4,36,5,-13,-13,0
1511884036456760,-2,-2,-8,-18,-7,0,-3,-4
1511884036456760,1,-4,-3,8,6,6,7,2
1511884036465604,-1,-1,-4,-35,6,3,-1,-1
1511884036465604,1,-3,1,25,1,-3,1,0
1511884036479644,0,4,2,-7,-4,-3,-4,-1
1511884036479644,1,4,0,-15,-8,-3,2,1
1511884036487169,1,1,-2,1,11,2,-1,0
1511884036487169,-2,-3,-1,-7,-4,7,5,0
1511884036503360,0,-3,-3,-9,1,-5,-8,-1
1511884036503360,1,1,5,14,-17,-9,-8,4
1511884036504366,2,3,-4,-9,12,13,6,2
1511884036504366,-4,-5,-6,-9,-4,-28,-21,-6
1511884036517427,-1,-2,4,-1,-3,5,6,-2
1511884036517427,-1,0,1,7,7,3,-3,-4
1511884036525603,2,5,2,-14,-6,3,5,-1
1511884036525603,1,-7,-5,16,8,-3,-2,3
1511884036540528,-5,-9,-8,11,-32,-2,-2,-3
1511884036540528,-1,-3,0,1,11,0,4,-1
1511884036546478,1,4,2,17,0,-8,-4,-2
1511884036546478,-4,-6,2,-14,8,6,4,-1
1511884036563523,0,-1,-2,-28,-11,-5,-2,-3
1511884036563523,-2,1,-2,0,-2,-2,-6,-3
1511884036564523,0,-6,0,23,6,0,6,2
1511884036564523,0,2,-3,-33,-20,1,-1,-1
1511884036576555,0,-1,-5,-19,-4,0,1,0
1511884036576555,1,3,-1,-8,16,9,10,1
1511884036586112,0,-2,7,20,-20,-23,-20,-1
1511884036586112,-1,0,-1,3,-7,-1,3,-1
1511884036599173,-2,2,6,14,23,0,-4,-2
1511884036599173,-2,1,-4,-17,-20,3,5,-2
1511884036608277,-1,-7,-5,-14,15,-7,-6,-1
1511884036608277,-2,-4,1,12,11,13,10,1
1511884036623335,2,-2,-3,0,-2,1,1,1
1511884036623335,-1,4,0,-11,-4,-3,-5,-3
1511884036625322,-3,-3,-4,-3,3,-7,-6,-2
1511884036625322,1,2,3,5,1,6,1,-3
1511884036645392,-1,-2,-5,-2,1,-2,1,1
1511884036645392,-4,-7,-1,-2,-8,-2,-1,-2
1511884036647370,1,2,-1,-12,-5,2,-1,1
1511884036647370,-1,1,-1,-5,6,0,-3,-5
1511884036660433,0,-1,4,21,10,7,9,0
1511884036660433,-1,-1,1,16,-11,-8,-7,0
1511884036666448,1,1,1,5,15,4,2,1
1511884036666448,-1,3,-3,-5,8,2,-1,-3
1511884036683493,-1,5,7,20,-7,4,0,1
1511884036683493,-1,-18,-12,-24,-4,-4,-2,1
1511884036685000,1,3,6,7,-3,1,-3,-1
1511884036685000,1,1,3,9,14,4,4,0
1511884036705605,-1,-3,-6,1,-10,-7,-4,-2
1511884036705605,0,0,3,28,10,6,7,2
1511884036707611,-2,3,0,5,-16,0,-4,-6
1511884036707611,0,-7,-4,-20,12,4,5,1
1511884036719615,0,5,1,-3,-19,-19,-23,-5
1511884036719615,1,0,-3,-7,6,2,2,0
1511884036726634,-1,-2,-1,6,2,3,2,-1
1511884036726634,1,4,5,16,-14,0,9,1
1511884036742704,-5,-6,-4,-29,11,6,2,-6
1511884036742704,2,1,2,2,5,-12,-11,-2
1511884036744682,-3,-2,-7,-34,-24,-2,2,-4
1511884036744682,1,5,0,-2,-18,-6,-7,-1
1511884036765766,0,-2,3,6,8,4,6,3
1511884036765766,-2,-2,-3,8,11,-1,-1,-3
1511884036767744,-1,-6,1,8,-20,-3,0,0
1511884036767744,-2,0,-4,7,0,0,0,-1
1511884036778804,2,3,3,1,11,-6,-5,1
1511884036778804,-2,-1,-6,-16,-1,4,4,-2
1511884036788327,0,0,-2,-13,-1,-1,-2,0
1511884036788327,0,-1,0,-9,-8,-5,-7,-2
1511884036810447,4,3,-1,13,4,1,4,-1
1511884036810447,0,-2,6,4,-2,-2,-4,0
1511884036812454,1,0,-3,14,4,2,3,1
1511884036812454,-2,0,0,5,6,0,-5,-2
1511884036825464,-4,-3,-3,-7,-13,2,3,0
1511884036825464,-1,2,-1,-10,-12,-3,2,2
1511884036827469,-1,1,0,-10,5,0,-4,-1
1511884036827469,0,-2,1,16,-7,-4,-6,0
1511884036839527,-1,2,-1,-23,1,2,3,1
1511884036839527,2,2,5,34,7,4,0,-1
1511884036848551,-2,-9,-5,-7,4,14,16,2
1511884036848551,-3,-1,-4,-14,15,-10,-14,-2
1511884036863565,1,-4,-2,6,-2,-5,-7,-4
1511884036863565,-1,4,2,-5,-3,2,4,-1
1511884036864567,2,3,2,-5,8,-1,-1,2
1511884036864567,-1,-2,3,22,-6,2,3,-1
1511884036885683,-1,-3,-1,-5,-16,3,5,-1
1511884036885683,-2,1,-9,-14,-1,-4,-5,1
1511884036887687,-2,-3,1,2,-5,-2,0,-4
1511884036887687,-3,-4,-12,-42,-23,-11,-4,0
1511884036899691,0,-2,2,-4,13,0,-4,-2
1511884036899691,2,0,-1,0,-30,1,3,0
1511884036915733,0,3,1,4,3,-2,0,0
1511884036915733,1,0,3,27,8,3,2,1
1511884036922779,-2,0,1,18,-14,4,3,-1
1511884036922779,-1,-4,-5,-16,19,2,0,0
1511884036924757,0,3,5,28,-24,-13,-8,-3
1511884036924757,0,1,-2,-15,8,5,6,1
1511884036944811,-3,-2,1,12,15,7,8,2
1511884036944811,-1,-9,-4,-5,-2,5,7,-1
1511884036952832,2,3,2,10,-7,-39,-39,-4
1511884036952832,0,-6,0,18,6,8,6,1
1511884036958848,1,3,-2,-6,-4,-3,-3,-3
1511884036958848,-2,4,1,-10,8,10,9,-2
1511884036967872,-3,-5,-3,-1,27,10,5,1
1511884036967872,-1,3,1,0,-14,-7,6,4
1511884036982940,2,-1,-2,8,4,-1,-2,1
1511884036982940,0,-1,4,12,-16,-5,-5,-1
1511884036984921,-1,0,-2,-16,19,6,2,0
1511884036984921,0,-3,-5,-8,-23,1,1,0
1511884037005580,-1,1,-3,1,4,0,1,-2
1511884037005580,-1,-1,0,-12,3,-5,-9,-1
1511884037007585,-1,1,-3,-20,7,4,8,4
1511884037007585,1,0,6,10,9,6,-1,-3
1511884037019619,-3,-1,-3,-6,4,-2,-1,1
1511884037019619,-1,-15,-5,-1,-6,-15,-16,-3
1511884037028642,-2,0,1,0,-19,2,4,0
1511884037028642,0,2,3,20,13,8,13,3
1511884037042679,-1,-1,-5,-25,-6,4,-3,-3
1511884037042679,-2,4,3,11,-10,-12,-3,3
1511884037044684,0,-1,4,13,33,3,-7,-1
1511884037044684,-2,-8,-10,-20,-58,-17,-6,-3
1511884037065768,0,-2,-3,-21,3,2,1,0
1511884037065768,1,4,2,11,3,8,9,1
1511884037066743,0,0,-2,-11,-12,4,10,4
1511884037066743,0,4,2,11,26,3,-3,-2
1511884037078774,0,-6,0,9,12,-4,-6,0
1511884037078774,-2,0,-2,-12,-3,-2,-3,-5
1511884037088329,0,-1,-2,6,-3,5,4,-1
1511884037088329,-1,1,3,0,-7,-4,-2,0
1511884037102897,0,2,-2,-18,9,-7,-5,-1
1511884037102897,-4,-2,-2,-10,19,2,-3,-1
1511884037104897,0,4,0,5,-61,-5,0,-2
1511884037104897,-3,-16,-4,-3,2,3,3,1
1511884037125953,0,1,-3,6,-3,-3,-1,0
1511884037125953,1,3,5,21,18,6,6,-1
1511884037126955,-3,1,-3,-19,-3,-12,-13,-5
1511884037126955,2,3,0,6,17,13,13,-1
1511884037138988,2,1,6,16,-10,-8,-14,1
1511884037138988,-1,-7,-4,11,15,-7,-6,-2
1511884037148011,0,-1,-1,-15,9,12,12,4
1511884037148011,1,4,5,1,-2,-10,-11,0
1511884037164054,-1,-1,1,3,2,7,10,0
1511884037164054,1,2,1,-3,-16,0,-2,-1
1511884037165057,-1,-4,-4,-5,26,3,-1,-1
1511884037165057,0,2,-1,-18,11,5,3,0
1511884037186146,-3,-2,0,14,-21,-6,-3,1
1511884037186146,-1,1,6,14,-4,-4,-1,-1
1511884037187676,0,-5,-9,-7,8,-5,-3,-1
1511884037187676,-1,1,4,-2,11,-3,-8,-5
1511884037199711,1,6,-3,-16,-10,3,5,2
1511884037199711,-2,0,4,5,13,-2,-7,-2
1511884037208735,-1,-6,-1,18,-2,1,1,-1
1511884037208735,1,4,-2,-9,3,4,0,1
1511884037222800,-2,-6,-7,-14,-17,-15,-7,-5
1511884037222800,1,6,1,13,2,2,3,2
1511884037224777,-1,-1,-6,-30,-7,0,1,-2
1511884037224777,-1,0,4,14,-7,-5,-2,1
1511884037245861,-1,-2,1,-38,11,9,5,1
1511884037245861,4,1,-5,-12,-22,-9,-6,3
1511884037246863,-3,-4,-7,-7,-17,-2,0,0
1511884037246863,1,-5,-2,2,13,0,3,4
1511884037258870,-2,-1,2,14,-9,-3,-3,-4
1511884037258870,-2,-3,-1,14,5,6,4,1
1511884037267894,5,0,-3,-6,0,3,4,5
1511884037267894,0,0,-14,-31,15,0,0,0
1511884037282959,-5,-6,-8,33,9,9,7,5
1511884037282959,1,0,-2,-16,-20,-3,1,-1
1511884037284941,1,0,1,5,9,2,2,0
1511884037284941,-2,0,-8,-15,27,13,-1,-2
1511884037305580,1,2,-2,-23,9,-8,-6,-4
1511884037305580,-2,0,5,29,-3,4,2,-1
1511884037307585,-1,1,-2,29,34,13,9,3
1511884037307585,-2,-12,-2,-44,-28,-1,2,1
1511884037319622,-2,-4,-5,14,-8,-4,-6,-1
1511884037319622,1,1,0,1,5,-3,-1,0
1511884037328641,-3,0,1,-2,9,-2,-3,-4
1511884037328641,-2,3,4,1,-7,4,2,-3
1511884037342709,4,0,2,6,4,9,7,3
1511884037342709,-4,-7,-5,-25,-16,-6,-2,0
1511884037349734,-1,-1,8,9,-28,-12,-8,-6
1511884037349734,-3,0,-1,-2,5,-6,-5,-6
1511884037365811,0,2,3,5,-4,-1,0,-1
1511884037365811,2,0,2,23,10,5,3,2
1511884037367749,1,-1,-1,-5,-11,-8,-7,-1
1511884037367749,-2,-4,-3,-24,-43,-10,-3,-3
1511884037379829,-1,-1,1,6,13,3,0,0
1511884037379829,0,0,-2,-16,-17,4,5,1
1511884037388315,0,2,6,12,17,2,-1,1
1511884037388315,3,1,1,50,7,-3,-3,0
1511884037402815,-2,-1,-3,-31,-35,-9,-4,-3
1511884037402815,-2,-3,3,-4,5,1,0,-2
1511884037409801,-1,-3,-5,1,5,3,0,1
1511884037409801,-1,6,2,10,7,7,4,4
1511884037425842,-3,-14,-3,3,6,0,-1,-1
1511884037425842,1,6,7,25,2,-3,-3,0
1511884037426847,-4,-6,0,11,-10,-5,-1,-3
1511884037426847,-1,3,5,13,3,-4,-2,-1
1511884037439929,2,3,3,18,10,-1,-2,-1
1511884037439929,0,-1,-10,-40,-27,-7,-4,-3
1511884037447957,-1,-4,-7,-8,0,1,1,0
1511884037447957,1,3,4,13,-22,1,4,-1
1511884037462991,-5,-3,-8,-31,4,-9,-10,-4
1511884037462991,-2,0,-4,-23,8,0,1,0
1511884037469006,-2,-3,-1,6,19,3,-1,-5
1511884037469006,2,-2,-5,9,10,11,15,5
1511884037486224,0,-2,0,-30,-27,-11,-9,-3
1511884037486224,0,4,-2,1,10,-2,-3,-3
1511884037487698,0,0,7,18,19,4,-2,-3
1511884037487698,-8,-7,-10,-94,-41,-14,-6,-5
1511884037499341,3,5,3,16,6,10,7,4
1511884037499341,-2,-2,-2,6,-5,-4,-5,1
1511884037508418,1,6,1,18,10,4,4,2
1511884037508418,-3,-11,-1,17,2,-2,-2,-2
1511884037522576,-1,0,-1,-1,21,3,3,-1
1511884037522576,-3,-3,6,12,2,-3,-4,-3
1511884037529480,5,3,-4,12,-19,0,4,4
1511884037529480,-4,2,1,-13,-34,-14,-11,-7
1511884037545546,1,3,5,-14,-52,-10,-7,-2
1511884037545546,-1,-14,-16,-19,44,21,12,5
1511884037547524,-3,-8,-16,-46,-43,0,4,3
1511884037547524,-4,0,-2,12,-5,-5,-7,-2
1511884037568583,1,3,4,31,9,8,6,1
1511884037568583,4,10,10,2,50,7,4,1
1511884037569582,-5,2,1,-26,-16,-15,-12,-5
1511884037569582,2,-8,0,33,17,3,4,1
1511884037582644,2,3,-2,-20,3,-1,1,-1
1511884037582644,-4,-8,-7,-36,-62,-14,-7,-4
1511884037589690,-4,3,3,-47,-26,-5,0,-2
1511884037589690,2,8,9,30,52,5,-3,1
1511884037605733,-2,2,3,65,16,4,0,-2
1511884037605733,-1,0,-11,-37,25,-1,-1,2
1511884037606734,0,1,7,2,0,-1,-2,-2
1511884037606734,3,4,4,49,6,12,11,2
1511884037627790,-2,-5,-6,-30,-11,-11,-9,-3
1511884037627790,0,2,4,17,-11,-1,-1,-2
1511884037629795,-2,-8,-7,-10,-21,-9,-5,-3
1511884037629795,1,1,2,-4,25,7,2,2
1511884037642853,-1,11,-3,4,8,-1,5,-1
1511884037642853,-4,-23,-5,-2,-7,-5,-7,-3
1511884037648869,0,0,0,-18,5,1,0,1
1511884037648869,3,2,3,30,15,-5,-5,3
1511884037665919,0,1,1,-11,14,8,7,2
1511884037665919,0,0,1,-6,-47,-7,-6,-2
1511884037666936,-4,-5,-17,-43,-29,-19,-14,-6
1511884037666936,2,0,2,17,-9,-1,-4,1
1511884037688507,-2,-5,-2,-21,-13,-3,-1,2
1511884037688507,2,4,-1,48,41,11,9,-1
1511884037690011,1,-3,-1,5,18,15,6,4
1511884037690011,-3,0,-4,-21,-15,-17,-11,-4
1511884037701568,-1,-7,0,-7,-4,-4,-2,-1
1511884037701568,-4,2,7,20,-20,2,1,0
1511884037710565,-2,2,8,25,-8,-5,-3,-4
1511884037710565,-1,5,-1,-37,-4,1,0,-1
1511884037725604,0,-7,1,18,5,2,1,0
1511884037725604,-1,2,-2,-16,12,-5,-5,-2
1511884037727609,1,7,9,51,7,-1,1,1
1511884037727609,2,-5,1,-29,-4,1,1,0
1511884037749668,-3,0,-6,-21,-2,0,0,-2
1511884037749668,0,1,0,5,-3,1,0,-1
1511884037750698,1,-1,-4,12,26,7,2,1
1511884037750698,0,0,-1,9,28,5,0,0
1511884037761701,2,2,0,14,10,-4,-2,1
1511884037761701,-1,2,3,-29,-57,-21,-11,-8
1511884037770724,1,0,6,42,37,8,7,2
1511884037770724,-1,-1,-3,-20,-23,1,4,-2
1511884037785766,3,3,8,34,14,5,4,3
1511884037785766,-1,5,0,32,9,-1,-4,0
1511884037787270,1,-2,4,1,1,3,3,-2
1511884037787270,3,4,-1,-11,-1,-8,-7,3
1511884037807853,-5,-2,8,32,-18,-1,-3,-5
1511884037807853,0,0,-3,-37,-2,3,4,2
1511884037809858,0,0,1,0,-9,0,1,1
1511884037809858,-3,-4,-3,-5,-6,5,3,-3
1511884037821891,-2,-3,4,-5,3,1,-1,1
1511884037821891,0,-2,1,-2,3,-3,0,0
1511884037830914,1,-2,-3,4,-18,3,-4,0
1511884037830914,-2,-1,-9,-4,-19,-5,-1,-2
1511884037845982,-2,-1,5,7,31,4,-1,-3
1511884037845982,2,0,-1,2,-19,3,3,0
1511884037846957,-1,-2,-1,-16,6,-6,-3,-1
1511884037846957,-1,-3,4,3,-17,-1,-2,-1
1511884037868041,-2,-8,-6,4,-1,-7,-2,-2
1511884037868041,2,8,3,-14,2,-3,-4,-1
1511884037870032,-4,-13,-9,-18,0,6,9,0
1511884037870032,-1,-1,0,5,0,-12,-14,-1
1511884037882080,-1,-2,-3,-9,-19,-2,0,1
1511884037882080,1,2,0,5,-8,3,3,1
1511884037891104,1,-3,2,8,5,1,-1,-3
1511884037891104,-3,-2,-1,-3,27,6,0,0
1511884037905698,-2,0,-3,30,-12,-7,-3,0
1511884037905698,-4,-4,1,25,36,10,7,1
1511884037907703,2,5,2,-14,3,-10,-10,-1
1511884037907703,-1,-1,-7,-14,10,6,8,1
1511884037927753,3,4,5,9,4,7,3,3
1511884037927753,-1,1,-6,-32,8,-5,-3,-1
1511884037929735,-5,-2,5,-11,1,1,-1,-3
1511884037929735,1,-1,-2,0,-1,-4,-4,-1
1511884037941771,-1,2,-3,-22,1,0,-2,-2
1511884037941771,-1,-10,-6,2,24,9,8,1
1511884037950803,-1,4,0,13,29,-1,-4,-2
1511884037950803,-2,1,0,-3,-21,-1,-1,-1
1511884037965862,0,-2,-8,-16,12,4,2,0
1511884037965862,-2,-6,2,8,-20,-4,-3,-3
1511884037966869,-1,3,3,-3,-27,-2,-2,0
1511884037966869,-2,-4,-4,-11,5,4,0,-1
1511884037987445,-1,2,5,19,-10,-6,-2,-2
1511884037987445,0,2,0,2,5,-3,-3,0
1511884037995967,-1,0,-5,13,-12,-3,-2,0
1511884037995967,0,-4,5,14,14,1,3,-1
1511884038002007,0,4,-4,-36,-21,-1,-2,-1
1511884038002007,-3,-5,-8,3,40,2,-6,-3
1511884038011005,-2,1,-1,-6,-26,-3,0,0
1511884038011005,-2,-1,4,16,-13,-4,-1,-1
1511884038026046,2,0,3,11,7,14,13,2
1511884038026046,1,9,3,-3,-21,-17,-13,-1
1511884038027049,-1,-5,-12,-24,26,3,0,1
1511884038027049,1,5,1,27,-3,-7,-7,-3
1511884038048131,0,-4,3,4,0,0,-3,-2
1511884038048131,2,1,-1,15,-16,1,3,2
1511884038050138,0,3,0,38,15,2,4,-1
1511884038050138,-2,-7,-1,-15,-8,6,7,1
1511884038062168,1,-4,0,7,4,1,-7,0
1511884038062168,2,4,2,14,-9,-8,-4,0
1511884038071196,0,-1,6,-3,-2,-1,-1,-3
1511884038071196,-1,-1,-1,-25,14,-1,-3,-2
1511884038085765,0,-3,3,25,4,2,5,2
1511884038085765,-4,-1,-1,-6,23,8,1,-1
1511884038087240,4,4,-4,-19,-6,-3,-2,2
1511884038087240,-5,-18,-9,-19,-11,-3,-1,-1
1511884038107890,-3,-2,-3,-3,10,-2,-3,-2
1511884038107890,0,4,6,-2,11,2,-1,-2
1511884038109894,0,-3,0,30,6,3,3,0
1511884038109894,1,6,1,-5,4,-1,-2,0
1511884038121955,-1,-2,-8,-20,-3,-6,-4,-2
1511884038121955,0,-4,1,-2,-8,-1,1,-2
1511884038130950,2,3,9,21,12,9,3,2
1511884038130950,-1,-2,-17,-8,-11,-14,-5,-2
1511884038144988,-3,-3,-1,-30,0,-3,-3,-3
1511884038144988,-1,2,2,41,-12,-1,1,2
1511884038152029,-2,-4,1,-16,1,-2,1,1
1511884038152029,4,8,-3,6,-4,11,7,3
1511884038168048,-2,-1,-7,-43,9,-9,-4,-1
1511884038168048,2,3,0,5,-8,1,0,-2
1511884038170054,-3,-10,-6,-16,-11,-6,-3,-2
1511884038170054,0,2,5,4,10,4,2,0
1511884038182113,0,2,5,24,-6,3,2,0
1511884038182113,0,4,-6,-18,14,7,5,2
1511884038191149,0,2,0,-7,-15,-8,-7,-2
1511884038191149,-3,-8,-9,-43,9,1,2,-1
1511884038206181,1,2,2,10,-15,-3,0,2
1511884038206181,-1,-3,7,15,1,-2,-2,0
1511884038207182,1,4,-1,5,3,5,2,1
1511884038207182,0,1,4,13,-1,-6,-5,0
1511884038228238,2,4,1,35,9,-4,-6,-2
1511884038228238,-5,-10,-3,-19,-13,1,1,-1
1511884038229268,-2,-1,-3,-7,-54,-9,-2,-3
1511884038229268,0,2,1,-8,42,9,3,1
1511884038241301,-5,-7,-8,-18,-14,-3,-2,-3
1511884038241301,-1,-3,-3,-7,-7,-1,-4,-3
1511884038250323,2,2,1,22,21,7,6,3
1511884038250323,-2,4,1,-13,-35,-7,-2,-2
1511884038265364,1,-4,-1,-5,-6,-5,-2,-2
1511884038265364,-1,-2,1,10,30,3,0,0
1511884038267369,-3,-2,0,-11,-7,-5,-5,-3
1511884038267369,0,6,11,15,-50,-4,5,-1
1511884038288460,-1,-3,-9,0,24,2,-5,2
1511884038288460,-1,-2,0,-13,-16,0,6,0
1511884038289938,-3,-8,6,-5,-2,1,-5,-4
1511884038289938,1,0,1,20,-32,-9,-8,-2
1511884038302077,-1,3,0,-17,7,2,5,-1
1511884038302077,1,-3,-2,3,-11,-4,-2,2
1511884038311101,1,-2,-3,14,12,0,1,1
1511884038311101,-2,-5,2,24,11,5,2,-2
1511884038325115,1,3,-1,-1,2,5,5,0
1511884038325115,2,7,3,14,0,-5,-4,2
1511884038332256,-2,-13,-2,6,20,-3,-3,-3
1511884038332256,1,0,-5,0,15,1,-3,0
1511884038348180,-2,-2,2,-17,-11,0,1,-1
1511884038348180,0,3,-3,3,-4,3,2,-1
1511884038350186,3,3,2,4,-5,-2,-4,-1
1511884038350186,-3,-4,-5,-29,20,-1,-4,-1
1511884038370269,0,-2,0,20,16,2,0,1
1511884038370269,-4,-6,0,-32,-29,-5,-2,-2
1511884038371311,-1,2,-9,-7,3,9,5,3
1511884038371311,-2,-3,-2,-12,-17,-10,-9,-5
1511884038384842,-1,0,2,0,-17,-1,7,-2
1511884038384842,2,0,-1,11,8,0,-3,4
1511884038392869,-6,4,-5,-6,-6,0,2,-5
1511884038392869,2,6,6,30,8,3,-5,0
1511884038408049,-2,-7,-5,-26,-8,-7,-5,-2
1511884038408049,-1,5,2,23,5,-5,-3,-1
1511884038408049,-1,-14,-4,-23,-31,-5,2,1
1511884038408049,-6,-4,-8,-16,12,3,2,-2
1511884038430137,0,3,0,-2,0,-1,-4,0
1511884038430137,0,3,3,-2,-4,1,1,1
1511884038431108,-1,1,14,43,8,2,-1,0
1511884038431108,2,1,1,-32,14,4,1,0
1511884038444138,-2,-1,-1,9,-9,-2,-2,-1
1511884038444138,-2,-6,2,15,5,4,4,-3
1511884038452287,1,6,-3,-13,9,-11,-10,-1
1511884038452287,4,0,4,23,-8,10,20,5
1511884038467328,0,-2,-4,-10,1,-8,-16,-1
1511884038467328,0,5,5,15,-17,4,12,-1
1511884038468204,-2,0,-3,-19,11,-2,-13,-1
1511884038468204,0,0,-1,11,-3,-3,1,1
1511884038490389,0,1,1,-2,-5,1,3,-1
1511884038490389,0,-3,-3,-2,13,0,0,1
1511884038490890,3,4,-1,-12,-31,-5,0,1
1511884038490890,-1,-1,-7,-2,25,1,0,0
1511884038504530,0,-2,-4,-9,-26,0,0,1
1511884038504530,-3,0,-2,-20,-1,-5,-9,-5
1511884038512582,-1,1,2,34,8,7,9,0
1511884038512582,-2,-1,-1,9,-26,-11,-13,-3
1511884038527719,0,-5,-9,-9,30,6,3,-1
1511884038527719,0,1,-3,0,-3,-3,-3,-2
1511884038528602,-1,-4,-2,-27,11,3,5,2
1511884038528602,-1,8,1,23,1,-1,0,0
1511884038550784,-2,-15,-3,20,-5,2,-1,-1
1511884038550784,-2,-3,3,-1,-1,-1,-1,-3
1511884038551657,-2,-1,-3,-4,-10,-3,-1,0
1511884038551657,2,-1,3,-18,14,2,-4,-4
1511884038564826,2,5,7,40,17,6,11,2
1511884038564826,-2,-8,-12,-37,-5,-7,-9,1
1511884038572713,2,5,1,-5,7,2,-3,-1
1511884038572713,-4,-3,-1,-7,-7,-1,-3,0
1511884038587818,1,2,3,-7,-19,-6,1,1
1511884038587818,-1,-4,-5,-11,-1,7,8,1
1511884038588288,-1,7,3,9,17,-6,-10,-3
1511884038588288,-5,-13,-3,9,-13,-6,-1,-2
1511884038609895,3,13,7,-1,2,8,7,1
1511884038609895,0,-13,-6,9,6,-5,-9,1
1511884038610873,-2,-11,-3,-1,1,3,6,-2
1511884038610873,-3,-1,-3,-38,25,0,-3,-3
1511884038624937,-1,3,6,34,-6,6,9,0
1511884038624937,-2,1,0,3,5,-8,-9,-1
1511884038625913,0,4,3,-9,-11,-2,-1,-1
1511884038625913,2,-2,1,2,-16,-3,0,2
1511884038646993,-2,-1,-3,-11,6,-2,-1,-1
1511884038646993,1,5,1,-18,-31,-3,2,-2
1511884038647974,-2,-4,-3,1,1,-1,-2,-1
1511884038647974,1,7,2,21,-3,4,7,0
1511884038670031,-3,1,1,-16,1,-1,-7,-3
1511884038670031,-3,-16,-6,-2,-14,-10,-9,-3
1511884038671060,-2,0,0,2,18,0,-2,0
1511884038671060,1,0,-4,-27,-47,-1,4,1
1511884038685097,2,2,-3,-3,38,2,-4,3
1511884038685097,-1,0,5,18,-8,2,1,-2
1511884038686128,-5,-3,-7,-48,-9,-2,0,-3
1511884038686128,4,0,-3,6,11,2,0,3
1511884038707057,0,1,-4,7,5,-6,-3,-1
1511884038707057,4,3,-3,-11,15,7,5,-1
1511884038708032,-3,-5,-8,12,-16,-2,2,-2
1511884038708032,-1,6,9,8,3,-1,-5,0
1511884038730118,-2,-16,-8,-34,-37,-16,-18,-7
1511884038730118,-2,0,-5,15,9,8,17,3
1511884038731118,1,5,4,8,7,7,-5,1
1511884038731118,-2,-2,1,1,-3,-15,-10,-4
1511884038745150,0,2,3,6,16,4,4,2
1511884038745150,-2,2,0,-5,-5,-1,-2,-2
1511884038746152,2,2,3,1,14,8,10,3
1511884038746152,-5,-6,-7,0,-20,0,0,-5
1511884038767214,-1,2,2,-4,-2,-3,-3,1
1511884038767214,-2,0,-2,15,13,8,7,1
1511884038768193,3,7,-4,13,18,0,-1,-1
1511884038768193,0,-10,-6,-17,32,8,1,3
1511884038790254,0,1,-7,-30,-14,3,8,-1
1511884038790254,0,5,4,-12,30,-1,-8,-1
1511884038790754,-2,1,5,9,-26,-1,4,0
1511884038790754,1,3,-6,-19,-20,-8,-7,0
1511884038805295,0,-3,1,8,-16,2,4,0
1511884038805295,-3,0,-2,-3,8,1,2,-3
1511884038805295,1,-1,-3,-18,-12,-12,-11,1
1511884038805295,1,7,9,18,8,6,5,-1
1511884038827355,-3,-16,-5,-8,8,1,0,-2
1511884038827355,1,5,0,-1,-46,-2,-2,-3
1511884038828357,2,-2,-1,5,12,-3,-1,1
1511884038828357,-4,-2,-6,-26,-6,4,7,-1
1511884038849440,1,6,6,1,3,-1,-6,2
1511884038849440,0,2,-2,12,11,-12,-25,-2
1511884038850427,-2,-3,-2,5,-8,3,12,-2
1511884038850427,2,1,9,26,-19,-5,-12,1
1511884038864476,-7,-6,-9,-23,6,-13,-8,-8
1511884038864476,2,-5,-5,25,13,9,11,2
1511884038865456,0,1,0,-11,-5,1,-5,0
1511884038865456,1,-1,1,11,10,2,8,-1
1511884038887572,-1,2,4,29,-4,3,-1,0
1511884038887572,1,8,9,26,-14,-1,0,1
1511884038888578,-6,-17,-8,-1,11,-7,-12,-3
1511884038888578,1,-2,2,11,7,3,3,1
1511884038909667,1,4,4,14,-7,0,-1,-2
1511884038909667,-1,-6,-9,-37,-14,2,13,1
1511884038910645,-1,6,-1,-8,-10,-8,-10,0
1511884038910645,-3,-3,1,-8,22,2,6,-4
1511884038924683,-2,-3,-2,2,-24,-12,-4,2
1511884038924683,1,6,2,-12,6,6,-4,-1
1511884038932704,-5,-16,-9,21,4,2,5,-2
1511884038932704,-3,-2,-4,8,15,-2,-4,-2
1511884038947771,1,10,4,14,4,-2,2,0
1511884038947771,-1,-5,-8,-29,-8,5,2,0
1511884038947771,3,5,9,13,-7,-14,-11,-1
1511884038947771,0,-1,-1,-25,-13,-2,-3,-2
1511884038969804,1,1,-3,-3,0,3,-1,-2
1511884038969804,-4,-6,-3,-4,-7,0,6,2
1511884038970807,0,0,-3,-8,21,8,3,-4
1511884038970807,-2,-2,-2,9,-14,-12,-12,-4
1511884038993389,1,1,-1,-28,-9,-3,8,5
1511884038993389,4,4,0,14,14,-4,-4,0
1511884038993868,0,2,3,-5,-28,5,10,3
1511884038993868,0,-1,-5,-3,27,-4,-10,-4
1511884039007433,-3,-1,-3,1,3,6,3,-3
1511884039007433,2,-11,-2,-13,-11,-7,-1,-1
1511884039008440,0,3,1,5,3,-4,-2,1
1511884039008440,1,-1,-2,-17,-13,5,9,1
1511884039029490,-4,1,-1,-15,-24,-2,-3,-3
1511884039029490,1,6,0,-2,18,-8,-9,0
1511884039030468,-2,-3,8,28,-1,10,13,0
1511884039030468,1,1,2,13,-5,-6,-6,3
1511884039053528,1,-3,2,-17,7,-3,-5,0
1511884039053528,-1,2,4,11,8,7,10,1
1511884039053528,-4,-1,-4,-24,-17,-5,-11,-8
1511884039053528,-2,-5,-2,10,10,2,10,4
1511884039067592,0,0,-7,-11,-19,5,5,1
1511884039067592,-3,1,2,-19,3,-14,-19,-5
1511884039068595,3,3,3,9,9,6,7,2
1511884039068595,-2,0,1,27,1,0,-9,-3
1511884039090184,2,-2,0,5,-10,0,4,1
1511884039090184,-3,-4,1,8,28,2,-2,-4
1511884039091157,3,8,1,-3,-24,1,6,1
1511884039091157,-5,-2,-3,-23,-18,5,4,-2
1511884039112739,-4,-4,4,15,11,-10,-14,-4
1511884039112739,2,5,2,31,20,7,7,3
1511884039113742,1,1,2,23,26,4,3,-1
1511884039113742,0,-3,-6,-11,-3,-2,0,0
1511884039127779,-4,-1,-5,-17,24,8,10,-3
1511884039127779,-1,-1,6,23,3,-6,-12,-1
1511884039127779,0,-2,-5,-25,2,-7,-4,-1
1511884039127779,3,4,1,13,-8,1,0,0
1511884039149868,-4,-8,1,12,21,2,-1,1
1511884039149868,-2,-3,-3,14,-9,-1,0,-4
1511884039150842,-3,-4,-5,-26,-6,0,-1,0
1511884039150842,4,3,4,10,12,-2,-2,0
1511884039172927,4,5,0,15,-5,-1,1,2
1511884039172927,-1,-5,3,22,3,5,7,-5
1511884039173902,0,-6,-4,-16,8,-7,-12,0
1511884039173902,-1,3,-1,-11,-29,-4,1,-3
1511884039187495,1,3,6,4,-19,-15,-9,-2
1511884039187495,-1,-3,-1,-19,1,3,-1,-5
1511884039188497,-1,3,-2,2,-22,-2,-8,-4
1511884039188497,4,-1,-3,1,-11,11,21,10
1511884039210087,0,-1,2,3,8,-9,-9,2
1511884039210087,1,-2,-20,-64,2,2,2,2
1511884039211090,-3,5,9,29,5,1,-3,-5
1511884039211090,-2,-18,-5,-25,-8,-3,-5,-3
1511884039240170,2,4,5,15,-7,-1,-2,-3
1511884039240170,-3,2,3,-15,-12,-5,2,0
1511884039241146,0,-2,-1,26,45,4,-1,-1
1511884039241146,-5,-1,-8,-47,-9,-5,-8,-3
1511884039247191,-2,-3,-7,-23,9,3,0,-2
1511884039247191,2,1,0,2,-4,-5,-1,4
1511884039248165,2,2,0,4,5,1,0,3
1511884039248165,-3,-2,2,20,10,-7,-4,-2
1511884039270237,1,-1,-2,17,18,10,1,2
1511884039270237,0,3,2,1,-18,1,3,-1
1511884039270237,-2,1,2,-3,-11,-4,2,3
1511884039270237,4,11,3,15,21,4,3,0
1511884039292840,-4,-8,-1,-22,-8,-9,-7,-4
1511884039292840,3,3,4,50,4,1,1,-1
1511884039293320,-3,-7,-11,-45,9,6,3,1
1511884039293320,-1,3,3,1,8,-2,-4,-2
1511884039306945,1,2,-2,14,20,9,6,2
1511884039306945,-4,-6,3,-1,-26,-2,-2,-3
1511884039307951,0,-1,0,-21,-20,-9,-6,-1
1511884039307951,-1,3,-1,9,25,3,0,-1
1511884039330041,-1,1,-2,-3,3,4,8,2
1511884039330041,-1,2,-1,11,10,1,-1,2
1511884039331027,0,-1,-2,-9,-18,-2,0,-3
1511884039331027,-1,-5,-4,-19,0,-4,-6,0
1511884039352065,1,4,1,6,4,1,1,-1
1511884039352065,-2,2,-2,-22,-24,-4,-1,1
1511884039353073,-1,-9,-6,11,6,3,4,1
1511884039353073,0,5,-2,24,1,2,1,0
1511884039367133,2,-3,-1,8,-1,0,1,1
1511884039367133,-3,1,-3,-5,-23,3,8,-2
1511884039368107,4,4,0,-21,-6,-8,-7,3
1511884039368107,1,-4,-1,-24,-18,-7,-6,-3
1511884039390201,2,2,2,-1,-19,-4,-2,-1
1511884039390201,-4,-9,-15,-46,5,6,1,-1
1511884039391197,2,5,3,13,24,10,6,1
1511884039391197,-1,-7,1,16,3,8,5,0
1511884039412257,-4,2,1,-10,-21,-13,-8,-1
1511884039412257,-1,-2,2,9,6,-3,-6,-2
1511884039413259,-2,0,4,14,13,-5,-4,-2
1511884039413259,-3,0,-10,-32,-6,2,1,-1
1511884039427298,0,1,1,5,24,3,2,2
1511884039427298,-4,-2,-6,-52,-2,-4,-9,-8
1511884039428300,2,8,2,4,8,-2,-3,0
1511884039428300,-2,-6,0,14,-9,0,3,-2
1511884039450371,0,0,-3,9,22,5,2,-1
1511884039450371,1,-1,-1,-3,-25,0,10,0
1511884039450371,-1,4,7,11,-13,-14,-15,-3
1511884039450371,-1,3,2,-6,-11,-2,-2,-2
1511884039472445,-3,-10,-10,-36,1,4,1,-1
1511884039472445,3,-1,-7,2,-2,-3,2,2
1511884039473420,-3,-1,-4,26,3,8,9,-1
1511884039473420,0,-3,2,19,-6,-1,3,2
1511884039487461,-3,0,-2,-24,-7,-5,-6,-3
1511884039487461,-1,0,3,8,23,5,-1,2
1511884039488464,0,1,0,3,-4,1,2,0
1511884039488464,-2,-1,-4,-29,1,-8,-8,-3
1511884039509472,2,4,-2,3,-10,10,9,1
1511884039509472,0,-6,-1,-7,-7,-16,-18,-3
1511884039510476,0,-4,0,-5,-4,2,3,-2
1511884039510476,0,-2,0,10,15,7,5,2
1511884039532538,-1,2,2,16,-25,-3,-2,-3
1511884039532538,3,1,5,31,25,10,5,2
1511884039533661,-3,-7,-4,-5,-56,-6,2,-1
1511884039533661,-1,6,4,17,4,-10,-8,0
1511884039547609,-2,-3,-1,-17,-6,0,-4,-2
1511884039547609,-1,2,9,36,17,0,-1,0
1511884039548577,-1,-2,-5,-55,-3,-1,1,-1
1511884039548577,1,0,-4,-4,27,6,2,-1
1511884039569634,1,1,2,3,-21,-13,-7,1
1511884039569634,-3,-1,-4,-26,-30,0,6,-3
1511884039570635,-1,-6,-1,-15,-7,-20,-26,-5
1511884039570635,-3,-3,-4,7,1,1,2,0
1511884039592698,3,2,-1,-15,15,9,6,2
1511884039592698,0,2,-2,13,-5,-2,-1,-3
1511884039593199,1,1,1,27,33,13,9,0
1511884039593199,0,-1,3,9,-15,4,1,-2
1511884039607790,0,2,2,14,13,-4,-6,0
1511884039607790,2,0,8,12,-13,-6,-2,0
1511884039607790,-3,-2,-7,-27,1,3,6,-1
1511884039607790,-2,-9,-2,-12,-5,-7,-7,-2
1511884039629826,-2,-2,-7,-27,6,1,3,-2
1511884039629826,-1,-2,0,3,24,2,-2,-2
1511884039630828,-4,-1,1,2,-3,0,-4,-2
1511884039630828,2,11,11,-5,-27,-14,-5,-1
1511884039651907,-4,-16,-8,9,-5,-1,0,-2
1511884039651907,-3,-3,-5,-8,2,-4,-8,-3
1511884039652886,2,3,3,28,20,24,26,5
1511884039652886,1,-1,0,-5,-25,-10,-12,1
1511884039666952,4,4,7,29,28,2,-10,-2
1511884039666952,-3,-4,-1,-11,12,0,-6,-2
1511884039667950,-2,-5,1,6,-20,-6,2,-3
1511884039667950,2,0,-1,-1,17,8,7,2
1511884039690039,1,3,3,10,8,8,7,0
1511884039690039,0,-1,1,6,3,-5,1,1
1511884039691052,0,-2,-8,-3,2,-1,-3,1
1511884039691052,-2,2,1,22,7,-5,-6,-4
1511884039712109,0,4,0,-5,-12,2,2,-1
1511884039712109,1,-16,-2,31,-6,6,8,5
1511884039713110,-2,3,-4,-20,-22,-9,-6,-2
1511884039713110,-1,-3,-2,8,13,-2,-4,-4
1511884039727148,-5,0,0,-5,-27,3,9,-4
1511884039727148,-1,4,-2,-10,-33,-18,-11,0
1511884039728151,-1,-3,-1,-9,-25,-13,-10,-5
1511884039728151,-1,-4,-6,-3,10,9,4,0
1511884039750237,1,-2,-1,-6,1,-4,-2,2
1511884039750237,3,4,1,-6,-3,6,7,0
1511884039750237,-1,4,-1,-7,20,5,0,0
1511884039750237,-2,-2,1,-8,-13,-5,-2,-3
1511884039772296,-1,-3,3,18,-15,-9,-5,-3
1511884039772296,-1,5,1,-14,3,3,0,-3
1511884039773271,2,-3,1,21,10,-2,-3,1
1511884039773271,-1,-1,-3,-11,2,4,3,-1
1511884039787823,-2,1,2,24,1,-6,-5,0
1511884039787823,0,-1,-3,-8,24,1,-2,-2
1511884039788315,-2,3,2,16,-5,5,4,-1
1511884039788315,0,0,0,-10,-8,6,8,5
1511884039810010,-3,-5,-3,-6,-25,-17,-17,-7
1511884039810010,-2,7,4,0,16,-13,-12,-3
1511884039810985,5,2,-1,5,16,-3,-3,1
1511884039810985,-5,-6,-3,15,-8,7,7,-2
1511884039832069,1,1,0,2,-5,4,2,5
1511884039832069,1,5,-2,5,4,4,2,1
1511884039833044,-2,-2,0,-8,-20,-1,2,-3
1511884039833044,4,2,-3,-21,-6,-7,-2,0
1511884039847108,-2,-4,-2,-3,21,10,7,0
1511884039847108,1,-3,0,-3,-38,-8,-1,0
1511884039848115,-1,-2,-2,-12,12,1,2,2
1511884039848115,-2,2,1,15,18,0,-5,-3
1511884039870144,3,0,4,15,7,-7,-6,-1
1511884039870144,0,-1,-7,17,-25,7,8,-1
1511884039871155,2,-2,5,16,2,-13,-10,-2
1511884039871155,0,-1,-3,-11,-16,-6,-4,-3
1511884039892721,-4,-2,-6,-4,17,9,3,0
1511884039892721,-2,0,4,-2,-7,0,2,0
1511884039893208,0,7,4,0,0,3,1,0
1511884039893208,-1,-6,-7,-3,11,0,-1,-1
1511884039907298,3,2,5,5,-3,3,4,0
1511884039907298,0,1,0,6,4,-3,-4,-1
1511884039908272,-4,-4,-7,14,7,-2,-6,-6
1511884039908272,-1,1,2,-3,21,1,0,-1
1511884039930358,1,5,-1,-5,7,-8,-5,1
1511884039930358,-3,-4,0,-17,2,5,3,-3
1511884039930358,-1,-2,1,6,30,4,1,2
1511884039930358,1,0,2,16,-19,1,2,-1
1511884039952416,-3,-3,-4,-9,-19,-5,-1,-1
1511884039952416,1,2,-2,-24,8,0,-3,-1
1511884039953393,2,5,8,27,17,4,3,4
1511884039953393,-4,-9,-4,-10,-2,-4,-7,-4
1511884039967429,4,5,2,2,-1,0,1,1
1511884039967429,-1,-5,-2,14,-14,-4,-4,-2
1511884039968431,-2,5,-2,-27,-9,4,2,-1
1511884039968431,2,9,6,15,7,3,4,2
1511884039990020,-4,-22,-6,10,-1,-2,-2,-1
1511884039990020,-3,17,-5,-28,19,6,3,-2
1511884039991022,18,1,-14,-18,-7,-10,-5,4
1511884039991022,-4,-3,9,15,19,-1,-3,4
1511884040012578,-10,-9,-10,-17,-49,-2,1,-4
1511884040012578,-10,-35,-8,9,32,22,13,-4
1511884040013580,1,25,4,-13,-11,-17,-20,-6
1511884040013580,2,-13,-6,-8,1,-11,-3,3
1511884040026643,-11,-6,-8,-13,-1,-4,-4,-3
1511884040026643,0,-21,-1,19,17,10,13,5
1511884040034657,-9,-14,-6,-16,-13,-7,-14,-8
1511884040034657,8,30,14,16,5,12,12,2
1511884040049676,9,-9,0,2,2,-15,-15,0
1511884040049676,-8,3,3,25,19,5,7,-6
1511884040050679,0,-9,-2,-26,-35,-10,-4,4
1511884040050679,-3,-1,-2,-4,4,2,-3,-7
1511884040072765,7,15,2,0,-13,-1,4,4
1511884040072765,7,12,2,-28,29,-2,-5,4
1511884040072765,-7,-20,-2,11,-8,7,12,-2
1511884040072765,-3,6,0,-39,26,12,4,-3
1511884040086776,2,1,0,-3,-20,-10,-3,-1
1511884040086776,-1,-3,3,15,-18,-3,-8,-2
1511884040095302,-4,2,0,-10,2,8,10,3
1511884040095302,3,-4,-5,27,-13,-11,-7,3
1511884040117863,-1,5,-2,-17,-35,6,1,-3
1511884040117863,-3,-12,-10,-3,42,-22,-19,-4
1511884040118866,4,13,4,21,19,19,16,1
1511884040118866,-3,2,-5,0,-41,-9,-1,0
1511884040131900,2,-1,3,8,17,8,7,0
1511884040131900,-2,12,-5,-29,-29,-11,-12,-1
1511884040132903,0,0,8,35,-25,12,16,0
1511884040132903,0,-1,-5,3,68,-5,-15,-1
1511884040146968,1,5,-1,-21,38,2,-3,-1
1511884040146968,3,9,3,-20,-28,5,7,-2
1511884040154963,0,-10,-3,26,11,-2,-2,0
1511884040154963,2,3,8,0,-35,-3,3,0
1511884040178024,-7,-7,-6,13,23,10,7,-2
1511884040178024,1,-1,0,-3,2,12,8,-1
1511884040179027,4,5,2,-17,-1,-12,-8,4
1511884040179027,-8,-13,-8,-8,-11,-8,-10,-10
1511884040192566,1,0,5,20,-24,1,7,2
1511884040192566,3,10,7,16,-4,-6,-10,-1
1511884040193568,-4,-4,-3,-3,-24,-2,4,-2
1511884040193568,2,-3,-1,3,9,6,5,-2
1511884040206930,-3,-1,6,11,9,-5,-3,3
1511884040206930,-3,-2,1,-3,-4,8,3,-3
1511884040214951,0,5,2,-8,24,16,6,1
1511884040214951,-6,-22,-4,11,-5,-20,-14,1
1511884040229964,-4,0,-7,-33,-10,6,5,-6
1511884040229964,8,15,7,20,-12,-11,-4,3
1511884040230967,-3,2,4,23,-9,10,9,2
1511884040230967,-1,0,0,-15,-25,-3,-1,0
1511884040252024,1,1,-3,-9,-3,-3,-7,-3
1511884040252024,1,-1,2,45,15,-5,-5,-1
1511884040253043,0,4,-2,-44,-64,-18,-8,-6
1511884040253043,-1,-10,-4,2,4,11,7,1
1511884040267064,0,3,4,-1,21,1,3,2
1511884040267064,1,-2,-5,-11,-15,2,6,2
1511884040275085,1,4,4,9,29,-6,-12,-3
1511884040275085,-5,-17,-10,0,3,-5,-8,-4
1511884040290126,-1,2,5,25,43,7,3,-2
1511884040290126,-1,-9,-7,-20,-6,-3,-5,0
1511884040291158,-2,-2,-3,-13,15,2,8,2
1511884040291158,4,7,-4,-2,-3,2,2,4
1511884040312186,2,5,5,14,2,1,-2,-4
1511884040312186,-6,-4,-1,0,-15,-7,-4,-3
1511884040313190,-7,-9,-10,-22,5,-3,-1,0
1511884040313190,4,-1,-2,13,-10,11,11,9
1511884040327226,-11,-1,0,-13,-7,-26,-27,-13
1511884040327226,12,1,4,-10,-23,5,6,5
1511884040335248,-28,-9,-8,12,41,-10,-13,-9
1511884040335248,12,9,-2,-16,-27,3,12,6
1511884040350291,0,11,0,-2,-8,7,4,1
1511884040350291,-4,-5,0,-3,0,-1,2,6
1511884040350291,-7,-4,1,22,-22,-2,-1,-10
1511884040350291,1,7,7,14,57,1,-10,-8
1511884040372378,4,4,5,21,0,5,3,6
1511884040372378,-1,6,-7,-34,-9,-15,-9,-6
1511884040373377,9,-6,-8,-8,15,12,10,8
1511884040373377,-4,-1,3,-13,20,3,3,-3
1511884040395975,6,0,2,-20,-5,-2,-5,0
1511884040395975,-3,-1,5,37,38,11,7,4
1511884040396929,5,-7,0,-19,-19,-11,-6,0
1511884040396929,-9,-3,-6,5,-16,-8,-8,-9
1511884040409468,3,0,1,9,24,5,7,3
1511884040409468,-4,-6,-1,-9,-4,2,1,0
1511884040410471,-1,2,-3,-7,-15,-5,-5,-1
1511884040410471,2,-6,4,0,-15,-1,-1,2
1511884040432578,-4,-13,2,20,-19,0,3,0
1511884040432578,-3,7,-1,-1,-4,-3,-5,-4
1511884040433531,3,3,-1,-15,9,1,-4,1
1511884040433531,-8,-2,11,71,-8,2,3,-3
1511884040455716,-1,2,0,-9,-9,-8,-4,1
1511884040455716,0,-3,-2,15,8,10,1,-1
1511884040456594,5,8,7,29,-11,-8,-8,-3
1511884040456594,-1,2,-2,-21,6,4,7,0
1511884040469671,0,-3,-1,17,-4,-7,-15,1
1511884040469671,2,0,-12,-39,-2,-1,5,2
1511884040470635,1,-2,-3,-3,14,14,8,-2
1511884040470635,-5,-16,-10,-14,-3,-2,-2,-5
1511884040492704,1,-2,-6,-13,8,5,3,-3
1511884040492704,5,4,6,6,-18,3,14,2
1511884040493713,3,7,1,3,3,-14,-18,0
1511884040493713,-5,-1,-6,-55,-2,0,0,-1
1511884040515983,2,0,-6,-23,7,7,7,3
1511884040515983,-3,-1,0,14,2,-8,-9,-3
1511884040516937,4,8,10,11,13,2,2,1
1511884040516937,2,0,-1,19,2,8,3,2
1511884040529973,-1,-7,-1,9,11,6,11,-1
1511884040529973,-3,1,-5,-41,-6,0,-9,-2
1511884040530976,6,2,2,2,-1,-22,-14,3
1511884040530976,-1,15,3,11,3,-2,-2,3
1511884040553035,-3,0,-9,-14,-30,2,0,-4
1511884040553035,-2,-6,4,31,-6,-7,-3,1
1511884040553035,-2,-9,-5,-21,1,9,6,1
1511884040553035,-1,3,4,-9,3,-5,-11,-3
1511884040576125,0,0,1,9,-7,3,14,5
1511884040576125,2,17,10,24,-11,-11,-14,-5
1511884040576125,-9,-31,-12,-32,12,-2,-5,-5
1511884040576125,1,5,-5,-20,-41,-10,-4,-4
1511884040590183,-1,9,-4,-6,20,9,7,2
1511884040590183,-2,-19,-7,10,0,-2,-2,-2
1511884040591147,0,-3,5,22,2,5,2,0
1511884040591147,0,6,-1,-3,-44,1,8,3
1511884040612823,0,3,10,10,5,-19,-13,-6
1511884040612823,0,-3,-11,-61,19,13,15,1
1511884040612823,-8,-10,-1,38,7,1,-6,-3
1511884040612823,3,2,2,-1,-3,6,7,2
1511884040635884,-4,-8,4,16,-9,-6,-9,-2
1511884040635884,1,3,1,15,-12,-9,-8,-1
1511884040635884,2,1,-1,3,7,7,8,-2
1511884040635884,-3,-2,2,15,-6,4,11,1
1511884040649926,-2,-3,-10,-53,32,-1,-12,3
1511884040649926,4,-2,-2,0,11,5,7,3
1511884040650926,2,22,5,4,-31,-2,1,3
1511884040650926,2,-4,5,10,32,1,-6,-3
1511884040671954,0,-1,-11,-12,-34,-11,-3,-2
1511884040671954,-7,-8,2,5,-22,-4,0,-3
1511884040672957,1,-2,-10,-14,-9,2,9,0
1511884040672957,1,4,6,4,16,2,-9,0
1511884040696019,-1,-1,-6,-15,-50,-30,-17,-5
1511884040696019,-1,3,6,9,0,5,4,1
1511884040696521,-1,-4,2,24,5,4,4,0
1511884040696521,0,-1,-5,-21,15,2,3,-1
1511884040709586,-3,-5,2,14,-4,10,10,0
1511884040709586,-2,-2,3,17,10,-12,-16,-6
1511884040710589,5,7,6,-2,2,3,4,1
1511884040710589,-4,-19,-12,1,19,-8,-8,-3
1511884040732678,3,2,1,-10,2,3,5,3
1511884040732678,-3,5,-3,-3,0,-3,-4,-2
1511884040733685,-1,-9,-2,-4,1,10,8,-1
1511884040733685,0,4,4,3,17,-9,-11,2
1511884040755710,-5,-10,-5,-14,-34,-9,-6,-7
1511884040755710,1,4,-3,3,17,14,10,1
1511884040756712,-1,2,-1,-12,-1,-17,-18,-4
1511884040756712,2,3,-2,-11,-16,-3,1,0
1511884040769747,3,0,3,20,17,10,14,8
1511884040769747,0,3,-1,-34,-6,-12,-14,-5
1511884040770751,-5,-13,0,9,9,9,8,-1
1511884040770751,0,2,-3,-1,-4,0,-1,-2
1511884040792839,2,2,1,-1,-18,-4,-6,1
1511884040792839,1,-1,-1,4,19,4,2,-1
1511884040793314,-3,-4,3,-16,-29,-4,2,-1
1511884040793314,1,2,-1,-7,-7,-4,-4,-1
1511884040815876,0,-1,2,30,37,8,9,0
1511884040815876,-3,0,3,6,-3,-7,-15,-6
1511884040815876,0,-3,-9,-17,-40,-4,2,3
1511884040815876,2,3,-1,-15,-22,-7,2,-2
1511884040829913,-4,-5,2,16,4,3,-2,-9
1511884040829913,-2,-9,-6,-20,2,6,10,13
1511884040830916,0,3,-5,0,22,1,1,2
1511884040830916,2,4,10,24,24,8,3,2
1511884040851971,1,-4,-5,1,15,2,-1,-1
1511884040851971,0,-4,-2,8,-15,-3,-1,-3
1511884040852974,2,3,7,29,22,0,-3,-2
1511884040852974,1,1,-5,-18,-8,-1,-2,-1
1511884040876035,-3,-2,-1,8,6,1,-2,-1
1511884040876035,-2,-2,-4,1,-28,-3,1,0
1511884040876035,-2,0,0,20,38,2,-2,1
1511884040876035,-3,0,2,14,-25,-6,-2,-6
1511884040890101,1,-1,-4,-18,-19,-1,0,1
1511884040890101,3,-2,-4,-3,12,-1,1,1
1511884040891104,3,1,-1,-10,17,3,-1,1
1511884040891104,0,-2,5,17,15,6,1,0
1511884040912681,1,-1,-6,-13,0,2,3,-1
1511884040912681,1,7,3,10,-12,-2,1,0
1511884040912681,-3,-13,-4,-6,10,2,-4,-2
1511884040912681,-3,-5,-3,-11,-24,-2,3,1
1511884040935758,0,2,2,6,-8,1,1,2
1511884040935758,0,-1,2,26,19,-3,-4,-3
1511884040936737,-1,3,-3,-12,27,8,1,1
1511884040936737,-4,-4,-4,-14,-40,-8,-7,-6
1511884040949772,3,2,-5,-49,17,2,6,4
1511884040949772,0,3,2,16,-2,3,1,-1
1511884040950775,0,2,0,18,-16,-7,-5,-4
1511884040950775,0,-2,0,2,21,2,2,-1
1511884040972862,-1,3,1,15,5,-2,-5,-1
1511884040972862,1,-5,-4,-27,-27,-1,-1,-1
1511884040972862,-1,2,4,-3,-2,0,0,1
1511884040972862,-2,-2,-2,14,-8,-3,-1,-1
1511884040995898,-1,-1,0,-12,-1,-1,-3,0
1511884040995898,0,13,5,2,3,1,3,2
1511884040996399,-3,-12,-5,-34,-24,-3,1,-3
1511884040996399,4,8,2,20,3,4,3,3
1511884041009545,-3,-6,2,11,13,-3,-6,-3
1511884041009545,-5,-12,-16,-55,-40,-13,-4,-4
1511884041017544,2,6,1,2,2,7,10,-1
1511884041017544,4,5,2,7,2,1,-12,-2
1511884041032612,-2,0,-1,1,-31,-15,-2,0
1511884041032612,0,-1,-3,6,28,5,0,0
1511884041033618,3,1,-3,-12,-13,-8,-4,-1
1511884041033618,-3,-6,-3,-10,16,4,4,0
1511884041055672,4,4,2,42,-11,4,0,-1
1511884041055672,-5,-7,-4,-47,19,0,1,-4
1511884041056674,0,2,-3,-12,-21,-7,-3,-1
1511884041056674,1,1,3,15,25,6,3,2
1511884041069682,-5,-2,1,-6,-26,-4,-4,-2
1511884041069682,0,-1,2,12,4,-2,-3,-2
1511884041077702,-1,1,-1,4,-14,0,0,-6
1511884041077702,2,6,0,-24,-18,-9,-7,2
1511884041092748,-3,-7,0,-2,35,9,6,-1
1511884041092748,1,-2,-9,-12,-17,-8,-9,1
1511884041093250,-1,-8,-6,-18,1,0,-3,-1
1511884041093250,0,2,0,24,16,10,2,-2
1511884041115344,1,1,-1,-10,11,-2,1,3
1511884041115344,0,2,10,42,-4,2,6,4
1511884041116346,2,4,-2,-14,12,2,2,3
1511884041116346,-4,-7,-5,-11,-6,-4,-1,-5
1511884041129381,0,-1,-3,4,-8,-7,-7,-4
1511884041129381,0,-1,0,3,11,3,-5,-1
1511884041137402,-4,-3,3,22,-7,-2,0,2
1511884041137402,-2,-4,-9,-44,20,8,7,0
1511884041152472,0,1,0,5,-25,1,-1,-2
1511884041152472,0,2,3,14,17,2,3,0
1511884041153447,1,1,1,17,7,-1,-2,1
1511884041153447,-2,3,-1,-4,-4,-5,-1,-1
1511884041175506,-4,-13,-5,-12,1,2,-1,-2
1511884041175506,-1,-3,0,-11,-16,1,3,-3
1511884041176507,-2,-2,-1,-5,3,-1,-3,-2
1511884041176507,-1,5,10,33,-6,-5,-3,0
1511884041189572,1,5,3,-3,5,7,10,3
1511884041189572,-2,-4,0,12,3,-4,-8,0
1511884041197593,0,1,-2,-15,31,-8,-10,0
1511884041197593,0,-3,-4,-15,-17,-6,-3,-1
1511884041212727,0,1,-5,-22,-11,-1,-1,-2
1511884041212727,-1,-2,4,14,11,8,5,0
1511884041212727,0,2,1,36,-13,1,1,0
1511884041212727,-1,-8,-6,-13,-3,-2,1,1
1511884041235759,0,0,-1,5,33,-1,-4,-1
1511884041235759,-2,-2,-1,-13,-6,-7,-4,-3
1511884041236762,-1,0,0,-7,-28,-3,-5,-2
1511884041236762,4,3,-5,59,91,20,11,6
1511884041248822,-6,-1,14,-4,-32,-7,-3,-6
1511884041248822,2,2,9,48,16,0,0,2
1511884041257819,-4,-3,0,-2,14,-9,-2,-4
1511884041257819,-3,-6,-3,-15,33,0,-1,-1
1511884041272859,6,4,14,66,40,7,1,3
1511884041272859,3,-1,-7,-2,4,6,3,4
1511884041272859,-5,-4,-11,-44,-18,7,5,-2
1511884041272859,-1,5,6,-14,-21,-8,-8,-4
1511884041295950,-3,-16,-12,-20,2,7,14,5
1511884041295950,-2,-1,3,-15,-35,-29,-21,-9
1511884041296425,0,3,-1,20,16,1,-2,2
1511884041296425,-3,-4,-9,-39,-42,-5,-1,-1
1511884041308994,2,7,1,4,19,10,5,-1
1511884041308994,1,-5,-4,1,-5,10,11,1
1511884041317012,-1,-1,3,-48,-25,0,2,-2
1511884041317012,5,3,-2,13,59,10,4,5
1511884041332025,-5,-3,-10,-5,6,0,-6,-2
1511884041332025,1,5,3,-4,4,-1,3,4
1511884041333024,1,1,3,12,-9,-5,-5,-3
1511884041333024,-2,-9,3,6,-33,-4,-1,-4
1511884041356143,1,6,-4,-26,7,0,-2,-1
1511884041356143,3,12,3,-4,-9,-2,-3,-3
1511884041356143,-3,-13,-6,30,-16,4,5,1
1511884041356143,-4,-3,-6,-26,-13,-6,-6,-4
1511884041378147,0,3,-2,6,-3,-1,5,3
1511884041378147,0,-1,-2,-6,9,-6,-7,-3
1511884041379150,5,8,3,-1,4,1,5,3
1511884041379150,-1,-2,2,14,-17,2,1,-1
1511884041392686,-3,-3,-5,-17,-23,-15,-13,-6
1511884041392686,-3,-2,-1,8,10,13,11,0
1511884041393755,2,-2,-1,1,2,6,5,-1
1511884041393755,0,4,5,15,-3,-8,-9,-1
1511884041416282,-5,-4,-12,-44,-7,-2,-3,-6
1511884041416282,-6,-3,1,36,45,15,9,2
1511884041416282,-1,-6,-1,3,14,-14,-13,-2
1511884041416282,-1,3,7,22,11,1,3,-1
1511884041438312,-1,-3,-3,-18,2,-4,-7,-3
1511884041438312,-3,-5,-7,-34,-54,-6,-2,-4
1511884041439314,1,3,-4,-32,28,12,7,0
1511884041439314,-2,-2,3,-23,-24,3,2,1
1511884041452386,1,5,7,26,-13,-15,-11,0
1511884041452386,-3,-1,-4,19,-15,-1,1,-1
1511884041453351,-2,-16,-3,-5,4,-2,-2,-1
1511884041453351,2,0,2,6,-18,-4,1,2
1511884041475412,2,4,3,16,-1,5,2,-1
1511884041475412,3,6,5,-5,-44,-3,0,1
1511884041476411,-4,1,-1,-7,-12,-8,-8,-1
1511884041476411,-5,-2,-7,-20,-10,-6,-1,-1
1511884041498143,-1,2,5,29,18,4,-1,0
1511884041498143,2,-2,2,-12,43,0,-3,0
1511884041499146,-3,3,3,21,0,3,0,-2
1511884041499146,-1,-8,-4,18,-4,8,7,-1
1511884041512312,0,3,0,-5,-7,-5,1,4
1511884041512312,1,-5,-1,-7,5,-4,-9,-2
1511884041513194,-3,4,3,18,8,9,13,1
1511884041513194,1,-1,-3,-4,3,-11,-15,-3
1511884041535374,-1,-4,-3,-7,-13,3,5,-3
1511884041535374,0,-2,-3,4,11,-3,0,2
1511884041536248,4,4,3,13,-17,-6,-11,-2
1511884041536248,-4,-11,-6,-14,3,4,9,-1
1511884041558342,0,3,3,9,-2,-2,-3,1
1511884041558342,-2,-5,-4,-21,7,-6,-10,-4
1511884041559314,2,10,4,7,-6,3,4,1
1511884041559314,1,-4,-1,-3,11,-2,-5,-1
1511884041572346,2,1,2,3,0,-4,-1,3
1511884041572346,-3,-3,-2,5,-6,8,5,1
1511884041573380,-4,-3,-4,-9,16,-9,-7,-3
1511884041573380,0,3,-3,1,-8,0,-3,-1
1511884041595910,-4,-2,-3,11,15,2,2,-1
1511884041595910,1,6,2,-13,-4,8,9,-1
1511884041596411,0,4,0,24,4,-9,-3,6
1511884041596411,-1,3,3,-5,-9,-2,-2,-3
1511884041618023,-3,-17,-9,-15,-6,10,10,4
1511884041618023,0,-1,-2,22,-7,-8,-10,-4
1511884041618998,2,-2,-4,-12,-6,-3,0,-3
1511884041618998,3,11,3,-6,-12,-6,-4,1
1511884041632032,5,1,-8,-9,1,-1,-2,2
1511884041632032,-5,-9,-8,-19,3,5,4,-4
1511884041633035,-2,-4,-2,-18,11,1,-2,-1
1511884041633035,0,4,2,19,-13,-7,-2,-2
1511884041655122,-1,-2,6,-23,-22,0,-1,-3
1511884041655122,-1,-1,-8,-25,18,-4,0,1
1511884041656097,-1,3,1,-4,3,5,1,2
1511884041656097,-2,-3,7,47,16,8,12,4
1511884041678186,-3,1,-6,-22,-4,-17,-17,-7
1511884041678186,0,8,-1,-25,8,-7,-5,-1
1511884041679185,0,-2,-1,13,-20,-9,-4,2
1511884041679185,-1,-16,-6,-4,1,4,-1,1
1511884041692721,0,1,5,23,4,1,3,0
1511884041692721,0,0,-1,-3,-12,-1,-1,0
1511884041693199,-4,-2,-5,-22,-3,10,8,-6
1511884041693199,1,2,-2,-18,7,-7,0,6
1511884041715755,1,3,2,7,-35,-2,-2,-5
1511884041715755,0,-7,-3,-4,15,-7,-5,0
1511884041716758,0,3,7,17,31,2,-4,-3
1511884041716758,-1,1,-1,-7,4,-2,-4,-3
1511884041737814,0,0,-2,3,21,-3,-2,-2
1511884041737814,-1,4,6,13,-27,4,5,-1
1511884041738789,2,1,4,-6,-14,-9,-5,2
1511884041738789,-2,-5,-10,-8,29,-5,-2,-3
1511884041752853,4,15,9,34,1,2,4,2
1511884041752853,-6,-11,-8,-26,-5,3,-3,-3
1511884041752853,1,1,0,2,0,19,22,4
1511884041752853,1,5,7,17,-7,-41,-42,0
1511884041775918,-3,-1,1,-3,-2,5,4,-3
1511884041775918,1,0,0,13,-3,2,3,3
1511884041776896,0,-3,-1,4,0,5,-2,-4
1511884041776896,1,-1,-6,-51,-34,8,12,1
1511884041798506,-2,-3,-5,-3,28,-2,-8,-3
1511884041798506,2,1,-2,9,2,-3,1,3
1511884041798979,-6,-8,-4,6,12,-4,-4,-1
1511884041798979,-2,4,7,10,2,7,6,-2
1511884041812037,-1,-4,-6,-51,-20,-9,-6,-3
1511884041812037,-1,-1,5,23,14,6,6,7
1511884041813041,0,0,-5,-31,6,-9,-11,-1
1511884041813041,0,10,11,33,17,3,1,-2
1511884041835126,-4,-18,-10,-39,12,7,2,0
1511884041835126,-1,4,6,19,-1,4,6,0
1511884041836102,4,8,1,-12,-22,-4,1,1
1511884041836102,-2,-10,-2,1,-4,-1,-6,-5
1511884041858162,-1,-1,4,24,18,0,-1,0
1511884041858162,1,-1,-1,9,3,1,2,0
1511884041859189,-1,-3,-2,-14,4,3,1,3
1511884041859189,-2,3,1,7,-8,7,7,-2
1511884041872226,1,4,1,19,-9,5,9,3
1511884041872226,-4,-7,-7,-54,23,-16,-23,-5
1511884041873199,0,-5,-11,2,-38,-3,-2,-3
1511884041873199,0,-2,0,-6,13,2,4,3
1511884041894814,0,1,3,-2,-13,-2,0,-1
1511884041894814,2,1,-4,-3,26,6,4,4
1511884041895817,-4,-6,6,2,-41,-15,-10,-5
1511884041895817,-2,-4,-5,-23,0,2,0,-2
1511884041918406,1,-1,-2,9,3,1,0,2
1511884041918406,0,14,6,22,-17,-5,3,-2
1511884041918406,-4,-18,-3,5,6,-2,-5,-3
1511884041918406,3,8,4,18,-14,-1,6,3
1511884041931413,-4,2,1,-7,-5,-8,-7,-4
1511884041931413,-2,-5,1,10,-9,2,-1,-2
1511884041939435,1,10,-1,2,5,-8,1,0
1511884041939435,-2,-1,-4,-15,27,1,-11,-6
1511884041954502,3,2,6,51,16,5,2,4
1511884041954502,-2,0,-10,-58,-24,-4,-3,-3
1511884041955479,1,0,6,21,24,6,4,4
1511884041955479,0,-1,-6,3,-11,4,6,0
1511884041977536,0,3,9,17,-27,-10,-8,-2
1511884041977536,-1,-3,-3,-9,20,8,5,0
1511884041978538,-3,-10,-7,2,-12,8,6,-2
1511884041978538,-2,2,2,5,5,-16,-7,1
1511884042000647,-3,-1,-2,-21,-11,-1,-8,-6
1511884042000647,2,4,0,-7,-5,0,4,-1
1511884042001649,0,-3,0,5,18,5,1,-1
1511884042001649,-3,-2,-2,-10,-5,5,9,-2
1511884042014713,1,-4,-5,-10,-3,-2,-1,1
1511884042014713,2,4,8,25,-26,-3,-4,-1
1511884042015690,-2,0,-1,5,28,0,-2,-1
1511884042015690,1,-3,0,-1,-1,4,-1,-1
1511884042037749,0,-2,-1,13,21,2,5,5
1511884042037749,2,-3,-2,-7,-10,-3,-4,-4
1511884042038755,-1,4,1,0,13,-1,-1,1
1511884042038755,2,4,1,9,22,6,0,-1
1511884042060837,1,-2,1,-15,18,4,-3,-2
1511884042060837,-2,-2,-5,10,6,-11,-7,-5
1511884042061840,1,2,3,8,19,7,2,-2
1511884042061840,-2,1,-2,1,-14,1,1,4
1511884042074847,-2,-13,-5,-11,-18,0,-1,-4
1511884042074847,-4,-5,0,34,13,1,-5,0
1511884042075871,2,5,-5,-55,-9,-8,-4,-1
1511884042075871,2,2,2,-6,3,2,1,-1
1511884042098461,-3,-2,-6,-12,1,5,4,-1
1511884042098461,1,-1,5,12,-4,10,11,3
1511884042098939,-2,-1,0,11,-15,-24,-21,-3
1511884042098939,1,0,1,14,-4,1,1,-2
1511884042112031,1,3,-3,-34,9,-3,1,3
1511884042112031,0,2,-1,-12,-6,6,5,0
1511884042127071,-4,-4,-7,-9,-22,0,1,-3
1511884042127071,2,-2,3,9,-6,3,2,-2
1511884042135093,-1,-1,1,22,-9,-12,-6,2
1511884042135093,-1,-4,1,-2,0,-2,-3,-2
1511884042136095,3,-1,1,13,7,8,5,1
1511884042136095,-2,-3,-1,24,15,-5,-4,-2
1511884042158157,0,1,-7,-42,1,-1,2,-1
1511884042158157,0,1,1,16,-20,-5,-1,-2
1511884042159133,-1,8,6,3,15,1,0,0
1511884042159133,-4,-9,0,-1,-9,-3,-3,-3
1511884042172191,-2,3,-4,-20,2,3,3,0
1511884042172191,-1,-1,0,11,20,5,4,2
1511884042180188,2,0,1,5,23,0,-4,0
1511884042180188,0,2,2,7,-38,1,3,2
1511884042195279,1,2,4,32,13,-9,-8,-5
1511884042195279,-2,-10,-10,-30,-19,-6,-6,-2
1511884042195778,-1,0,1,21,-21,5,5,1
1511884042195778,-3,-5,-7,-7,-25,-1,-2,-4
1511884042216845,-2,-2,4,31,1,1,1,-1
1511884042216845,-2,2,-1,-4,6,-4,-5,-2
1511884042224839,-1,-1,-3,-8,-2,3,4,3
1511884042224839,3,1,1,-26,22,-1,-4,1
1511884042231884,3,0,0,9,-1,3,4,5
1511884042231884,-1,2,9,26,-2,2,-2,-3
1511884042239905,-1,-2,-2,5,15,-2,-2,0
1511884042239905,-1,-1,-3,-14,-3,-4,2,-1
1511884042253940,4,5,-5,1,36,14,8,1
1511884042253940,0,-4,-9,-32,-15,-6,-4,1
1511884042262940,-1,-2,2,19,5,0,-4,-3
1511884042262940,1,-1,-1,-34,15,4,2,1
1511884042277979,-5,-2,-2,-22,-50,-12,-8,-6
1511884042277979,3,1,-4,-9,56,9,7,5
1511884042278982,0,-4,3,16,8,0,0,-1
1511884042278982,-1,2,4,28,24,-2,-2,0
1511884042300565,-4,-2,-6,-48,7,-2,-1,-2
1511884042300565,3,-2,2,23,11,2,2,1
1511884042302571,0,0,-5,-28,-32,-4,2,-2
1511884042302571,0,0,-2,2,-17,-4,-1,-1
1511884042314728,0,2,8,25,3,-2,0,0
1511884042314728,-4,-5,-2,12,2,-3,-3,-3
1511884042322713,1,3,-1,2,7,2,0,2
1511884042322713,-5,-4,0,18,0,-2,-2,-3
1511884042338775,1,-4,-6,-3,1,0,0,1
1511884042338775,-2,-1,1,-18,-19,-3,-1,-3
1511884042339760,0,2,1,-3,-9,-1,0,0
1511884042339760,-1,-4,-5,18,-5,0,0,0
1511884042360818,-2,3,5,7,-5,0,0,-2
1511884042360818,-3,-2,3,9,-24,-6,-1,0
1511884042361821,-6,-4,-7,-31,3,-1,-3,-5
1511884042361821,-1,-2,6,10,12,2,3,1
1511884042374041,5,5,-7,3,19,3,-3,3
1511884042374041,-3,1,4,-12,-22,6,8,0
1511884042383876,-15,0,0,12,15,0,-1,-5
1511884042383876,6,-2,3,15,-22,-24,-22,-3
1511884042398616,25,2,-2,-21,16,8,14,12
1511884042398616,-12,-2,-3,0,-5,-4,-9,-7
1511884042400113,10,6,1,3,-6,6,9,-6
1511884042400113,4,-9,0,18,22,11,3,2
1511884042420945,-3,9,-12,-57,4,-8,-9,-3
1511884042420945,17,-1,5,8,21,16,23,17
1511884042421963,4,-3,-3,7,-13,-23,-12,9
1511884042421963,-5,2,-5,-11,14,0,1,-5
1511884042434011,-16,-8,4,29,-18,-2,-9,-14
1511884042434011,0,4,-3,-18,10,3,3,-3
1511884042442851,-3,-3,-4,-10,-16,-5,-10,-1
1511884042442851,1,-1,-5,-14,5,5,4,1
1511884042457891,-7,-3,3,8,-5,2,2,-1
1511884042457891,-6,-1,4,28,11,-3,-8,-5
1511884042459895,6,-2,-4,0,35,13,10,2
1511884042459895,-9,-6,-5,-16,-21,-12,-8,-2
1511884042480954,7,9,12,34,-2,4,4,4
1511884042480954,-1,-3,-2,11,-14,-5,-2,-3
1511884042481954,-2,-9,-8,-31,12,-1,-5,-5
1511884042481954,3,10,5,18,33,4,0,5
1511884042494497,-6,-5,0,9,6,3,0,-1
1511884042494497,-9,-10,-3,-5,-42,-16,-9,-10
1511884042503519,0,2,6,5,-12,-23,-29,-2
1511884042503519,-3,-1,-7,-45,-11,2,4,-5
1511884042518717,1,-5,0,34,54,7,6,0
1511884042518717,-1,4,-1,-13,21,1,-6,-1
1511884042519690,0,-1,-1,-30,2,18,16,2
1511884042519690,4,0,-9,-52,-48,-15,-6,5
1511884042540747,-6,-8,0,16,-34,1,4,-1
1511884042540747,0,8,0,-14,-4,-3,-5,1
1511884042541750,-1,-2,8,28,-6,1,5,-3
1511884042541750,-3,-4,-4,-14,-10,3,-1,-1
1511884042553779,5,1,1,-5,-15,0,-2,-3
1511884042553779,-8,-3,-7,-20,10,1,-2,1
1511884042570824,4,6,2,7,-5,1,2,3
1511884042570824,-4,3,2,19,21,14,10,-5
1511884042577843,-7,-9,-3,-3,-16,-7,-3,-4
1511884042577843,4,-2,1,16,20,-1,-1,-1
1511884042579848,-2,0,1,5,7,-1,-1,-1
1511884042579848,-1,0,3,25,33,20,11,0
1511884042600968,-1,-1,-8,-28,-56,-22,-15,-2
1511884042600968,2,-22,-19,-35,-8,-3,1,4
1511884042602468,1,2,9,5,-17,-1,7,4
1511884042602468,4,0,3,26,11,-1,-3,-5
1511884042615025,-4,3,8,34,16,4,4,5
1511884042615025,4,-1,-8,-4,16,7,5,2
1511884042622016,0,-2,-3,-2,11,9,5,0
1511884042622016,-2,2,0,-9,-24,-25,-17,-5
1511884042638086,2,-3,4,-4,9,7,8,1
1511884042638086,-2,5,3,-21,-6,-14,-15,-6
1511884042640092,-3,-1,-4,5,6,10,13,1
1511884042640092,-5,2,-2,-13,-9,-9,-7,-4
1511884042660118,1,-1,-2,1,14,-6,-9,1
1511884042660118,3,3,4,41,10,12,10,3
1511884042662123,-7,-5,-6,-11,-13,-12,-11,-13
1511884042662123,-3,-2,-13,-30,-17,-3,-2,1
1511884042675165,-4,-3,-3,8,6,1,1,-2
1511884042675165,-4,0,2,1,-11,3,10,-2
1511884042682203,1,1,3,19,-1,-10,-19,0
1511884042682203,-1,0,-6,-31,-21,0,9,2
1511884042698250,-5,-2,-5,-25,-8,-1,-6,-7
1511884042698250,-2,0,-2,-9,39,-14,-14,1
1511884042699753,-2,-6,-6,-5,3,3,1,0
1511884042699753,4,18,12,9,2,10,8,1
1511884042720941,-2,0,-3,-10,-10,-3,-3,-5
1511884042720941,2,-1,0,24,-8,-2,1,0
1511884042721944,5,-1,5,-4,-19,1,2,3
1511884042721944,5,-1,9,6,35,4,3,3
1511884042743000,-2,-3,-3,0,1,1,-1,-3
1511884042743000,7,13,25,56,-15,1,1,1
1511884042745006,0,-1,-10,-43,-12,-1,1,4
1511884042745006,-15,-33,-16,6,-16,-2,-5,-6
1511884042758072,10,31,18,8,-4,-6,-6,4
1511884042758072,-9,-27,-17,-6,7,8,3,-5
1511884042760045,4,39,27,19,-3,4,7,7
1511884042760045,1,-8,-5,-7,-15,-4,-4,-3
1511884042780098,9,-10,-1,-11,30,1,-1,5
1511884042780098,9,40,21,8,-16,2,8,11
1511884042782107,-5,-15,-9,-2,13,-15,-10,-8
1511884042782107,3,-5,-13,8,21,8,11,5
1511884042794696,-1,12,11,18,8,10,4,-1
1511884042794696,1,-6,2,-5,36,-9,-13,-2
1511884042803190,-12,-19,-12,21,0,7,10,-8
1511884042803190,1,12,1,32,19,-2,3,1
1511884042818274,-17,-42,-39,-82,-28,-16,-19,-15
1511884042818274,-4,-8,1,7,-5,9,6,-2
1511884042819277,-1,-2,-19,-18,42,6,2,1
1511884042819277,-5,-5,-3,3,-18,-8,-12,-8
1511884042840306,2,11,17,38,29,14,17,12
1511884042840306,-13,-9,-12,-28,-28,-8,-10,-9
1511884042842312,2,-7,0,-10,-18,-10,-11,2
1511884042842312,-1,-2,0,-20,-8,0,3,-1
1511884042854368,7,14,11,23,0,-1,2,1
1511884042854368,2,6,-3,-13,8,-1,-8,-1
1511884042863368,-6,13,9,15,-12,9,17,0
1511884042863368,0,-3,-4,-9,-8,-4,-14,-4
1511884042878408,-11,-6,-5,3,-6,-11,-4,-5
1511884042878408,0,-3,-5,-1,-16,-2,7,1
1511884042879413,3,-3,-2,6,18,13,-1,3
1511884042879413,1,8,8,-2,13,4,6,4
1511884042900995,-3,-4,-14,-8,-12,-6,-8,-3
1511884042900995,-7,-8,-11,-20,-12,0,0,-7
1511884042902503,-2,-10,-4,14,16,-5,-15,-4
1511884042902503,-4,-4,-2,-44,-32,-4,3,0
1511884042914076,2,0,1,13,28,9,7,2
1511884042914076,-1,-9,-16,-47,-24,-6,2,1
1511884042923101,2,6,5,20,-1,-1,1,-2
1511884042923101,1,12,9,9,-13,-9,-17,-4
1511884042938169,4,6,0,2,6,3,5,5
1511884042938169,0,3,6,-2,-2,0,-2,-1
1511884042940173,-1,-5,-1,0,-3,-4,-1,-3
1511884042940173,5,4,2,15,-12,12,20,6
1511884042960199,1,5,1,6,-12,3,2,1
1511884042960199,4,-9,1,8,-2,-8,-16,-3
1511884042962206,1,4,4,-6,-10,1,9,1
1511884042962206,3,6,-1,20,12,-9,-16,1
1511884042974263,4,-7,-1,5,-4,3,-5,-2
1511884042974263,-2,-3,-6,18,21,7,11,0
1511884042983261,7,27,9,-12,2,-4,-5,1
1511884042983261,-9,-8,-3,-8,-13,-1,4,-5
1511884042997804,1,-1,4,15,-1,2,-1,0
1511884042997804,3,11,5,-5,1,-1,-2,1
1511884043004321,1,-6,-2,13,39,10,6,3
1511884043004321,-6,-9,-9,14,17,-5,-3,-3
1511884043021030,-12,-12,-3,-7,-5,-7,-6,-9
1511884043021030,1,3,8,22,-7,7,5,2
1511884043022009,-7,-12,-8,14,-5,-20,-22,-8
1511884043022009,6,8,12,6,17,16,14,3
1511884043034050,0,-10,-11,-7,7,-12,-12,5
1511884043034050,-1,0,-12,-58,-1,4,0,1
1511884043043059,-5,-15,-4,-11,-12,0,3,-2
1511884043043059,3,10,-12,-13,-1,-1,-2,1
1511884043057121,0,2,2,-27,-15,2,8,1
1511884043057121,1,-3,-2,0,-10,-10,-4,-2
1511884043064130,3,2,-1,-7,16,4,1,2
1511884043064130,-5,-13,-4,-15,-29,-14,-8,-3
1511884043080149,0,1,5,17,-13,3,3,-2
1511884043080149,0,5,-1,-21,-17,-2,-1,1
1511884043082155,-6,-10,-4,-11,-4,1,9,-3
1511884043082155,2,-1,6,13,3,-14,-21,-3
1511884043094689,0,-2,-1,5,12,7,12,-1
1511884043094689,-2,-5,2,21,-28,-5,-8,-3
1511884043103715,1,1,-10,-35,-41,-12,-7,-2
1511884043103715,0,2,5,-11,7,14,12,6
1511884043117812,1,11,1,23,2,-5,-5,-4
1511884043117812,-2,-6,-1,-8,31,12,5,-2
1511884043123800,3,10,6,14,-22,-8,-6,4
1511884043123800,-3,-5,0,-2,-14,-8,0,-1
1511884043140874,-2,-9,-2,-2,-12,7,7,-1
1511884043140874,-1,7,4,32,15,-6,-8,-4
1511884043141861,2,-4,-1,3,10,-9,-10,1
1511884043141861,-2,-8,-4,2,24,11,7,-7
1511884043153908,-2,-1,-4,-33,-49,-27,-21,-4
1511884043153908,-2,0,0,4,-4,13,10,2
1511884043162915,2,-4,-1,13,2,9,5,4
1511884043162915,-1,-2,-1,12,-9,-11,-6,0
1511884043176943,2,-2,0,-8,14,13,11,2
1511884043176943,-2,-8,-1,16,-14,-7,-5,-1
1511884043183988,4,6,1,-5,-10,9,10,-2
1511884043183988,3,-14,-9,-23,3,1,-1,4
1511884043201035,-1,5,-1,1,-31,-10,-8,-4
1511884043201035,0,-4,-6,-57,-1,-4,6,2
1511884043202563,0,0,0,25,27,14,8,0
1511884043202563,0,6,4,-2,5,1,1,1
1511884043223119,-3,-2,3,15,18,-6,-5,-2
1511884043223119,1,2,1,8,12,0,1,-2
1511884043225137,1,3,-2,-30,-13,3,0,0
1511884043225137,-3,-13,-6,8,14,5,4,0
1511884043237183,0,5,7,26,6,5,7,3
1511884043237183,-1,5,-2,-26,-33,-11,-10,-5
1511884043244203,-4,-14,-4,29,14,-11,-2,-1
1511884043244203,0,5,4,-8,-7,4,3,-3
1511884043259215,-3,-3,-3,-16,8,1,-6,-1
1511884043259215,0,2,4,6,-25,-1,1,-2
1511884043268238,1,2,1,-7,2,-4,5,4
1511884043268238,-1,0,2,9,-15,-2,-6,-1
1511884043283305,-1,-1,3,14,9,8,8,0
1511884043283305,5,10,0,-6,-12,0,2,3
1511884043284311,-4,-4,-3,-34,-16,-11,-8,-7
1511884043284311,-3,-4,-3,16,7,5,4,0
1511884043297345,-1,-7,-7,-28,14,0,-3,0
1511884043297345,2,3,10,20,2,0,2,4
1511884043304364,-1,2,1,7,7,2,-3,-5
1511884043304364,-1,12,3,2,0,2,3,1
1511884043320955,-1,0,2,11,-1,-3,-3,0
1511884043320955,-5,-9,-10,6,21,1,-2,0
1511884043321959,-3,3,4,10,-15,4,3,-4
1511884043321959,1,0,0,-18,-9,-13,-9,0
1511884043343017,0,5,-6,-9,8,5,6,-2
1511884043343017,1,4,12,19,11,-3,-14,1
1511884043345023,-4,-6,0,11,10,-10,-8,-1
1511884043345023,4,12,6,2,10,1,4,0
1511884043357244,-2,-14,-7,-13,36,7,-1,-2
1511884043357244,-1,7,-2,-2,-17,0,4,-1
1511884043366075,4,11,3,-13,-6,4,-1,0
1511884043366075,-3,-15,-7,9,-12,0,1,-1
1511884043381172,-2,0,-4,-9,17,-1,-4,0
1511884043381172,-1,-8,-5,-4,-9,-7,-4,-2
1511884043382118,9,46,15,-1,-24,-4,-3,0
1511884043382118,2,-7,-3,-19,67,11,5,-1
1511884043403280,-3,-36,-18,-9,-38,1,8,3
1511884043403280,-3,25,6,30,10,3,0,-3
1511884043404785,6,-7,8,-47,-62,-17,-4,1
1511884043404785,-1,10,-4,5,-28,-5,-3,-3
1511884043416880,-5,-3,-11,5,-26,5,5,3
1511884043416880,0,-8,-10,-1,12,4,-3,2
1511884043425905,-7,-12,-5,-2,3,9,3,-6
1511884043425905,5,35,37,34,-30,-15,-8,-2
1511884043440971,7,71,29,37,0,-21,-18,-4
1511884043440971,-5,-13,-2,13,5,15,15,-2
1511884043441947,2,11,9,-10,-7,-7,-7,4
1511884043441947,1,-6,-7,-7,27,17,4,-3
1511884043463003,2,49,18,14,43,9,2,-3
1511884043463003,-16,-100,-47,-28,-35,-25,-10,-1
1511884043465008,-2,13,6,31,18,7,5,-3
1511884043465008,-2,1,-6,12,38,14,5,1
1511884043477040,0,-21,-17,-65,-35,-14,4,5
1511884043477040,12,58,25,40,33,-1,-12,-2
1511884043486064,-8,-27,-14,-8,0,19,11,-5
1511884043486064,-4,-14,-11,-22,-17,-36,-17,0
1511884043500606,2,-10,2,14,4,-1,-16,-4
1511884043500606,5,7,3,-7,13,11,16,3
1511884043502611,6,31,-3,-15,-10,-7,-8,6
1511884043502611,-22,-87,-42,19,-4,14,8,-8
1511884043522721,1,22,7,-8,-34,-10,-3,-2
1511884043522721,-8,-8,-10,-34,-8,-7,0,-6
1511884043524727,1,23,-4,-10,38,10,0,0
1511884043524727,3,13,18,-14,-36,5,8,5
1511884043545806,-8,-50,-13,20,6,-13,-15,-4
1511884043545806,0,-5,-5,-11,-61,-38,-19,-6
1511884043547812,-2,-8,-3,16,-5,3,4,2
1511884043547812,11,57,27,-7,-19,-3,-4,2
1511884043560842,-10,-64,-17,14,22,8,6,-3
1511884043560842,2,22,9,-17,37,19,12,0
1511884043561829,-3,-15,0,23,-28,-22,-16,-3
1511884043561829,-5,3,-4,14,2,-12,-5,-5
1511884043582881,3,16,0,-12,3,1,-1,2
1511884043582881,3,10,8,27,45,15,4,1
1511884043584887,-1,-9,-8,-20,-42,-9,-9,0
1511884043584887,-11,-26,-16,3,-25,1,4,-4
1511884043596921,7,33,11,-22,-14,-8,1,2
1511884043596921,-4,-6,-5,-15,33,3,-4,-5
1511884043605946,-3,-13,-5,5,3,10,9,1
1511884043605946,5,18,8,5,23,0,-1,1
1511884043621014,4,6,3,13,1,9,3,2
1511884043621014,-3,-28,-10,-2,-18,-16,-9,0
1511884043621989,-1,-2,1,-5,32,12,9,2
1511884043621989,0,11,-3,-16,-11,-2,-2,2
1511884043643069,-8,-5,-8,-18,10,16,10,-1
1511884043643069,0,7,-7,-29,-32,-14,-3,-3
1511884043645051,-3,-31,-7,21,-5,-8,-4,-1
1511884043645051,2,0,-6,3,17,0,-8,-3
1511884043657109,-2,-4,-4,-11,-25,-6,3,-3
1511884043657109,3,12,7,40,52,20,2,4
1511884043666133,-6,-7,-1,8,-10,-3,0,-3
1511884043666133,5,15,10,-7,-15,-3,-1,2
1511884043680167,-3,-2,-4,-8,15,7,0,0
1511884043680167,-2,0,7,6,-3,4,3,1
1511884043682149,-1,-3,-5,-28,13,1,0,-3
1511884043682149,1,4,4,7,13,8,0,1
1511884043703235,0,2,0,-2,-16,-6,-5,-2
1511884043703235,1,4,0,-13,13,-2,2,2
1511884043704738,0,3,3,6,23,1,-2,0
1511884043704738,-8,0,3,4,-27,-4,-7,-7
1511884043716284,1,-3,2,-11,-3,2,11,4
1511884043716284,3,11,3,-10,-1,13,5,2
1511884043725311,-1,-16,-10,13,9,-9,-14,-2
1511884043725311,1,5,0,-6,8,6,1,-2
1511884043740352,-1,5,2,38,14,0,-2,0
1511884043740352,-4,-2,5,19,-2,12,3,-4
1511884043742357,4,3,3,-14,15,-4,11,9
1511884043742357,0,4,0,-6,-12,-9,-10,-3
1511884043763409,3,3,7,8,-4,0,1,5
1511884043763409,-5,-4,-1,-8,18,-5,-1,-1
1511884043764389,-2,8,-1,-32,-18,-3,-6,-5
1511884043764389,3,0,-2,7,-2,10,6,3
1511884043776442,-1,-13,-1,2,7,-4,2,0
1511884043776442,-5,-8,5,34,7,-3,-3,-6
1511884043785445,1,7,3,33,58,8,2,-2
1511884043785445,-1,0,-7,-35,-60,-12,-5,-2
1511884043801017,0,7,5,-5,6,7,2,0
1511884043801017,2,-1,-1,-1,-19,-1,1,2
1511884043802522,-3,-3,1,-5,0,-6,-8,0
1511884043802522,-2,-2,3,5,17,17,14,-1
1511884043822578,-1,-3,-4,-40,-23,-25,-23,-3
1511884043822578,0,-2,0,1,-3,-4,1,1
1511884043824587,3,9,6,12,-9,-4,6,1
1511884043824587,-2,-7,-3,-11,-8,1,3,1
1511884043836615,-6,-5,-2,10,-1,11,-1,-8
1511884043836615,2,6,2,-5,59,-2,-5,-1
1511884043845651,0,2,4,20,-15,4,4,-1
1511884043845651,5,1,0,-15,12,4,5,4
1511884043860677,-1,1,0,24,-7,-7,-11,-5
1511884043860677,-6,-25,-18,-35,-11,3,6,2
1511884043862682,0,20,10,24,-8,-4,-5,-4
1511884043862682,-3,-23,-8,10,-23,-15,-5,-1
1511884043882736,2,21,4,-2,3,5,7,2
1511884043882736,3,11,5,21,-8,1,3,2
1511884043884741,-3,-14,-4,-3,-17,1,-2,-5
1511884043884741,0,12,7,29,31,-1,-4,1
1511884043896787,-1,0,-1,4,-3,-1,6,-2
1511884043896787,0,-3,-3,-24,-38,-13,-12,1
1511884043905799,5,13,0,10,-7,6,1,-1
1511884043905799,-8,-23,-2,24,9,-5,-6,-4
1511884043920868,4,7,-10,-54,-9,2,6,-1
1511884043920868,-3,-14,1,5,-9,-6,-6,-1
1511884043921872,-3,-1,-5,-14,-3,6,2,1
1511884043921872,0,8,0,-3,21,1,2,-1
1511884043942927,1,-11,8,32,4,-7,-8,-1
1511884043942927,0,7,-6,-26,10,21,9,-1
1511884043944906,-1,17,-3,22,14,-6,-2,3
1511884043944906,-9,-52,-19,-34,2,-17,-13,-7
1511884043956937,-3,6,-2,-14,35,14,3,-4
1511884043956937,0,2,3,3,-21,-10,-7,0
1511884043965961,-13,-50,-20,-32,7,5,4,-4
1511884043965961,3,20,-2,-45,5,11,7,1
1511884043979998,2,6,5,10,-4,-3,-4,0
1511884043979998,1,6,11,21,9,-3,-9,-5
1511884043987018,3,-3,1,-5,-16,-8,2,6
1511884043987018,1,10,-3,-37,-8,-3,-5,-2
1511884044003063,-2,-11,4,22,19,7,5,3
1511884044003063,4,21,6,21,-8,8,8,3
1511884044005072,1,-7,-7,33,-3,-7,-1,-1
1511884044005072,-1,3,-1,21,7,-1,-1,-1
1511884044016152,3,31,6,-25,-15,-4,-1,-3
1511884044016152,-11,-52,-31,-54,-11,-2,-1,-1
1511884044026160,3,11,17,23,14,5,3,0
1511884044026160,-1,-1,-3,0,-3,-1,1,0
1511884044040216,0,-2,-1,13,9,-1,-1,3
1511884044040216,11,55,20,25,-2,-6,0,2
1511884044046205,-14,-58,-20,-38,-8,-3,-4,-7
1511884044046205,1,20,6,14,-5,0,0,-3
1511884044063277,-4,-8,-1,11,4,-4,-3,-1
1511884044063277,4,2,4,1,-7,-1,-1,1
1511884044064252,-1,15,0,-4,-7,1,-3,-1
1511884044064252,3,10,5,12,15,1,0,2
1511884044076284,-1,1,-5,2,-16,-4,1,-1
1511884044076284,-5,-27,-9,5,45,3,-7,-4
1511884044085332,2,9,1,-7,16,4,-1,-2
1511884044085332,0,-5,1,11,-7,-2,-1,2
1511884044100374,-4,-14,-10,-10,-11,-3,0,0
1511884044100374,0,8,1,4,-11,-1,4,-1
1511884044106992,2,8,6,14,10,3,-1,0
1511884044106992,-2,-8,-4,-6,1,0,-1,-1
1511884044123036,2,3,2,12,3,0,0,0
1511884044123036,1,9,4,7,3,-1,-2,0
1511884044125070,-4,-11,-1,-13,-1,-5,-3,-2
1511884044125070,3,20,3,-9,-21,-3,2,1
1511884044137072,0,-5,-5,-17,-1,-2,-2,-1
1511884044137072,1,16,5,18,3,3,0,0
1511884044146098,-2,-10,3,3,14,4,1,-3
1511884044146098,3,7,-10,-55,1,2,3,3
1511884044160135,-6,-25,-10,-14,-17,-3,-1,-3
1511884044160135,-1,2,-2,-4,-13,-3,-1,-1
1511884044168167,1,11,5,-5,-8,-3,0,0
1511884044168167,0,12,9,47,13,2,1,2
1511884044183222,1,-15,0,36,2,2,1,0
1511884044183222,-1,-7,-7,-9,-14,-7,0,-3
1511884044184224,0,1,-3,-6,-4,-1,-1,-2
1511884044184224,-2,-11,-1,2,14,14,12,0
1511884044205785,0,11,11,7,-2,-19,-29,-8
1511884044205785,-1,-4,-4,-12,-1,-1,5,3
1511884044207290,-1,12,-1,-34,-25,-6,-2,-2
1511884044207290,-5,-16,-9,-36,-9,-4,-4,-3
1511884044220326,-2,5,1,25,9,8,9,0
1511884044220326,-3,-5,-1,9,-1,1,-1,-2
1511884044226364,2,5,1,17,-12,7,7,2
1511884044226364,2,-2,1,8,-3,-10,-11,0
1511884044243386,-4,-2,-1,19,9,-1,1,-1
1511884044243386,-3,-1,-2,-11,-10,-7,-4,-1
1511884044244389,7,17,7,-3,2,5,5,3
1511884044244389,3,11,9,26,4,2,1,0
1511884044265473,-11,-47,-11,-4,18,1,-2,-6
1511884044265473,-1,-6,-2,6,-6,-1,0,-1
1511884044267480,1,9,-3,-26,1,-1,-1,1
1511884044267480,4,8,10,58,32,1,-3,-1
1511884044279483,-1,5,-9,-65,-26,-5,1,1
1511884044279483,1,1,6,19,15,5,2,1
1511884044286502,-6,-5,-4,-11,2,-2,-4,-4
1511884044286502,-1,-2,-4,4,1,-2,-3,0
1511884044303075,2,12,-8,-24,-7,-1,2,1
1511884044303075,-4,-6,1,-7,-12,1,0,-3
1511884044305106,2,-2,-3,7,29,7,5,2
1511884044305106,-3,-10,-7,-5,-15,-19,-12,-2
1511884044325639,4,16,11,6,0,12,10,2
1511884044325639,-4,-3,-2,-17,-20,-23,-23,-8
1511884044327648,1,3,-1,12,3,-4,-8,-2
1511884044327648,-2,-8,-8,-41,-18,8,9,1
1511884044339746,2,-1,7,27,-3,5,5,4
1511884044339746,3,2,-4,-28,-21,-1,3,2
1511884044348741,-1,-4,-1,31,3,1,3,1
1511884044348741,0,4,3,-31,1,1,-3,-1
1511884044362737,1,9,-10,-56,0,13,14,2
1511884044362737,1,4,4,22,14,-13,-12,1
1511884044364743,-3,-6,2,14,-2,-11,-12,-4
1511884044364743,-2,-4,-2,14,-1,2,0,-1
1511884044385816,-1,1,0,6,-6,-2,0,-1
1511884044385816,-3,-3,-6,-1,15,9,8,-1
1511884044386826,1,-3,-6,-24,-8,0,-1,1
1511884044386826,0,1,7,44,9,-1,1,-1
1511884044399461,-2,-4,-5,-20,-4,-1,-5,-1
1511884044399461,4,14,10,16,-1,1,3,3
1511884044408119,-8,-16,-8,-9,-6,-1,0,-2
1511884044408119,1,3,3,23,9,2,0,-2
1511884044423219,3,11,-2,-21,-7,-8,-8,-1
1511884044423219,0,4,0,-17,5,5,3,0
1511884044425166,0,0,2,14,-3,-2,-1,-1
1511884044425166,-2,-3,4,3,2,1,3,-1
1511884044445262,1,1,5,17,17,1,1,0
1511884044445262,0,8,-2,-9,-25,8,6,-1
1511884044447227,3,-11,2,20,68,-1,-15,1
1511884044447227,-4,-9,-12,-6,-57,-14,-1,-3
1511884044459275,0,8,2,10,20,-6,-8,-3
1511884044459275,-3,-10,-4,-6,13,11,10,1
1511884044468284,1,6,8,16,5,25,26,2
1511884044468284,2,2,-3,-19,-8,-22,-25,-1
1511884044483322,0,8,2,9,0,-1,-1,-3
1511884044483322,0,-1,3,48,-5,1,3,0
1511884044484325,-5,-3,-6,-35,-13,-1,0,-2
1511884044484325,1,4,3,16,7,5,3,1
1511884044505890,-1,-2,1,-2,-13,-2,0,-1
1511884044505890,4,4,0,-14,18,-4,-6,0
1511884044507425,-4,2,0,-2,-38,-10,-5,-3
1511884044507425,-3,-8,-7,-12,5,9,7,-3
1511884044519460,-4,-5,-1,17,6,5,0,-1
1511884044519460,2,6,5,13,32,8,3,3
1511884044528481,-5,-29,-9,2,-8,-13,-9,-4
1511884044528481,2,7,-2,-41,18,6,3,0
1511884044543609,-1,-11,-3,-9,-20,-9,-8,-4
1511884044543609,-1,0,5,6,-6,-2,2,0
1511884044544524,2,12,-5,-42,-18,1,2,2
1511884044544524,-1,3,1,-27,-2,1,-2,0
1511884044565580,-2,-6,-4,23,10,1,1,1
1511884044565580,-4,-10,-6,-50,-14,-3,-2,-2
1511884044567587,2,13,2,-1,0,-3,-2,0
1511884044567587,2,-14,0,24,-4,2,5,3
1511884044579617,1,6,1,-5,3,-7,-3,5
1511884044579617,0,-4,-6,-8,-15,-9,-8,-5
1511884044588641,-1,-1,7,2,0,0,-1,-1
1511884044588641,2,9,-1,20,4,6,7,3
1511884044603182,-4,-15,-4,2,11,5,3,-2
1511884044603182,-3,-4,-5,-9,-2,-7,-5,-1
1511884044604686,0,5,-2,17,-1,-1,-5,-1
1511884044604686,1,6,-2,-27,-23,-1,1,-3
1511884044625114,3,-10,3,27,17,-7,-10,2
1511884044625114,-1,10,2,-6,-17,-8,-6,-3
1511884044627119,-5,-3,-8,-41,-19,1,1,-3
1511884044627119,-6,-19,-3,21,27,0,-2,-4
1511884044640153,0,3,4,7,-9,3,2,0
1511884044640153,1,-1,-4,9,-3,1,2,-1
1511884044647172,1,5,2,6,7,0,-4,0
1511884044647172,0,-1,2,5,2,4,6,1
1511884044663214,-1,-2,0,-7,-9,-4,-4,-1
1511884044663214,-2,-7,-2,7,22,-2,-8,-3
1511884044664219,-3,-8,-7,13,-24,-6,-1,-2
1511884044664219,-4,-1,-5,-23,3,-3,-4,-1
1511884044685303,-1,3,5,5,-22,-1,2,0
1511884044685303,-1,-3,-1,3,5,6,4,2
1511884044687280,-4,-2,-2,16,9,-3,-2,0
1511884044687280,1,3,0,-10,-1,1,2,0
1511884044699339,0,-1,0,21,1,-1,-1,0
1511884044699339,-4,-5,-1,-4,-13,-1,0,-1
1511884044708395,1,0,2,2,-1,-1,1,1
1511884044708395,-1,4,2,14,8,-4,-7,-3
1511884044723435,0,-1,-5,-28,10,4,3,-2
1511884044723435,-1,-3,3,16,-4,2,0,0
1511884044724438,2,2,-1,-17,7,-2,0,2
1511884044724438,1,2,4,30,-1,3,2,0
1511884044745516,-2,-5,-3,-10,6,-6,-3,-6
1511884044745516,-1,10,6,-2,0,2,-2,-2
1511884044747522,-1,-14,-9,4,12,3,2,-1
1511884044747522,-2,4,-5,-39,-19,-7,-7,-1
1511884044759550,-1,2,0,-22,-31,-5,1,1
1511884044759550,0,-3,-3,6,12,6,7,1
1511884044768581,4,14,16,28,5,3,5,4
1511884044768581,-4,-18,-11,0,-13,-14,-21,-9
1511884044782615,1,7,3,4,3,4,5,2
1511884044782615,2,-3,-6,-3,-8,1,6,0
1511884044789637,2,4,2,11,-4,-7,-6,0
1511884044789637,0,0,0,-27,4,9,9,3
1511884044805680,-1,-1,-1,-1,-2,-4,-8,-3
1511884044805680,-3,-8,-7,-15,-7,4,5,-1
1511884044807169,1,2,1,-5,-5,-6,-6,-2
1511884044807169,-1,2,6,14,20,-2,-1,0
1511884044818740,-1,-10,-9,1,-48,-7,1,0
1511884044818740,2,8,5,10,3,-1,-4,-1
1511884044827742,-5,-18,-9,-19,6,1,1,-3
1511884044827742,0,4,0,-10,-7,0,0,1
1511884044842795,0,1,-6,-19,-11,3,7,1
1511884044842795,-7,-19,1,16,13,-9,-9,-2
1511884044844805,3,9,5,1,-33,3,2,0
1511884044844805,2,-1,-1,-2,-5,-2,3,-3
1511884044865867,-1,2,7,7,17,14,11,0
1511884044865867,0,-3,-10,-2,2,-17,-16,1
1511884044866846,-5,0,0,2,-3,-3,-6,-3
1511884044866846,2,-1,-1,25,14,8,6,0
1511884044878904,1,-2,-4,-29,19,2,1,0
1511884044878904,1,3,7,24,-9,5,5,2
1511884044887902,0,0,-2,-6,-4,-1,0,-1
1511884044887902,-1,2,2,27,23,1,-3,-1
1511884044902473,-3,2,-5,-19,0,-3,-4,0
1511884044902473,-2,-5,-4,-13,-43,-7,2,-5
1511884044909583,1,2,2,14,19,-5,-4,0
1511884044909583,-2,2,-1,-14,-1,-1,-4,-1
1511884044925628,-3,-1,-1,16,13,-5,-14,-5
1511884044925628,3,2,1,8,-2,14,24,7
1511884044927603,0,1,-2,-12,-1,-21,-29,-8
1511884044927603,0,-2,3,25,5,9,14,1
1511884044939662,-2,6,3,-1,-10,-7,-14,-3
1511884044939662,0,-15,-4,-19,18,3,0,1
1511884044948660,2,3,-2,10,5,20,21,4
1511884044948660,-5,2,-3,-15,-7,-12,-18,-7
1511884044962723,-2,-13,-3,15,-24,-5,0,0
1511884044962723,0,8,8,19,31,7,-1,-1
1511884044968750,-2,-3,-5,-42,5,1,4,0
1511884044968750,1,-4,0,4,-21,-1,2,-1
1511884044985788,-1,10,1,-19,5,1,5,1
1511884044985788,2,2,-5,-13,-19,-5,-6,0
1511884044986762,-1,-3,4,26,15,3,1,-1
1511884044986762,2,3,-2,2,-16,1,1,2
1511884044999353,1,-4,-2,-35,6,-6,-5,-2
