timestamp,emg1,emg2,emg3,emg4,emg5,emg6,emg7,emg8
1511884767726511,-2,-1,2,4,-1,-1,-2,-2
1511884767726511,0,0,4,1,-1,0,-1,0
1511884767727512,-1,0,2,3,0,1,-2,-2
1511884767727512,-2,0,2,-3,-4,-2,-1,-3
1511884767730678,0,0,-2,2,2,0,2,1
1511884767730678,-1,-1,-2,1,1,-1,-1,0
1511884767732664,1,1,1,-1,-1,0,0,0
1511884767732664,0,0,-1,3,1,-1,-1,-2
1511884767744698,0,0,2,-6,-7,-2,-2,-3
1511884767744698,-2,-3,-13,-11,-4,-1,-3,-4
1511884767754870,0,1,3,0,2,2,2,0
1511884767754870,0,0,4,11,8,2,1,0
1511884767759883,0,0,2,3,1,1,-1,1
1511884767759883,0,-4,0,-2,-5,0,0,-1
1511884767774918,-1,-4,-11,-7,-3,-3,-1,-1
1511884767774918,1,-2,-4,-11,-4,0,1,0
1511884767783957,-1,0,4,8,4,-1,0,0
1511884767783957,-1,4,1,5,3,-3,0,0
1511884767790963,-1,-2,-8,-6,-2,-3,-1,0
1511884767790963,-1,-1,2,4,1,-1,-1,-2
1511884767805117,0,-3,-1,-3,-4,1,-1,-1
1511884767805117,-1,0,-1,-2,-3,-2,0,-1
1511884767815239,0,0,7,3,0,1,0,-1
1511884767815239,-1,2,-1,0,2,1,-1,0
1511884767844273,1,-2,-4,1,-1,0,0,2
1511884767844273,0,-1,4,3,1,0,0,-2
1511884767851329,0,-2,-1,5,-2,-1,0,-1
1511884767851329,0,-2,-4,-8,-7,-1,2,-1
1511884767853296,-1,-4,-8,-10,-4,-3,-3,-1
1511884767853296,-2,-2,-3,-7,-3,0,-2,-1
1511884767854296,0,3,3,5,4,1,0,0
1511884767854296,0,-1,5,5,1,0,-2,-1
1511884767864325,-1,0,3,3,-1,1,2,-1
1511884767864325,-1,0,-3,-1,-3,-1,0,-3
1511884767873357,0,1,3,3,-3,-1,0,0
1511884767873357,0,-1,-4,-3,-5,-1,-1,0
1511884767879365,-2,0,-4,-1,0,-3,-1,0
1511884767879365,0,-2,-3,2,2,2,0,0
1511884767894530,-2,-1,-8,-10,-1,-2,0,1
1511884767894530,-1,1,7,3,-1,1,-2,-1
1511884767902424,0,-2,-1,2,2,1,0,-1
1511884767902424,0,-1,2,6,2,-1,-1,0
1511884767911451,0,-4,0,-5,-4,0,-3,-1
1511884767911451,-1,-2,-5,-2,3,-2,-1,0
1511884767924483,-1,-1,-3,-8,-2,-2,0,-2
1511884767924483,-1,-2,3,5,0,0,1,2
1511884767933507,-1,1,1,2,-1,-1,-1,-1
1511884767933507,0,2,-2,-11,-5,-1,-1,0
1511884767939622,-1,1,10,14,4,-1,-2,0
1511884767939622,1,0,-5,-5,-7,-1,-1,-2
1511884767954759,-1,-3,-13,-19,-7,0,0,-1
1511884767954759,0,-1,0,1,1,-1,0,-2
1511884767961583,-1,1,0,3,2,2,-1,-1
1511884767961583,1,-1,3,3,2,-1,-2,-1
1511884767970773,-1,-2,1,8,1,0,0,0
1511884767970773,0,-1,-5,-3,0,0,-1,1
1511884767984836,-1,0,4,1,0,1,-1,-1
1511884767984836,-2,1,-3,-5,-4,-2,1,0
1511884767993666,0,-2,1,4,-2,-3,-2,-2
1511884767993666,0,0,0,-1,-3,-1,0,-2
1511884767999685,0,-3,-9,-5,-1,-3,-2,-2
1511884767999685,1,-1,-2,-10,-4,1,-1,1
1511884768014767,0,2,7,8,7,2,0,1
1511884768014767,-1,-1,2,6,5,0,0,1
1511884768021868,0,0,2,0,-7,-3,0,0
1511884768021868,-2,-3,-5,-6,-2,-3,-1,0
1511884768030765,-2,-2,-6,-4,0,-1,-2,-1
1511884768030765,-1,-2,-4,-3,-2,-1,0,0
1511884768044850,0,0,-1,-3,-1,-1,1,-3
1511884768044850,0,1,1,5,5,-1,2,1
1511884768053833,1,1,8,2,-2,1,1,1
1511884768053833,0,0,3,7,1,-1,-1,1
1511884768059987,-1,-1,-12,-8,-1,-4,-2,-3
1511884768059987,0,-4,-3,-4,-2,-1,-3,-1
1511884768075010,0,-1,-2,-3,-3,1,1,0
1511884768075010,-1,-3,1,3,0,-1,-1,-2
1511884768081986,2,1,7,5,2,3,-1,2
1511884768081986,0,0,-4,3,3,-1,-1,2
1511884768091233,2,-1,0,1,-1,-2,0,1
1511884768091233,-2,-1,-2,-4,-2,-2,1,-1
1511884768104455,1,-1,-3,-10,-8,-2,0,-2
1511884768104455,-2,-3,-1,-5,-4,-2,-1,-1
1511884768113290,0,-2,-7,-10,0,-2,-2,-3
1511884768113290,2,1,2,10,4,0,2,0
1511884768119306,-2,0,6,9,3,-2,-1,1
1511884768119306,-1,-1,0,0,-1,1,-1,-1
1511884768134349,-3,-1,-7,-7,-5,-2,-1,-1
1511884768134349,-3,-2,4,-3,-1,1,-3,-3
1511884768142371,0,-3,-4,-2,-1,-1,1,0
1511884768142371,-1,2,0,-2,-1,0,-1,0
1511884768156532,-3,0,-7,-3,0,-2,-2,0
1511884768156532,-2,1,0,-2,0,0,0,-2
1511884768164554,0,3,8,6,1,2,0,0
1511884768164554,-2,-2,3,2,-3,-1,0,-2
1511884768173617,-2,-3,-3,-4,-4,1,-2,-5
1511884768173617,-1,0,-5,-1,2,-2,-2,1
1511884768179590,0,-1,-4,-2,-2,0,-1,0
1511884768179590,0,-1,3,2,-1,-1,0,1
1511884768194633,0,1,7,9,8,0,1,0
1511884768194633,0,-2,-5,-5,-5,-2,-2,0
1511884768201842,1,-1,5,4,-1,1,0,0
1511884768201842,-1,-1,-10,-9,0,-3,-2,-2
1511884768216828,-1,-2,0,0,-2,-1,-2,-1
1511884768216828,-1,0,-1,-5,-4,0,-1,0
1511884768224852,0,1,-1,-1,4,0,-1,0
1511884768224852,0,2,7,9,3,1,-1,1
1511884768233878,-1,-1,3,4,1,1,1,0
1511884768233878,1,-2,-7,-2,-5,-1,-1,1
1511884768240010,-2,-3,-1,-9,-7,-3,-1,-2
1511884768240010,0,-1,-2,1,1,-2,0,-2
1511884768255021,-3,-3,-8,-10,1,0,-1,0
1511884768255021,-2,0,-1,-4,-1,-1,1,-1
1511884768262135,-1,0,0,-2,1,2,1,1
1511884768262135,-1,2,7,11,0,-3,-5,-2
1511884768277140,1,2,2,5,1,0,0,0
1511884768277140,0,-1,-3,-3,7,1,0,-2
1511884768285162,-2,-1,-6,-5,-6,-2,-1,0
1511884768285162,0,-2,-1,-7,-2,0,-2,-2
1511884768293183,1,1,1,3,-6,-3,0,-2
1511884768293183,-2,0,4,5,3,-1,-1,1
1511884768299252,0,0,0,7,5,1,-1,-1
1511884768299252,-1,-2,-9,-13,-6,1,1,-2
1511884768314289,1,-1,-2,-7,-2,-2,0,0
1511884768314289,0,1,0,-2,-1,-1,0,0
1511884768322263,-1,1,7,5,0,-1,-1,0
1511884768322263,1,0,3,8,6,0,0,-2
1511884768337302,0,-3,-1,-3,-6,-1,0,0
1511884768337302,-2,0,-7,-7,-1,-1,-3,-3
1511884768344320,-1,2,-2,-3,-3,1,0,-1
1511884768344320,-1,-1,-3,0,4,3,2,0
1511884768353595,-1,0,6,8,2,-1,-2,0
1511884768353595,1,0,6,5,-1,0,0,-1
1511884768359722,-1,-3,-12,-14,-4,-2,-1,-1
1511884768359722,-1,-1,2,1,0,-4,0,0
1511884768374640,1,-1,4,0,-3,0,0,0
1511884768374640,-2,-4,-3,1,-3,0,1,0
1511884768381738,-2,-2,-5,-8,-2,-2,-1,-3
1511884768381738,-2,-1,-4,-5,-3,1,0,1
1511884768396702,-2,1,3,5,5,0,0,0
1511884768396702,-1,-1,3,2,-1,0,1,-1
1511884768404922,1,0,6,4,-1,-2,0,-2
1511884768404922,-2,-1,3,4,1,0,1,0
1511884768413870,-1,-1,-5,-2,4,1,2,-3
1511884768413870,0,-2,-3,-9,-9,-3,-2,-1
1511884768419763,-2,0,-3,-5,-1,0,-1,0
1511884768419763,-1,-1,-5,-2,-3,-2,-2,-2
1511884768434843,-1,1,2,0,3,2,0,0
1511884768434843,1,0,1,3,5,0,2,-1
1511884768441861,-1,-2,-2,-3,0,-3,-2,0
1511884768441861,2,1,7,7,3,-1,-1,0
1511884768456868,0,0,1,5,0,-1,-3,-2
1511884768456868,-3,-4,-6,-13,-6,0,-2,-2
1511884768464920,0,0,-3,1,0,-1,-1,-1
1511884768464920,-2,0,-7,-6,-2,-1,-2,-1
1511884768473999,0,-1,-3,-5,-3,0,1,-2
1511884768473999,2,2,4,7,2,-2,0,1
1511884768488071,0,-1,4,3,-1,2,1,0
1511884768488071,-1,-1,0,4,4,-3,-3,-1
1511884768494043,0,2,5,2,2,0,-1,0
1511884768494043,0,1,2,4,-7,0,0,2
1511884768502065,-1,-4,-14,-15,0,-1,-2,-1
1511884768502065,-1,-3,-6,-9,-9,0,-1,-1
1511884768517163,0,-3,-2,1,4,1,0,1
1511884768517163,-1,1,4,4,3,-2,-3,-2
1511884768524243,-1,1,3,10,2,0,1,-1
1511884768524243,2,2,4,3,0,2,0,0
1511884768533169,1,0,-1,2,1,-2,0,0
1511884768533169,-2,-4,-3,5,1,0,-2,0
1511884768548207,-1,-2,-7,-9,-2,0,-2,-1
1511884768548207,-3,-2,-7,-14,-6,0,-2,-2
1511884768554380,-4,-2,0,0,-5,-2,-2,0
1511884768554380,1,4,3,9,8,0,1,1
1511884768562309,-2,1,6,10,0,-2,-1,1
1511884768562309,-2,-4,1,-4,-2,0,-2,0
1511884768577372,0,-3,-14,-16,-6,1,0,0
1511884768577372,0,-2,3,0,-2,-2,-1,-2
1511884768584475,1,-1,1,4,4,-1,0,-1
1511884768584475,0,0,-1,-2,-1,0,0,-1
1511884768593393,-2,-1,3,1,0,-1,-3,0
1511884768593393,-1,-2,-4,-8,-5,0,1,0
1511884768607428,0,0,3,5,3,-1,-1,0
1511884768607428,0,0,5,1,-5,1,2,0
1511884768614447,-1,-3,0,0,-2,0,-3,0
1511884768614447,-1,-4,-10,-11,-2,-1,1,-1
1511884768622466,-2,2,-1,-1,1,1,-1,-2
1511884768622466,0,1,-1,3,4,0,1,-1
1511884768645622,2,1,-1,-2,-4,-2,-1,-1
1511884768645622,-2,0,3,1,-1,0,-2,-2
1511884768645622,-1,-3,2,1,-1,-1,-1,0
1511884768645622,0,0,10,14,4,-2,-2,-1
1511884768653548,-1,-4,-14,-17,-6,-3,0,0
1511884768653548,2,0,-3,-1,-2,-1,-2,0
1511884768667933,0,-2,-11,-14,-5,2,0,1
1511884768667933,0,2,7,8,2,1,-1,0
1511884768674769,0,0,10,8,5,0,-3,-2
1511884768674769,-3,-3,-9,-10,-3,-2,-2,-2
1511884768682123,-1,-1,-2,-2,-2,0,0,0
1511884768682123,0,2,2,-1,-2,1,0,0
1511884768696967,0,1,5,12,3,0,2,1
1511884768696967,0,0,0,-3,0,0,-1,0
1511884768705079,-1,0,0,4,0,-1,-2,1
1511884768705079,-3,-6,-10,-9,-3,-4,0,-1
1511884768713247,0,0,3,1,-2,0,0,-1
1511884768713247,0,-1,-2,3,6,2,0,0
1511884768727287,-1,-1,9,3,-4,0,-1,-2
1511884768727287,-1,-4,-9,-2,0,-1,-3,-1
1511884768734407,-2,-2,-8,-8,-3,-2,-1,-1
1511884768734407,0,2,4,3,0,-1,2,-2
1511884768742327,2,4,7,15,6,1,0,2
1511884768742327,0,0,11,0,-1,-1,0,-1
1511884768757365,-2,-1,-9,-6,-3,-2,1,-2
1511884768757365,0,-1,-4,-3,2,0,-3,-1
1511884768764425,-1,-3,-4,-7,-6,0,-1,-1
1511884768764425,-2,2,3,3,-2,-2,0,1
1511884768773407,1,1,0,1,2,2,1,0
1511884768773407,-3,-5,-8,-13,-7,-2,-2,1
1511884768787486,0,-2,3,-1,1,0,0,-3
1511884768787486,1,1,4,5,2,-1,-2,-2
1511884768794466,-1,-1,4,2,-2,-2,-1,-3
1511884768794466,-1,0,2,-2,4,1,0,-2
1511884768801481,-1,-3,0,2,-2,-4,-1,-2
1511884768801481,-2,-3,-10,-16,-10,-1,-2,-2
1511884768816525,-3,-3,-12,-9,2,-1,-3,-2
1511884768816525,1,-1,6,8,0,0,-1,1
1511884768824546,0,2,5,0,-1,-1,1,0
1511884768824546,1,3,6,15,8,2,0,1
1511884768839805,-1,0,0,-1,-2,0,2,0
1511884768839805,-1,-4,-7,-7,-2,-1,-1,-1
1511884768847743,-1,1,-5,-11,-4,-3,-2,0
1511884768847743,1,-1,1,1,-2,1,-1,0
1511884768863001,1,2,7,14,2,1,0,1
1511884768863001,1,-3,-9,-7,-7,-3,-1,-2
1511884768863001,-2,-4,-8,3,7,5,2,-2
1511884768863001,1,-3,-4,-5,-4,-3,-3,0
1511884768877035,-3,3,0,-7,-3,-1,-1,0
1511884768877035,0,0,2,11,2,0,-1,-2
1511884768885098,1,0,-1,-2,-1,-2,0,-1
1511884768885098,-1,-1,-2,-1,1,0,1,0
1511884768899122,0,1,2,5,0,1,0,1
1511884768899122,0,3,6,4,0,-2,0,0
1511884768908222,-1,-4,-3,-6,-2,0,-1,-1
1511884768908222,-1,-1,-3,0,-2,-1,-1,0
1511884768923189,1,-2,5,-3,1,1,0,-2
1511884768923189,-1,-2,-4,0,-2,-1,0,1
1511884768923189,0,1,4,8,3,0,-1,-2
1511884768923189,-3,-1,-7,-11,-6,-3,0,-3
1511884768937407,1,-2,-4,0,-3,-1,1,-1
1511884768937407,-2,-1,0,-9,-1,-2,-3,0
1511884768944339,-1,2,2,2,0,0,-1,-1
1511884768944339,0,-2,6,6,-2,0,2,0
1511884768959285,-2,-3,-11,-8,5,0,-1,0
1511884768959285,-2,0,-3,-3,0,-2,0,0
1511884768967308,1,0,1,0,-5,-3,-2,-1
1511884768967308,1,-1,-1,-4,-3,-1,0,1
1511884768982443,-1,1,7,12,2,-1,-2,-1
1511884768982443,1,2,3,4,2,-1,-1,2
1511884768983347,-2,-1,2,5,-1,-1,-1,0
1511884768983347,-4,-5,-10,-8,-1,-1,-1,-3
1511884768997386,-2,-4,-5,-8,-5,-4,0,-2
1511884768997386,-2,-1,2,-1,-2,1,1,-3
1511884769004586,-1,3,2,-1,-1,-1,-3,0
1511884769004586,0,2,4,7,4,0,-2,-1
1511884769019444,0,-2,4,8,1,-1,-2,-1
1511884769019444,0,-2,-4,-6,-3,1,0,1
1511884769027467,-2,-4,-13,-17,-4,-1,-2,-1
1511884769027467,1,0,-2,1,1,-2,-2,-1
1511884769042504,0,1,2,-5,-2,-2,0,-2
1511884769042504,2,3,16,17,-1,2,2,0
1511884769043506,0,-3,-4,3,3,1,0,0
1511884769043506,-4,-6,-18,-17,-5,-2,-1,1
1511884769056726,0,-1,-5,-11,-3,3,0,0
1511884769056726,-1,-1,6,7,4,-1,-2,-2
1511884769064566,0,-1,-1,3,-3,0,-1,-4
1511884769064566,0,0,5,4,3,2,-1,0
1511884769079694,-1,-1,-3,1,-6,-2,-4,0
1511884769079694,-2,0,1,-3,-1,1,-1,0
1511884769087624,-1,0,-1,-4,-4,-1,0,0
1511884769087624,-1,-1,-5,4,8,2,2,1
1511884769102664,0,-2,-1,1,10,1,-2,0
1511884769102664,-1,0,-2,-6,-4,-2,-1,-3
1511884769103666,-2,0,5,9,3,1,2,1
1511884769103666,0,0,5,-2,-10,-3,3,0
1511884769116701,-2,-1,-10,-10,-7,-4,0,-2
1511884769116701,-1,-2,-4,-6,1,0,2,-1
1511884769124722,0,-3,-8,-9,-4,0,-2,0
1511884769124722,0,0,7,7,6,0,0,0
1511884769139764,0,2,6,4,-1,-2,-1,-1
1511884769139764,0,1,2,8,2,-1,-2,0
1511884769147802,-2,-3,-5,-8,0,-3,1,-2
1511884769147802,0,-1,-6,-9,-4,-1,-2,0
1511884769162849,0,-2,2,3,0,0,1,0
1511884769162849,1,-2,-2,-2,-4,-3,-1,-2
1511884769163946,0,2,2,3,4,2,1,1
1511884769163946,-1,-2,0,6,2,-3,-3,-2
1511884769176986,0,-2,3,5,0,-1,-4,-1
1511884769176986,0,0,-7,-14,-8,-1,0,-1
1511884769184882,1,0,2,3,2,2,-1,1
1511884769184882,0,0,0,-1,-4,-2,0,-1
1511884769200066,-1,-1,-2,-2,-1,0,4,-1
1511884769200066,-1,-3,-1,2,0,-2,-5,0
1511884769207208,-1,-4,-1,1,5,-3,-4,-1
1511884769207208,-3,-1,-1,-4,-6,-1,-2,-1
1511884769223171,0,-3,-2,1,1,-1,-1,-2
1511884769223171,-2,2,-4,2,5,1,0,0
1511884769223171,-2,-2,-4,-8,-3,-1,-3,0
1511884769223171,-2,-1,0,-1,1,3,2,1
1511884769237499,0,1,3,2,-4,-3,-3,-2
1511884769237499,0,-5,-4,-3,-1,-3,-1,-1
1511884769244308,-2,-1,-5,-8,-11,-3,0,-1
1511884769244308,1,-3,-5,-5,7,-1,0,-1
1511884769259543,1,0,5,3,0,1,0,1
1511884769259543,-1,0,-1,8,4,0,0,2
1511884769267572,0,2,1,-4,1,2,-1,-1
1511884769267572,1,3,3,2,-4,-2,-3,-1
1511884769282410,-3,-2,-7,-3,-1,2,2,-1
1511884769282410,-1,-2,-2,2,3,0,0,-1
1511884769283409,-2,0,3,4,-1,-2,1,-1
1511884769283409,0,2,0,-1,-1,1,0,-1
1511884769297475,-2,-1,1,1,0,-2,0,1
1511884769297475,-1,-1,0,0,0,0,1,0
1511884769304614,1,-4,-3,-2,-5,0,0,0
1511884769304614,1,-1,2,2,2,0,-1,-1
1511884769319630,0,-1,-1,-5,-4,-2,-3,-1
1511884769319630,0,0,0,2,2,2,-2,1
1511884769326863,0,2,-3,-4,0,1,-2,-1
1511884769326863,0,-1,-1,-4,-3,-1,1,-1
1511884769342909,-2,-1,2,4,4,-1,-3,0
1511884769342909,-1,-2,0,-6,-10,-3,1,1
1511884769343936,1,0,1,4,1,0,-3,0
1511884769343936,1,2,15,17,6,2,2,-1
1511884769357057,1,-2,-8,-8,-5,-3,0,-1
1511884769357057,-3,-5,-11,-22,-9,-2,-1,-1
1511884769364966,-3,-2,-2,-2,-1,-3,1,-1
1511884769364966,-1,-1,-4,-4,-2,0,0,-1
1511884769380004,0,2,8,9,2,0,2,0
1511884769380004,-2,2,4,9,7,0,-1,0
1511884769387138,1,-1,0,-1,-3,0,1,-1
1511884769387138,1,-1,-2,-1,-2,1,-1,2
1511884769402186,-2,-1,0,0,1,3,0,-1
1511884769402186,-1,-2,-2,-6,-7,0,-2,-1
1511884769403188,-1,-3,-2,-1,0,-1,-2,-1
1511884769403188,0,0,-3,-1,3,0,-2,-2
1511884769417531,0,-1,3,-1,-1,-1,-1,1
1511884769417531,-1,0,2,3,0,-3,-3,-1
1511884769424382,0,-4,-9,-8,-3,1,0,-1
1511884769424382,-2,0,-5,-12,-7,-2,-1,0
1511884769439502,-1,-3,-3,0,1,3,1,0
1511884769439502,0,1,4,7,2,-2,-1,-1
1511884769447621,-1,0,4,9,1,-4,-2,1
1511884769447621,-2,-2,-8,-5,4,-1,0,0
1511884769461545,0,2,-3,-8,-7,-2,-2,-1
1511884769461545,0,-1,1,1,-1,1,-2,-2
1511884769470721,-2,0,1,4,0,-2,3,-1
1511884769470721,0,-1,-2,-1,-1,-3,-1,-1
1511884769476716,-1,0,-3,-1,-3,-1,0,-1
1511884769476716,1,1,-3,1,0,1,0,0
1511884769484848,0,1,0,0,-2,-1,-3,1
1511884769484848,-1,0,0,2,-1,0,-2,-1
1511884769499778,0,-2,0,0,-1,-1,1,1
1511884769499778,0,-2,-3,-2,0,0,-2,-1
1511884769506978,0,-2,-3,-4,-1,1,1,2
1511884769506978,0,-3,-2,2,-1,-2,0,0
1511884769522161,-1,-1,-2,-1,0,2,-1,1
1511884769522161,-1,-1,-1,-3,-1,-1,2,0
1511884769530232,-1,-1,4,2,1,0,-2,-2
1511884769530232,-1,-1,1,2,-1,0,2,1
1511884769537440,0,0,-1,0,-1,-2,-3,-1
1511884769537440,1,0,2,3,1,0,0,-1
1511884769544407,-1,1,0,-1,1,2,1,1
1511884769544407,-1,0,-1,-1,-2,0,0,0
1511884769559447,-2,-2,-1,0,-1,-2,0,-2
1511884769559447,-1,0,-1,-2,-1,0,5,-2
1511884769567574,0,-2,0,0,-2,-13,-15,0
1511884769567574,-2,-2,-4,-1,0,3,-2,-1
1511884769581832,-3,-2,0,-3,-1,3,6,-2
1511884769581832,0,-2,-2,1,0,-3,1,0
1511884769589834,0,-1,-2,-4,-4,-6,-8,-2
1511884769589834,0,0,1,-1,-1,-3,-7,-1
1511884769604881,1,-2,-2,-2,-1,-4,-1,-1
1511884769604881,-1,0,0,1,0,1,-2,0
1511884769605816,-1,0,1,1,1,4,4,-2
1511884769605816,-1,-1,-1,-1,-1,-3,-2,0
1511884769619914,0,-1,-2,-1,-1,2,1,-2
1511884769619914,0,-2,0,-2,-2,-1,-1,0
1511884769627046,0,1,0,1,0,2,2,-2
1511884769627046,0,-1,-3,-2,-3,0,0,-1
1511884769642095,0,1,-1,-2,-2,-2,-2,1
1511884769642095,-1,0,-1,0,0,-3,-2,1
1511884769650034,-1,-1,1,2,0,0,3,-1
1511884769650034,0,-1,-1,-2,-2,-1,2,-1
1511884769665074,-1,-2,-1,-2,0,0,-1,0
1511884769665074,-2,0,0,1,1,-1,-2,-1
1511884769666069,-2,-1,-1,-1,2,3,0,-1
1511884769666069,-3,-2,-1,-3,-1,0,-1,-1
1511884769679073,0,1,0,4,-1,0,-2,0
1511884769679073,1,-1,-3,-8,-4,-2,0,0
1511884769687094,-1,0,-2,2,-1,-1,3,-1
1511884769687094,0,-1,-2,-1,1,1,0,-3
1511884769703294,-2,-2,1,-1,-2,0,-4,0
1511884769703294,-1,-1,1,-1,-9,-2,-1,-1
1511884769710152,0,-1,-2,-3,0,0,2,1
1511884769710152,0,2,1,3,6,-3,-1,2
1511884769725193,0,0,-3,-1,-4,-3,-1,-3
1511884769725193,-1,1,0,2,5,1,1,-1
1511884769726214,0,1,2,0,-3,0,-1,0
1511884769726214,0,-1,-2,0,0,-2,1,-1
1511884769739458,1,-2,-1,0,0,0,2,1
1511884769739458,-2,-4,-1,-2,-2,-1,-3,-2
1511884769747575,-1,-1,-3,-1,-1,-1,1,-1
1511884769747575,0,-3,1,1,-2,-1,-1,-1
1511884769762416,-1,-2,1,-2,1,-1,-1,-2
1511884769762416,-2,0,-3,-4,0,-1,-1,0
1511884769770514,1,1,1,3,2,0,0,1
1511884769770514,-1,-2,-3,-3,-4,1,1,1
1511884769785554,-1,-3,-2,-3,-3,-2,-2,1
1511884769785554,0,-1,2,3,2,0,0,0
1511884769786558,-2,-2,-6,-6,2,-1,-1,-2
1511884769786558,0,1,-1,-1,-4,-3,-2,-1
1511884769799777,-1,2,-1,2,2,-2,-3,-1
1511884769799777,-1,0,0,-4,0,1,-1,0
1511884769806782,-1,2,6,-1,-2,-2,0,-1
1511884769806782,-2,-3,1,1,1,2,-1,0
1511884769821653,1,1,-3,-4,2,-2,-2,0
1511884769821653,0,2,1,4,1,-3,0,-2
1511884769829908,-1,0,-2,-3,-3,0,1,0
1511884769829908,0,-1,0,-1,-3,1,-1,0
1511884769844896,-1,-5,0,2,1,-1,1,0
1511884769844896,0,0,-3,-1,-1,0,-3,1
1511884769845860,1,-3,-2,0,1,1,-2,-3
1511884769845860,0,1,1,0,-1,-1,-1,-1
1511884769859996,-1,1,-3,0,-1,0,-1,1
1511884769859996,2,-1,-1,-1,-1,-1,-1,-1
1511884769867049,2,-1,0,0,-1,-2,0,0
1511884769867049,-2,-1,1,-2,0,-2,1,-1
1511884769882213,-2,-1,-1,-5,-2,1,-2,-5
1511884769882213,-2,-2,-1,-3,-3,-1,2,0
1511884769890239,-1,0,-1,2,2,1,-1,1
1511884769890239,1,-1,-3,0,-2,0,-1,-1
1511884769905343,0,-1,0,-2,0,1,-1,1
1511884769905343,0,-1,2,2,-1,0,-1,0
1511884769906156,-4,-3,-4,-4,-3,0,-2,0
1511884769906156,-2,-1,1,3,1,-1,-2,0
1511884769919219,-1,-3,-5,-11,-10,0,2,0
1511884769919219,-1,0,4,11,16,1,-2,-2
1511884769927462,0,-2,2,1,-8,-2,0,-1
1511884769927462,1,-2,-4,-6,2,1,0,0
1511884769941635,-1,1,-4,-7,-5,-1,0,-2
1511884769941635,-1,-2,-2,-3,-3,1,-1,-1
1511884769950807,1,0,1,6,4,0,-1,1
1511884769950807,-1,2,1,5,-2,-4,-4,-1
1511884769964970,0,-1,3,3,1,-1,-3,1
1511884769964970,1,-1,-2,-5,-2,0,0,1
1511884769965846,1,0,-2,-2,-1,-1,1,0
1511884769965846,-1,-1,-3,-2,-1,0,0,0
1511884769979887,-1,3,3,3,1,0,-3,-1
1511884769979887,-1,0,-2,-1,-2,0,-2,-1
1511884769987107,0,-2,-2,-2,-2,-1,-3,-1
1511884769987107,-2,0,-1,-5,-2,-1,-1,-3
1511884770001999,-2,0,-2,3,1,-2,1,0
1511884770001999,-1,-3,0,-3,-7,-2,-1,-1
1511884770010095,0,1,2,2,0,0,0,-1
1511884770010095,0,-1,-5,-4,-1,-2,-3,2
1511884770025259,0,-2,-1,3,8,2,-1,2
1511884770025259,-1,0,-2,-7,-6,-1,-2,-1
1511884770026135,-2,-1,0,-3,0,-1,-2,-1
1511884770026135,0,-1,2,4,1,-2,1,-2
1511884770039461,0,-2,-2,0,1,0,1,-2
1511884770039461,0,-1,-1,3,3,-1,-1,1
1511884770046638,-1,-1,-1,-2,1,1,1,-2
1511884770046638,0,0,0,-4,-5,-1,-1,1
1511884770061681,1,0,1,-2,-2,-1,-3,1
1511884770061681,1,0,-1,1,-2,-2,2,0
1511884770069782,-1,-1,4,5,2,0,1,-2
1511884770069782,0,-1,1,1,0,-1,-1,0
1511884770084857,0,-1,-6,-6,-3,-3,-1,0
1511884770084857,-3,1,-5,-4,0,-2,-1,-3
1511884770085818,2,-3,-1,-4,-3,-1,-2,-1
1511884770085818,-2,-1,2,0,0,3,2,0
1511884770100086,-3,1,4,4,1,0,1,1
1511884770100086,-1,-1,-2,0,0,-3,0,-1
1511884770107095,-2,-1,-3,-3,0,-1,-1,0
1511884770107095,-1,1,0,1,-1,0,-1,-3
1511884770122135,-1,-2,-1,0,-1,-2,-2,-1
1511884770122135,-1,-4,-2,-1,-2,-1,-1,-1
1511884770130156,0,0,-2,-3,-1,-2,-1,-1
1511884770130156,1,-2,-1,1,1,-1,0,-1
1511884770145197,-1,0,1,0,0,0,1,-3
1511884770145197,1,0,3,1,-2,0,-1,-1
1511884770146200,-1,-2,-3,2,1,0,0,1
1511884770146200,-1,1,-2,-3,-1,0,-1,1
1511884770159234,-2,-2,0,1,-1,-1,-1,-2
1511884770159234,0,-2,-3,-6,-3,-2,-2,0
1511884770167260,0,1,1,3,0,0,-2,0
1511884770167260,0,-2,-1,-2,-1,0,0,2
1511884770182295,-1,1,1,4,2,-1,0,0
1511884770182295,-1,2,-2,2,1,-1,2,1
1511884770190316,-2,0,-6,-9,-8,-1,-2,0
1511884770190316,-2,1,1,3,4,1,-1,0
1511884770205555,0,-1,0,-3,-5,-1,2,1
1511884770205555,-1,-1,2,4,2,1,-1,-1
1511884770206524,0,-1,1,0,2,-1,0,0
1511884770206524,1,-3,-4,-1,-4,-3,0,-2
1511884770219394,0,-2,0,-3,-2,-1,-2,-2
1511884770219394,-2,1,0,-1,-1,-1,0,-2
1511884770227415,-2,-1,0,-2,0,-1,1,0
1511884770227415,-1,-1,-1,-1,-2,-2,0,-2
1511884770241451,-3,-2,-1,0,1,0,-2,0
1511884770241451,0,-2,1,0,-1,0,0,-2
1511884770250660,-2,-1,3,1,0,0,0,-2
1511884770250660,-1,-1,-2,-2,-1,-1,-1,0
1511884770265608,0,0,-1,-1,-3,0,0,-1
1511884770265608,-1,-2,-3,-2,0,0,-2,-1
1511884770265608,-1,1,-1,-1,-1,0,1,0
1511884770265608,-1,-1,0,-3,0,-2,-1,-1
1511884770279663,-2,-1,1,1,1,-1,0,1
1511884770279663,1,0,-1,-1,-1,1,1,2
1511884770286599,0,-1,-1,1,1,-2,-2,-1
1511884770286599,-1,-2,0,-2,-3,1,0,0
1511884770301655,0,0,-1,0,0,-2,0,-2
1511884770301655,-1,-2,1,1,0,-2,0,0
1511884770310643,1,-2,-2,1,0,0,-1,-1
1511884770310643,0,0,0,-1,-1,0,0,-1
1511884770324708,0,0,-1,0,-1,-1,1,0
1511884770324708,0,-2,-2,-2,-1,1,-1,0
1511884770325711,-1,0,-1,0,-2,-2,1,-2
1511884770325711,-1,-1,0,0,0,0,-1,-2
1511884770339927,-1,0,0,-2,-1,-1,0,-1
1511884770339927,-1,-1,-1,-2,0,-1,-1,-2
1511884770346809,1,-2,-2,0,-1,0,-1,2
1511884770346809,0,-2,1,1,0,1,0,0
1511884770361850,0,2,-1,1,2,0,-2,-1
1511884770361850,0,0,1,-1,-4,-1,-2,1
1511884770369828,1,1,0,-4,0,-2,0,-1
1511884770369828,1,-1,-1,0,1,-1,0,-2
1511884770384905,-1,-1,-1,-1,-6,-2,-1,-1
1511884770384905,0,-1,1,0,1,-1,-1,-1
1511884770392957,-1,-3,-4,-5,0,2,-1,-1
1511884770392957,0,0,-1,-3,-7,-2,-2,-1
1511884770399945,2,-1,2,-1,-2,0,0,0
1511884770399945,1,0,0,3,1,0,0,-1
1511884770407145,-1,-2,2,0,-6,-3,-1,-2
1511884770407145,-2,0,-1,1,7,1,1,-1
1511884770422342,-1,-1,-1,-1,1,0,1,1
1511884770422342,1,-2,1,0,-2,-2,-2,-1
1511884770430167,0,1,-1,1,1,1,-1,1
1511884770430167,-1,-1,-2,-1,-4,-1,-2,0
1511884770444446,-2,-2,-3,-3,-1,0,0,0
1511884770444446,0,1,-3,-2,1,-1,0,0
1511884770452497,0,-1,0,2,-1,-2,-1,-2
1511884770452497,0,-1,-2,-3,-3,-1,-1,0
1511884770459668,-1,-1,1,1,1,-1,-3,0
1511884770459668,0,2,1,-1,0,0,-1,-2
1511884770467582,-2,-2,-3,0,2,1,1,0
1511884770467582,-2,2,0,1,2,-1,-2,1
1511884770481779,2,-1,-2,0,-2,0,0,-1
1511884770481779,-2,-1,-1,2,-3,-3,-2,-2
1511884770489887,-2,0,1,-5,-3,0,-2,0
1511884770489887,1,-1,-1,1,2,1,1,-1
1511884770504826,-1,-1,0,0,2,0,-2,-1
1511884770504826,-1,-1,-2,-2,0,1,4,-1
1511884770512847,1,0,-1,-3,-4,-1,0,-1
1511884770512847,-1,-1,0,-1,-4,-2,0,-1
1511884770520024,2,0,1,3,3,1,1,1
1511884770520024,-1,-1,-1,3,7,2,0,1
1511884770527013,0,0,-1,2,-1,-2,-3,-1
1511884770527013,1,-1,-4,-7,2,1,-2,0
1511884770542282,-1,0,0,0,-3,-1,-3,-2
1511884770542282,0,-1,0,-3,-2,-1,-2,-1
1511884770550427,-1,-2,-1,-1,-2,0,1,1
1511884770550427,-2,-1,2,3,-2,-2,0,-3
1511884770564468,-2,-1,-1,0,4,0,0,0
1511884770564468,-1,0,1,-1,-3,0,0,0
1511884770572503,1,1,2,5,5,-1,0,-2
1511884770572503,1,1,-2,3,-6,-3,0,-3
1511884770587723,-1,-3,-4,-8,-7,-4,-1,-1
1511884770587723,-1,-3,-4,-9,-4,0,-2,0
1511884770588529,0,-3,-2,-1,1,-2,-2,-1
1511884770588529,0,-1,-1,2,3,-1,3,-1
1511884770601567,-1,1,-2,1,-2,-1,0,-2
1511884770601567,0,-2,3,-1,-5,-3,-1,0
1511884770609713,-1,0,0,4,5,1,0,-3
1511884770609713,-3,-4,-3,-5,4,2,0,0
1511884770624751,-1,0,-3,-3,-5,0,-1,0
1511884770624751,0,-1,-3,-4,-6,-2,-1,0
1511884770632815,-3,-3,-1,-3,-1,0,0,-1
1511884770632815,2,0,4,3,-2,2,0,3
1511884770647848,0,1,-1,-2,-2,0,0,1
1511884770647848,0,0,2,-1,-3,-3,0,-1
1511884770648832,-1,1,1,5,2,-1,0,-3
1511884770648832,-2,-2,-4,-11,-1,0,-2,-2
1511884770661940,-1,-2,-1,0,1,3,-1,-1
1511884770661940,0,1,3,6,1,-1,-1,-1
1511884770670207,1,1,-1,1,-1,1,3,1
1511884770670207,0,-1,-1,1,2,-3,-2,2
1511884770684163,1,-1,1,1,-5,-3,0,0
1511884770684163,-2,0,-5,-6,10,3,-2,-1
1511884770693147,1,-1,-1,-3,-11,-1,-1,0
1511884770693147,-2,1,-1,1,-3,-1,-2,-3
1511884770707180,0,0,1,7,11,1,0,0
1511884770707180,-1,1,3,7,4,0,-1,-3
1511884770708182,-2,-3,-5,-17,-11,-2,-2,1
1511884770708182,1,0,1,-2,0,0,-2,-1
1511884770722409,-1,1,0,-1,-15,-4,-3,-2
1511884770722409,0,-1,-7,-11,-5,1,1,1
1511884770730244,1,1,1,7,-3,-1,2,0
1511884770730244,0,-1,-3,-8,12,-1,-3,-1
1511884770744282,0,-2,1,4,1,-2,3,1
1511884770744282,0,-1,0,7,6,0,-1,0
1511884770752329,-3,-3,1,-3,-5,-1,6,0
1511884770752329,3,-1,4,10,1,3,-9,1
1511884770767429,-3,-1,-3,-19,-21,-4,-8,-3
1511884770767429,1,-1,-2,3,7,7,25,3
1511884770768343,1,0,0,4,3,-2,-1,-1
1511884770768343,-1,2,-2,-3,-7,3,3,1
1511884770781414,0,-2,-2,1,9,-1,-3,-4
1511884770781414,0,-3,1,-3,-11,0,-6,-1
1511884770790652,-1,-2,-3,-2,5,2,3,-2
1511884770790652,-2,-2,3,3,-2,-8,-2,-3
1511884770804786,-2,-1,0,3,2,-1,-1,-1
1511884770804786,-2,-4,-2,1,6,-1,-2,0
1511884770812808,0,1,1,-2,-2,1,-1,0
1511884770812808,0,1,1,2,-5,-2,-3,0
1511884770827889,-1,-3,-1,7,12,3,0,-2
1511884770827889,0,1,0,5,-1,-4,-1,0
1511884770828853,0,-3,-5,-9,2,-1,-6,0
1511884770828853,-2,-3,-3,-9,-11,-4,0,-1
1511884770842009,1,1,1,-1,4,5,6,0
1511884770842009,-3,2,2,8,2,-5,-5,-2
1511884770850207,0,-2,2,7,4,8,3,-1
1511884770850207,-1,-2,-5,-13,-2,-1,0,2
1511884770864244,0,0,0,2,2,-4,-7,-2
1511884770864244,0,1,-4,-13,-8,6,10,1
1511884770873143,-2,0,0,4,-3,-11,-9,-1
1511884770873143,0,0,2,12,5,4,2,-2
1511884770888183,-1,-2,-3,-4,7,2,2,1
1511884770888183,-1,-1,5,5,7,-2,-7,-2
1511884770888183,-2,0,-5,-1,1,-1,1,-2
1511884770888183,-2,-1,-6,-10,-19,-4,0,-4
1511884770901580,0,-2,-3,-16,-2,3,3,3
1511884770901580,2,-1,-1,6,10,6,1,0
1511884770910503,1,2,6,10,11,2,4,3
1511884770910503,-1,-1,0,4,-8,-9,-9,-2
1511884770924727,-2,-2,-3,5,-4,-2,0,-1
1511884770924727,-2,0,3,3,-1,-4,-5,-3
1511884770932658,-1,-2,-4,-18,-6,0,-2,-2
1511884770932658,0,0,-1,5,9,2,5,0
1511884770947800,0,-2,-5,-8,-3,-2,-7,0
1511884770947800,-2,0,0,11,8,-1,-4,-1
1511884770948602,-2,0,-3,-10,-11,-6,-3,-2
1511884770948602,-1,1,2,4,11,2,4,0
1511884770961813,0,1,2,4,-1,1,3,-1
1511884770961813,-1,-3,-1,-7,-5,-2,-3,0
1511884770969806,-1,2,1,2,-3,-4,-5,0
1511884770969806,-1,0,0,-3,-1,2,3,0
1511884770985030,0,-1,0,3,2,-4,-4,-1
1511884770985030,-2,-1,-3,-7,-11,-2,-1,0
1511884770993003,-1,-2,-2,-2,-3,-1,3,-2
1511884770993003,-3,-2,0,3,3,2,1,0
1511884771007044,-1,2,3,10,4,3,5,-1
1511884771007044,0,-3,-4,-15,-18,-4,-5,-1
1511884771008043,2,-1,-2,3,9,4,6,3
1511884771008043,0,-2,-2,-4,2,2,2,-2
1511884771022082,-3,-1,-1,-5,-18,-13,-15,-1
1511884771022082,1,0,2,3,7,11,22,3
1511884771030106,1,0,2,8,12,-4,-8,-1
1511884771030106,1,1,1,0,-3,0,3,1
1511884771044143,-1,-2,-5,-4,-4,-2,-1,-1
1511884771044143,-3,-3,-5,-12,-17,-6,-9,-3
1511884771053164,0,-1,0,-2,-3,-1,3,-2
1511884771053164,-1,0,1,4,6,0,-4,-1
1511884771068204,-1,2,3,5,6,5,1,-2
1511884771068204,-1,0,0,0,-6,-5,-8,-2
1511884771068204,1,0,1,4,-1,6,7,2
1511884771068204,-1,0,-2,-4,-1,-5,-3,1
1511884771082446,0,0,-1,-2,8,4,7,2
1511884771082446,-2,0,-1,1,1,-3,-3,-3
1511884771090497,-4,-2,-1,-1,2,-1,-4,-2
1511884771090497,0,-2,1,-2,-9,-1,2,-2
1511884771104727,-1,-1,0,1,0,-2,-2,-2
1511884771104727,0,-1,-3,-1,4,3,1,-1
1511884771112558,0,-1,1,3,-3,-1,-3,-1
1511884771112558,-1,2,12,16,2,1,-1,-2
1511884771127599,-3,-4,-16,-12,-7,4,7,1
1511884771127599,0,-5,-10,-16,-9,-10,-8,0
1511884771128602,-4,-3,-6,-11,-9,-1,-2,-1
1511884771128602,0,-2,-2,-5,2,2,-2,-1
1511884771141778,-1,2,10,12,4,0,2,-1
1511884771141778,0,3,6,13,4,2,-1,-1
1511884771149801,0,-2,-11,-15,-10,1,1,1
1511884771149801,1,-1,-1,-2,-2,-4,2,1
1511884771164953,0,0,1,2,3,0,-1,-3
1511884771164953,-2,-1,4,11,7,-2,-2,0
1511884771172984,-2,1,2,-1,6,1,0,-2
1511884771172984,-2,0,0,10,-10,-1,-4,1
1511884771188080,1,-4,-13,-38,-10,1,1,0
1511884771188080,1,1,1,1,-5,-2,1,2
1511884771189007,-1,1,0,3,3,-3,-1,-2
1511884771189007,-1,-1,-5,-5,4,3,3,1
1511884771202235,-1,2,9,16,5,-2,1,-2
1511884771202235,-1,1,6,4,-2,0,-1,-1
1511884771210233,0,-1,1,-2,-4,-3,-2,1
1511884771210233,1,-8,-22,-20,-1,-3,-3,-1
1511884771224445,0,-1,-2,1,1,-1,-2,0
1511884771224445,-1,-1,-8,-12,-2,0,0,3
1511884771232501,0,0,8,9,0,-3,1,-1
1511884771232501,1,0,9,14,7,2,-3,-2
1511884771247335,0,1,2,8,-3,-2,-2,-2
1511884771247335,-2,-3,-7,-8,4,0,-3,-2
1511884771248334,-1,0,0,0,-1,-2,-3,-2
1511884771248334,-1,0,2,-2,5,1,-1,0
1511884771262466,-2,-2,0,-2,-3,-4,-2,0
1511884771262466,-1,-1,4,3,-5,-2,0,-2
1511884771270664,-2,-2,-2,-2,-6,-3,-1,0
1511884771270664,-1,1,-1,0,6,2,-1,1
1511884771284664,-3,-1,-1,0,-6,1,-1,-1
1511884771284664,1,-1,-2,0,2,-3,0,-1
1511884771292688,0,-1,-2,-2,0,-1,-1,0
1511884771292688,-2,2,3,2,-6,-3,0,0
1511884771306837,1,-1,1,2,5,1,-2,3
1511884771306837,2,2,0,0,-9,0,-1,-1
1511884771314783,-1,-2,-6,-3,4,1,1,0
1511884771314783,1,-3,1,-1,-2,-1,0,0
1511884771321881,0,-2,-1,0,2,1,0,-1
1511884771321881,-2,0,-1,-2,-2,-2,-3,-2
1511884771338808,0,1,1,7,3,-1,-2,-1
1511884771338808,-2,0,-2,-9,-4,1,0,-1
1511884771344866,1,-1,2,4,1,-2,-1,-1
1511884771344866,-1,0,8,7,1,1,1,0
1511884771353849,0,2,6,6,1,3,0,1
1511884771353849,-1,-2,-14,-14,-3,-5,0,-2
1511884771366922,0,-5,-14,-13,-9,-2,-1,-1
1511884771366922,1,-3,-3,-3,4,1,-2,0
1511884771375954,0,-1,4,5,0,0,0,-1
1511884771375954,0,1,10,8,-2,1,1,-2
1511884771382126,1,1,3,3,3,-2,0,0
1511884771382126,-2,-3,-3,4,8,-1,-2,0
1511884771398211,-1,-3,-3,-8,-8,-2,-2,-2
1511884771398211,-1,0,0,-1,-2,0,-1,0
1511884771404322,-2,-2,-2,-3,-3,-1,1,0
1511884771404322,-2,0,-2,-3,-1,1,0,-2
1511884771413346,-1,-1,1,3,2,1,-1,0
1511884771413346,0,-1,-2,0,-1,-2,-1,-1
1511884771427391,0,0,2,-1,-2,1,0,-1
1511884771427391,0,0,-2,0,-1,0,1,2
1511884771436569,-1,-2,-2,-5,-4,-1,-1,0
1511884771436569,-1,-2,-1,-2,0,0,-2,0
1511884771441555,-2,0,3,3,1,-1,-2,-2
1511884771441555,-2,-1,0,-2,-2,-2,-1,-1
1511884771458743,0,1,-5,-3,-3,-1,-2,-1
1511884771458743,-1,0,0,0,2,0,1,1
1511884771464763,0,-1,1,1,0,0,1,0
1511884771464763,1,-2,-3,-2,-2,1,0,-1
1511884771473790,-4,-1,-2,-4,-2,-2,-2,-2
1511884771473790,-1,0,0,-1,0,-1,-1,-2
1511884771486822,-3,1,2,1,0,-1,-3,0
1511884771486822,-2,-1,0,-2,-2,1,-1,-2
1511884771495860,0,-2,-1,-1,3,2,1,0
1511884771495860,1,-1,-1,-1,-2,1,-1,-1
1511884771509998,1,2,2,0,-1,-2,1,-2
1511884771509998,0,-2,-2,0,1,1,2,0
1511884771519021,-2,-3,-2,-3,-3,-1,1,0
1511884771519021,-2,-2,1,1,-1,0,-2,-2
1511884771524042,-1,-3,-4,-2,1,0,0,-1
1511884771524042,-1,0,0,3,-1,-2,-1,1
1511884771533181,-2,-1,0,0,0,-2,1,0
1511884771533181,0,-2,-3,-5,-3,-2,0,1
1511884771547133,-1,0,-2,-1,-2,1,0,0
1511884771547133,-1,1,-1,-2,0,-2,0,-1
1511884771556118,2,0,6,14,2,0,0,0
1511884771556118,-1,-2,-2,-8,-4,-3,-3,-1
1511884771569183,-1,-6,-17,-14,-4,-2,-2,-1
1511884771569183,0,-2,-5,-7,-6,-1,-2,0
1511884771578179,-1,2,-1,0,2,1,-1,0
1511884771578179,0,0,5,8,0,0,0,-2
1511884771584233,-1,0,7,7,0,0,0,1
1511884771584233,0,0,0,-1,1,0,-1,0
1511884771593218,2,0,-1,-1,-2,-2,-1,0
1511884771593218,-1,0,1,3,1,-2,0,-1
1511884771607252,-1,1,0,-3,-1,-2,-1,0
1511884771607252,1,0,-2,3,1,-1,0,0
1511884771616279,-2,-2,0,-5,-4,-1,-1,-1
1511884771616279,-1,-1,-3,-1,-1,0,-3,0
1511884771629450,-1,-2,0,1,-1,-2,-2,-2
1511884771629450,-1,0,1,2,1,0,-1,-2
1511884771638471,3,-1,-5,-3,-3,0,-1,-2
1511884771638471,-1,0,-3,-2,-2,-1,0,-3
1511884771644489,-3,1,2,2,-1,-1,-1,-3
1511884771644489,-1,-1,-1,-3,-3,1,-2,-2
1511884771653512,-3,0,-3,-3,-2,0,-2,-2
1511884771653512,-1,-2,-3,1,0,-1,0,0
1511884771667577,2,-1,0,1,-1,1,0,-1
1511884771667577,-3,-1,-2,-4,1,-1,0,0
1511884771675649,-2,-1,-3,-4,0,0,-1,-2
1511884771675649,-2,0,1,2,-1,-3,-1,-2
1511884771689813,-2,0,0,-7,-8,2,0,-1
1511884771689813,0,0,-3,-1,6,-1,0,-3
1511884771698645,-1,0,-1,-1,0,-3,3,1
1511884771698645,0,-2,-2,0,1,0,0,1
1511884771704750,-3,0,0,1,0,-1,-2,-2
1511884771704750,-1,-2,1,-3,-4,0,0,-1
1511884771713689,-1,0,2,3,-3,-2,-1,1
1511884771713689,-2,-1,-7,-10,-2,2,1,0
1511884771726723,2,-1,2,4,7,3,3,4
1511884771726723,1,0,-1,-4,-10,-2,-2,2
1511884771735748,1,0,1,4,2,1,0,-1
1511884771735748,0,0,-1,-2,-1,-5,1,-2
1511884771749823,1,-2,-2,-3,1,-2,-2,-2
1511884771749823,0,-1,-1,3,2,1,0,2
1511884771758811,-1,-1,-1,-1,-2,0,-1,2
1511884771758811,0,0,1,4,-4,0,-3,0
1511884771764867,-1,0,-1,-1,-4,-2,-1,0
1511884771764867,-3,0,0,2,8,0,1,-2
1511884771773847,-2,-1,-4,-3,-4,0,-1,-3
1511884771773847,0,-1,1,-1,3,2,0,-1
1511884771786923,0,0,1,2,2,-2,-3,-1
1511884771786923,-1,-2,0,-1,-7,-1,-1,-1
1511884771795905,0,7,-1,-1,0,1,-1,-2
1511884771795905,-1,0,-1,-3,1,-1,-1,0
1511884771809943,-1,-1,0,-1,-1,-2,0,-1
1511884771809943,0,-5,-1,-1,-1,0,-1,-2
1511884771817966,-3,-7,1,6,0,-1,1,-1
1511884771817966,0,-3,-3,-10,-6,0,2,2
1511884771824986,0,-1,1,0,2,0,0,-1
1511884771824986,-1,0,1,-4,-2,-1,0,-1
1511884771833161,0,1,1,1,2,-2,-1,-1
1511884771833161,-1,12,-2,-3,-5,1,1,0
1511884771847178,-3,1,-2,-2,0,0,-1,1
1511884771847178,-1,-2,-1,3,2,-2,1,-3
1511884771856204,1,-4,0,0,-2,-1,-2,-1
1511884771856204,1,-4,1,2,-7,-3,0,-2
1511884771869245,-2,-2,0,1,6,0,0,-2
1511884771869245,0,2,-2,-2,3,-3,-2,0
1511884771878428,0,-1,-2,-2,-2,-1,-1,2
1511884771878428,2,-6,0,1,-2,-1,-3,-1
1511884771884486,-1,-2,-3,0,-1,0,-2,-1
1511884771884486,0,-1,-1,2,-4,-2,0,-1
1511884771893473,-1,1,-2,-4,1,-2,-2,-1
1511884771893473,0,-1,0,1,1,-1,-3,-1
1511884771907522,0,12,-1,0,-6,-2,2,2
1511884771907522,1,3,1,2,0,0,1,-1
1511884771916547,-1,-3,-1,-1,2,2,0,1
1511884771916547,1,-7,1,3,3,-2,-1,0
1511884771929669,1,-8,0,0,0,-1,-2,2
1511884771929669,-2,-3,1,-1,0,-1,-2,2
1511884771938587,1,1,-1,-4,-3,-2,-1,0
1511884771938587,-1,-1,0,5,4,2,-2,-2
1511884771944606,1,-3,-2,0,-2,-1,1,1
1511884771944606,-1,1,0,1,-2,-1,-3,-2
1511884771953627,-1,0,-1,0,-1,-2,1,0
1511884771953627,-1,0,-1,-1,1,-1,-1,-2
1511884771966858,-2,0,-1,0,-4,-2,-2,0
1511884771966858,1,-1,-2,-2,-1,-2,0,0
1511884771975686,0,-3,-3,-2,1,1,-2,-2
1511884771975686,-1,2,1,1,1,0,-1,-2
1511884771990016,0,-1,0,5,4,0,-2,-2
1511884771990016,-1,-2,-1,-9,-16,-2,-2,0
1511884771998882,-2,0,-2,-4,3,1,-1,0
1511884771998882,-3,-1,0,1,3,1,-2,2
1511884772004898,-1,-2,0,0,1,1,-2,-2
1511884772004898,0,1,0,3,1,-1,-2,-2
1511884772013922,-2,2,-1,2,1,-1,0,-1
1511884772013922,-2,-1,-3,-5,-12,-4,2,1
1511884772027056,-2,-2,-1,-5,0,-1,1,0
1511884772027056,-3,-2,-1,1,6,-1,-2,-2
1511884772035977,1,11,0,-5,-5,0,0,0
1511884772035977,0,18,-1,3,5,2,1,-3
1511884772049014,0,-5,-1,-4,-5,-1,-2,-1
1511884772049014,0,-13,-1,2,0,0,1,0
1511884772058191,0,-18,-1,1,4,1,-1,0
1511884772058191,-1,-10,0,-4,-4,-2,-1,0
1511884772064179,-1,3,-3,-1,-1,0,0,-2
1511884772064179,-3,14,-1,-2,-3,-1,-1,1
1511884772073247,2,7,1,-3,-6,-2,0,-1
1511884772073247,0,-5,0,6,3,1,0,0
1511884772087237,-1,-6,-1,-4,2,0,2,-4
1511884772087237,1,-4,4,7,2,3,5,2
1511884772096266,-4,13,-5,-8,4,-4,-2,-2
1511884772096266,-2,16,-1,-3,13,2,0,-2
1511884772109514,2,1,0,-4,22,2,-3,-1
1511884772109514,-4,-15,-8,-3,16,0,0,-2
1511884772118505,-1,-16,9,11,3,-2,-4,-1
1511884772118505,0,-18,7,1,-34,-6,-6,-1
1511884772124663,1,-2,-8,9,-5,4,0,4
1511884772124663,-1,-5,-8,-26,-35,-3,-7,0
1511884772133688,-1,-2,-6,-5,-17,1,-1,5
1511884772133688,1,2,-1,5,-1,1,-4,5
1511884772146765,0,6,9,4,-15,-5,0,7
1511884772146765,1,13,4,9,13,9,0,8
1511884772155749,-3,1,2,2,0,-2,-1,9
1511884772155749,0,3,-2,-1,17,1,-1,9
1511884772169786,-1,0,-1,-3,-8,-14,-1,8
1511884772169786,0,2,0,6,7,-5,-1,-12
1511884772178807,0,2,-1,-3,4,1,-3,-25
1511884772178807,2,-3,-1,5,-4,-2,3,-24
1511884772184840,0,-5,0,-1,1,2,1,-17
1511884772184840,1,-6,-1,-7,-14,-5,1,-11
1511884772193847,0,-4,-1,1,-11,-2,-2,-3
1511884772193847,-1,-3,-3,2,-1,-2,-1,-4
1511884772207008,0,-3,-2,-3,-5,0,-5,2
1511884772207008,-1,3,2,4,-2,-4,-7,8
1511884772215906,0,-1,-3,1,3,-1,0,4
1511884772215906,-1,-2,-5,-3,3,-4,22,8
1511884772229191,-3,0,-1,1,1,-1,34,6
1511884772229191,-1,2,-3,2,6,1,-16,10
1511884772238254,-1,0,-2,0,4,0,-30,7
1511884772238254,1,2,-1,-3,3,-2,-46,7
1511884772244272,1,1,2,-1,1,-2,-24,-4
1511884772244272,-1,1,-1,1,2,-2,3,-5
1511884772253294,0,1,-1,1,1,2,-5,-9
1511884772253294,-8,1,-2,-4,-2,2,6,-8
1511884772267438,6,9,0,-1,1,0,-1,-7
1511884772267438,2,1,3,2,1,1,3,-2
1511884772276359,-1,-5,2,-1,-2,0,9,-2
1511884772276359,-1,-10,-2,-1,-1,1,9,2
1511884772289687,-16,-11,-3,-4,-2,1,1,-24
1511884772289687,1,0,-1,-1,2,3,8,15
1511884772298535,-6,-4,-3,-2,-2,-4,11,-4
1511884772298535,12,6,2,0,2,5,14,19
1511884772304682,-17,3,-2,0,1,-2,-5,-17
1511884772304682,-22,-6,-2,-2,-3,-1,2,4
1511884772313733,24,12,0,0,1,1,7,0
1511884772313733,-12,-13,-3,-2,-1,-1,1,-4
1511884772326738,5,5,0,1,-1,3,2,17
1511884772326738,16,4,10,3,3,0,3,-23
1511884772335762,-6,2,3,-1,0,-2,4,17
1511884772335762,9,0,3,-4,-3,-4,2,8
1511884772349841,-9,-5,0,-2,-5,-1,-6,-23
1511884772349841,3,3,1,-3,-1,-2,2,22
1511884772358823,-2,-4,0,-2,-2,-2,-1,-3
1511884772358823,0,3,1,0,-2,0,-6,-16
1511884772364878,0,-5,-1,0,1,-2,-2,11
1511884772364878,-4,1,-2,-1,1,1,4,-4
1511884772373862,0,-4,-1,2,0,1,-2,-4
1511884772373862,-8,1,0,-2,0,1,-1,0
1511884772386935,0,-11,-9,-2,-1,-1,2,21
1511884772386935,-17,2,3,1,4,0,-1,-19
1511884772395920,-15,-12,-9,-4,-5,0,-2,-17
1511884772395920,29,11,4,-2,-3,-5,-7,24
1511884772410018,5,-5,-4,-1,0,0,1,5
1511884772410018,12,3,-2,0,-4,-2,-2,1
1511884772418173,-14,-12,0,1,1,2,3,-8
1511884772418173,4,0,-5,0,3,1,3,-4
1511884772424100,20,42,19,-1,-3,0,-2,15
1511884772424100,-18,-58,-16,-13,-11,-10,-15,1
1511884772433022,-67,-32,-20,-8,-8,-6,-7,-15
1511884772433022,27,14,5,2,0,-2,-4,-14
1511884772447059,50,8,-5,0,-1,2,2,8
1511884772447059,-10,22,10,1,1,-5,-8,-28
1511884772456081,27,12,7,4,3,1,7,20
1511884772456081,-37,-28,-10,-5,-2,-4,-5,-6
1511884772469119,-26,1,-1,0,0,1,-4,-22
1511884772469119,10,9,-4,-1,-1,0,2,4
1511884772478283,10,-2,-5,-3,0,1,1,9
1511884772478283,-14,4,1,0,0,3,1,-13
1511884772493563,3,-3,0,-2,-1,-1,3,6
1511884772493563,4,0,-3,0,0,4,5,8
1511884772495462,7,3,5,0,0,1,1,5
1511884772495462,-2,7,0,0,0,2,3,-1
1511884772506492,-12,-5,3,-1,-3,0,-4,-6
1511884772506492,1,19,5,1,1,4,1,8
1511884772516553,7,60,5,0,1,-2,1,-9
1511884772516553,-1,-6,-8,-1,-3,-5,0,0
1511884772529556,-7,-36,-16,-3,-2,-7,-1,8
1511884772529556,-2,-37,-10,4,2,-6,1,-6
1511884772538577,14,-24,-7,3,2,-1,2,3
1511884772538577,-6,-14,-4,-1,4,1,-1,0
1511884772553621,-6,-15,-1,0,5,1,-2,2
1511884772553621,5,-1,-4,1,-2,6,2,3
1511884772554620,3,-6,-9,-3,-3,3,-3,5
1511884772554620,2,12,1,0,-5,2,1,-11
1511884772566850,-8,-4,0,0,-5,-2,-1,12
1511884772566850,3,12,4,2,-3,-5,0,8
1511884772575700,1,3,4,-1,-1,-7,-1,1
1511884772575700,-3,4,5,-1,0,-2,1,-1
1511884772589741,1,9,9,0,-2,0,0,1
1511884772589741,0,6,6,-3,2,0,2,5
1511884772598742,5,-1,10,1,1,0,0,5
1511884772598742,-1,-3,5,0,-3,0,0,4
1511884772613126,-2,6,4,1,0,-1,-2,-10
1511884772613126,0,-4,-2,-1,-3,1,-2,-3
1511884772615032,1,-1,0,-2,0,-1,-1,-11
1511884772615032,-4,1,-2,-1,-1,0,-2,-4
1511884772627066,-5,-1,-8,1,1,0,-3,-4
1511884772627066,0,4,-6,0,-1,1,-1,-4
1511884772636095,2,0,-2,-2,0,1,-1,1
1511884772636095,-2,-1,3,0,2,0,1,3
1511884772649310,0,2,-1,-1,0,2,3,-3
1511884772649310,-1,2,-3,1,-1,1,1,-4
1511884772658204,-1,-1,1,-1,-1,0,-1,-5
1511884772658204,-3,-5,-5,-3,-3,0,-1,0
1511884772673532,-3,0,1,-2,-1,0,-3,-5
1511884772673532,0,1,0,-2,1,-1,0,-1
1511884772675361,-1,-1,-3,1,0,-2,1,1
1511884772675361,-1,-2,-2,0,0,-4,0,1
1511884772687523,1,2,-1,0,0,0,-2,-1
1511884772687523,1,1,-1,-3,0,0,1,1
1511884772696421,-1,-2,2,-1,1,0,-1,0
1511884772696421,-3,-4,1,3,3,3,-2,-4
1511884772710453,2,1,-1,-3,-4,-4,0,1
1511884772710453,-1,-2,3,-1,-1,-2,-1,-1
1511884772718476,2,-1,3,0,0,-2,-3,-2
1511884772718476,0,3,-2,-1,-1,-1,0,0
1511884772733769,-1,3,-2,0,0,-1,-1,-1
1511884772733769,0,1,1,1,0,-1,-2,-1
1511884772734746,0,-3,0,0,-2,0,-3,-1
1511884772734746,3,-3,-1,-2,0,-4,-2,2
1511884772746976,0,-4,-1,0,1,-1,-1,-1
1511884772746976,-2,-2,-1,-2,-1,0,2,0
1511884772755802,0,0,-1,1,0,0,-1,-4
1511884772755802,1,0,-3,-1,0,0,1,1
1511884772769868,-2,-2,1,-1,2,0,-2,-1
1511884772769868,0,1,-1,0,0,-1,-3,1
1511884772778868,-2,-2,-1,2,-1,-1,1,-3
1511884772778868,0,-1,-3,-2,-3,-1,1,3
1511884772792904,-1,-2,2,0,-4,-2,-1,-2
1511884772792904,-3,-1,-3,-2,-1,-3,0,2
1511884772794924,-1,0,0,1,2,1,-2,1
1511884772794924,0,1,-3,-3,-1,0,0,-1
1511884772807149,0,0,-1,-1,-2,-1,0,-1
1511884772807149,0,-2,-1,0,0,-1,0,-1
1511884772816061,-2,0,-1,-1,-1,0,0,-1
1511884772816061,-2,-1,1,1,0,1,1,-1
1511884772829096,0,-3,-1,0,-1,-4,-1,3
1511884772829096,0,-1,-2,0,-1,-2,-1,-3
1511884772838265,0,0,-1,0,-2,-2,0,1
1511884772838265,-1,-1,0,-1,-1,-1,-2,-2
1511884772853273,-1,0,-3,1,2,1,-1,-2
1511884772853273,0,0,-1,-3,-1,-1,0,-1
1511884772855282,1,-3,-1,-1,-1,-3,-2,3
1511884772855282,1,-1,0,1,-2,0,-2,0
1511884772867342,-2,-1,1,0,0,0,0,-2
1511884772867342,1,-2,-1,0,0,-1,0,0
1511884772876332,-2,0,0,-1,0,0,-1,0
1511884772876332,-1,-3,0,1,-2,-3,-1,-1
1511884772889491,-1,0,0,-1,0,-1,-2,-3
1511884772889491,-3,1,2,1,0,-1,-1,-3
1511884772898390,-1,0,-2,-4,0,0,1,2
1511884772898390,-2,1,-2,0,0,-1,0,-1
1511884772913541,-1,0,0,-2,-2,0,1,2
1511884772913541,-2,-1,0,1,1,0,-2,0
1511884772915463,1,0,-2,-3,-2,1,1,4
1511884772915463,-2,-2,0,0,0,0,-2,2
1511884772927467,-1,1,0,0,0,0,0,2
1511884772927467,1,-1,0,0,-1,-2,1,2
1511884772935654,-1,-1,-1,0,0,-5,0,5
1511884772935654,-1,0,-2,-1,0,0,0,-1
1511884772949923,1,1,-1,2,-2,0,-1,1
1511884772949923,-3,-1,0,-3,-2,2,-1,-1
1511884772958955,-1,-1,1,2,-1,-1,-1,-4
1511884772958955,-1,-1,0,-2,-1,-1,-1,0
1511884772972984,-2,-2,-2,0,0,-1,0,3
1511884772972984,2,-1,-2,-1,-1,0,0,2
1511884772974961,-1,-1,0,1,-1,-1,-3,-1
1511884772974961,1,-3,-1,0,0,-1,0,1
1511884772987070,1,-1,-1,2,-2,0,-2,0
1511884772987070,-2,0,-2,-1,-3,0,0,5
1511884772996069,0,-3,-1,-1,0,2,1,4
1511884772996069,0,0,0,-2,0,2,0,4
1511884773009128,-1,0,-1,-1,-1,1,0,17
1511884773009128,-1,-1,-1,-2,0,-1,-2,30
1511884773018157,-1,-1,-1,-1,0,0,1,31
1511884773018157,-2,-1,-1,-3,-1,-2,0,24
1511884773033193,-1,-4,-1,-3,-2,-1,1,7
1511884773033193,0,0,-2,1,-2,1,-1,-4
1511884773035160,-1,-2,-2,0,-3,1,-2,-7
1511884773035160,0,-2,-2,-3,0,-4,-2,-5
1511884773047190,-1,-1,-2,-1,0,-3,0,-3
1511884773047190,-1,-2,1,-1,-2,-1,-1,-3
1511884773056211,0,-2,-1,0,1,-1,-1,-2
1511884773056211,0,-1,1,-1,1,1,1,0
1511884773069246,0,0,1,-1,2,-2,-2,-2
1511884773069246,2,0,-1,0,0,-2,0,-5
1511884773078710,2,0,0,0,-2,-1,2,-6
1511884773078710,0,-1,-1,1,-3,-3,0,-1
1511884773093754,-1,-2,0,-1,1,0,0,-7
1511884773093754,1,-1,-1,0,1,-1,-2,-4
1511884773094752,1,0,0,-3,-2,-1,0,-8
1511884773094752,-2,-3,0,0,-1,-2,-2,-5
1511884773106893,-2,1,-1,0,-2,1,0,-5
1511884773106893,-2,-1,-2,-1,-1,0,-1,-8
1511884773115814,-2,1,0,-2,-2,0,0,-6
1511884773115814,-1,-1,-3,-3,-1,2,0,-5
1511884773129893,-2,-1,-2,-2,-3,-1,0,-3
1511884773129893,-1,1,-2,-1,0,0,-1,-5
1511884773138874,1,-2,-1,-1,1,-4,0,-2
1511884773138874,1,0,0,0,1,-2,-1,-5
1511884773153055,-1,-1,0,0,-4,1,0,-6
1511884773153055,-2,0,-1,1,0,0,0,-3
1511884773155059,0,1,0,-1,-1,0,-1,-8
1511884773155059,0,-1,0,-2,-1,-1,1,-5
1511884773167089,0,1,-1,0,0,0,-1,-4
1511884773167089,0,0,1,-1,-1,-2,-1,-3
1511884773183228,-1,-2,-2,-2,0,-2,-1,-2
1511884773183228,0,-1,-1,1,-1,0,0,-4
1511884773189287,-1,-1,-1,1,1,-1,-1,-1
1511884773189287,-1,-1,0,0,1,-3,1,-4
1511884773198188,-1,-1,-1,-1,-1,0,-2,-4
1511884773198188,0,0,0,-4,-1,-2,-2,-2
1511884773212226,0,-2,0,-3,0,-1,-1,-1
1511884773212226,1,-1,-2,1,0,0,-2,-5
1511884773219245,-2,0,1,1,1,1,-1,-6
1511884773219245,0,-1,0,0,0,1,-1,-6
1511884773227437,-1,-1,0,-1,-1,-1,-2,-7
1511884773227437,-1,-1,0,-1,-1,-3,0,-6
1511884773236290,0,0,0,-1,-2,0,-1,-6
1511884773236290,0,1,-1,-1,-1,1,0,-4
1511884773249469,0,0,0,-1,0,-1,1,-5
1511884773249469,0,-2,0,-1,0,-1,0,-1
1511884773258491,-3,0,-3,-1,-2,-2,1,-1
1511884773258491,-3,1,-1,2,1,-3,-2,-1
1511884773272702,1,1,0,0,-1,-1,-1,-1
1511884773272702,1,-2,-2,-1,-1,-2,-1,1
1511884773279702,-1,-1,-1,0,1,1,-1,0
1511884773279702,-2,-1,-1,1,0,1,-1,-1
1511884773286904,-1,0,-2,0,0,1,-1,-1
1511884773286904,1,0,-1,-2,1,1,1,-1
1511884773295741,-1,-1,-1,-1,-2,-2,-1,0
1511884773295741,0,-1,-1,0,-1,-1,-1,-3
1511884773309010,-1,-1,-1,-1,-2,1,0,1
1511884773309010,-1,1,1,-1,-2,0,-2,-3
1511884773318160,-1,-2,0,0,1,0,-3,1
1511884773318160,0,1,-1,-1,0,2,2,2
1511884773332444,0,-3,-2,0,0,0,-2,-1
1511884773332444,-1,1,0,-1,-2,0,-1,0
1511884773339451,2,-1,0,-1,-3,-1,0,0
1511884773339451,0,-1,1,-2,1,0,0,-2
1511884773347523,0,0,-2,0,0,-1,-1,-2
1511884773347523,0,-4,0,0,-1,-1,-2,-2
1511884773355693,1,0,-1,0,0,-1,-1,-2
1511884773355693,-1,0,0,-1,-1,0,-1,-1
1511884773369734,0,0,-1,0,2,0,-2,-2
1511884773369734,-1,-1,-2,2,-2,-1,-2,0
1511884773378584,0,0,-1,-1,-1,-3,-2,0
1511884773378584,0,-3,-1,1,2,-1,-1,-1
1511884773392793,-1,-1,2,-2,1,-1,-2,0
1511884773392793,1,-2,-1,0,0,-2,-2,-1
1511884773399815,0,1,0,-1,-1,-1,0,-2
1511884773399815,1,-1,0,0,-3,0,-2,-1
1511884773415822,-1,-2,0,1,-2,-1,1,0
1511884773415822,-2,1,0,-1,-1,0,2,-1
1511884773417926,0,-1,-2,-1,1,1,-1,-1
1511884773417926,0,0,-1,0,-2,-1,-2,1
1511884773429860,-2,0,-2,-1,0,1,-1,-1
1511884773429860,-1,0,-2,-1,-1,0,-1,0
1511884773438071,-3,-1,-1,1,-1,-2,-2,1
1511884773438071,0,-2,-1,-1,0,-1,0,1
1511884773452956,0,0,1,-1,-2,0,-2,1
1511884773452956,-1,0,1,-1,-1,0,0,-1
1511884773459938,0,-1,-2,0,0,-1,-1,3
1511884773459938,0,0,1,-1,-1,1,-1,2
1511884773475984,1,-1,-1,-2,-1,-1,-2,1
1511884773475984,-1,-2,0,-1,0,-1,-1,0
1511884773476990,1,-2,1,0,-1,0,1,1
1511884773476990,0,-1,-2,1,-1,-1,-1,1
1511884773489058,0,-2,-1,-1,-1,1,-1,-1
1511884773489058,-2,3,-2,-1,0,-1,-1,2
1511884773498041,-2,-1,0,-1,0,0,0,-1
1511884773498041,-4,0,2,1,0,-1,0,-1
1511884773513078,-1,-1,1,0,0,-2,-1,0
1511884773513078,0,-1,-1,-1,-1,0,0,-1
1511884773519095,-1,0,0,-2,-1,1,-1,-1
1511884773519095,-1,-1,-2,-1,-4,-1,1,-1
1511884773536315,1,-2,0,-2,-1,-2,-1,-2
1511884773536315,-2,-2,-2,0,-2,-1,-1,-1
1511884773537196,-2,-1,-1,0,-1,-1,-1,-1
1511884773537196,0,0,-1,-1,2,1,-2,-1
1511884773549177,-1,0,0,1,-3,1,-1,-2
1511884773549177,1,-1,2,0,-1,0,-2,2
1511884773558339,0,-1,-1,-1,-3,3,1,-1
1511884773558339,-1,0,0,-1,0,-3,-1,-2
1511884773572553,-2,0,-3,0,-2,-1,1,1
1511884773572553,0,-2,-1,-2,-4,-1,0,-3
1511884773579522,-1,-1,0,-1,0,-3,0,-1
1511884773579522,0,0,0,-1,-1,1,-1,-1
1511884773595439,0,-2,-1,0,0,-1,0,-1
1511884773595439,0,-1,-1,-1,-1,1,-2,0
1511884773597444,0,0,-1,1,-2,0,-2,-1
1511884773597444,1,-1,-2,0,0,-2,0,0
1511884773609479,-1,-2,-2,1,0,1,2,2
1511884773609479,-2,-1,1,1,1,-1,0,0
1511884773618637,-1,-2,-1,-1,0,-1,-1,1
1511884773618637,0,-1,0,-2,-1,0,0,-1
1511884773632822,0,1,0,0,-1,-2,0,-1
1511884773632822,1,1,-2,1,1,-3,1,-3
1511884773639840,-1,-1,0,-3,1,0,-3,0
1511884773639840,-1,-3,1,0,-2,1,-2,-2
1511884773655996,0,-4,-2,-1,-1,0,0,-2
1511884773655996,-2,0,-1,0,0,0,0,-1
1511884773657923,1,-2,-1,0,-1,-1,0,-2
1511884773657923,-1,-3,-1,-1,-2,-2,-1,-1
1511884773669921,-1,2,1,-1,0,-2,-1,-1
1511884773669921,0,-3,-1,0,0,0,-2,-1
1511884773678942,-3,-1,-1,-1,0,-1,1,-2
1511884773678942,-4,-1,1,-2,0,0,0,0
1511884773692986,0,0,1,-1,0,-1,0,-1
1511884773692986,-1,-2,0,-1,0,0,0,-1
1511884773699039,0,-2,1,1,-2,-1,-1,-1
1511884773699039,2,-1,-1,0,-1,-1,-2,-3
1511884773716095,0,0,-1,-1,-1,0,-2,-1
1511884773716095,-2,1,-2,-2,0,0,-1,-3
1511884773717046,0,1,-1,-2,0,0,-1,-2
1511884773717046,-2,0,-2,0,-2,2,1,0
1511884773729078,0,0,-2,-3,-1,0,0,-2
1511884773729078,-1,1,0,-3,-1,-3,0,1
1511884773738234,0,-2,-1,-1,-2,0,0,1
1511884773738234,0,0,-1,1,0,-1,0,0
1511884773752271,0,-1,0,-2,-2,0,-1,-1
1511884773752271,0,-1,1,-1,-2,0,-1,-1
1511884773759293,0,0,-1,0,-1,-2,-2,-1
1511884773759293,-1,-1,2,-1,-1,1,0,0
1511884773775333,-3,-2,0,1,-1,0,0,-1
1511884773775333,-1,-2,-2,0,-1,-2,1,-1
1511884773777338,-1,-3,-1,0,0,-1,2,0
1511884773777338,-1,0,-3,-2,0,-1,-3,-1
1511884773789554,-1,-1,0,-1,0,3,1,-1
1511884773789554,-1,-2,-1,-2,1,0,-1,0
1511884773798412,-1,-1,-1,-1,0,0,0,0
1511884773798412,1,0,-2,-1,-1,-3,-1,0
1511884773812682,0,-1,0,-1,-1,-3,-1,0
1511884773812682,-1,-3,-1,-1,-1,-1,1,-1
1511884773819701,1,0,0,-1,0,1,1,-1
1511884773819701,0,0,-2,1,0,-1,0,-1
1511884773835742,-1,-1,-3,-1,-1,-4,-1,2
1511884773835742,0,-1,0,1,-1,0,1,0
1511884773837748,-1,-3,1,2,0,-2,-3,0
1511884773837748,-1,-1,-1,1,0,-2,1,0
1511884773849784,0,-1,0,2,2,0,-2,1
1511884773849784,-1,0,-1,1,-2,0,-2,-1
1511884773858803,0,0,-2,1,-2,-1,1,0
1511884773858803,-1,0,-2,1,-1,0,0,0
1511884773873156,-1,-1,1,0,0,-1,-3,-1
1511884773873156,-1,-2,0,-2,-1,-2,1,0
1511884773878997,1,-2,-2,-1,-1,-1,1,2
1511884773878997,0,0,-2,-1,-3,-2,-2,0
1511884773896253,0,1,-2,-1,-3,0,0,-3
1511884773896253,0,-1,-1,1,0,1,-1,-1
1511884773897176,0,0,1,1,-1,0,-1,-2
1511884773897176,-1,-3,3,0,0,-1,-1,1
1511884773909206,0,-2,-2,-3,0,-2,0,-1
1511884773909206,0,-1,-2,-3,-3,-3,-1,-3
1511884773918234,0,0,-2,-1,-2,0,0,0
1511884773918234,-1,-1,-1,-1,0,0,-1,-1
1511884773932321,-1,-1,-1,1,-2,1,-2,-3
1511884773932321,-2,-1,0,0,1,1,0,-1
1511884773939410,-1,0,0,-2,0,-1,0,-3
1511884773939410,-1,0,0,-1,-2,-2,0,-1
1511884773956332,0,0,0,-1,1,1,-2,-2
1511884773956332,0,-2,1,0,0,-2,0,1
1511884773957336,0,0,1,0,-1,0,-1,-2
1511884773957336,-1,0,-1,-2,-1,-2,1,-4
1511884773969369,0,-2,-2,-3,0,-1,0,-2
1511884773969369,0,1,-1,0,1,1,0,-1
1511884773978419,-2,1,-1,-1,0,-2,-1,-1
1511884773978419,1,-1,0,0,-2,-2,-2,-2
1511884773992514,-1,1,0,0,-2,1,1,-3
1511884773992514,-1,1,0,-1,-2,-2,-2,-6
1511884774007592,0,-2,-1,-2,-1,-1,-1,-10
1511884774007592,-1,-2,-1,0,-2,2,-1,-10
1511884774015788,0,-3,-1,1,-3,-1,-1,-8
1511884774015788,0,-1,-1,0,-1,-1,-2,-3
1511884774017757,-1,1,1,0,1,1,-2,-3
1511884774017757,1,0,0,-5,-1,-2,0,-2
1511884774029788,1,0,-1,0,0,0,0,-1
1511884774029788,-1,0,-1,0,0,-1,1,0
1511884774038814,0,-3,-2,1,-1,-2,0,2
1511884774038814,0,-1,-1,0,-2,0,0,3
1511884774052880,-2,-3,0,-2,-2,-1,-1,0
1511884774052880,1,1,-1,-1,-2,0,-2,0
1511884774059971,-1,-1,0,-1,-1,-1,0,1
1511884774059971,-1,0,0,1,-2,0,1,1
1511884774076022,-2,0,-1,-1,0,-1,1,2
1511884774076022,-2,-2,-1,-1,0,0,-2,0
1511884774076982,0,0,0,0,1,-2,-1,-1
1511884774076982,-1,-2,1,1,0,0,-2,0
1511884774089055,0,-1,-1,-1,0,-1,1,4
1511884774089055,0,-2,0,-1,1,0,-2,2
1511884774098040,0,1,-2,0,-2,-3,-1,-1
1511884774098040,-3,-1,0,-2,-2,-3,-2,2
1511884774112439,0,0,0,1,-1,1,-3,1
1511884774112439,-2,-1,-1,-1,-1,-1,1,6
1511884774119326,-2,-3,1,-1,-2,2,4,1
1511884774119326,-1,-1,-1,-2,0,-1,-2,2
1511884774135649,-2,0,-1,-1,-1,-3,-1,-1
1511884774135649,0,-2,-1,0,-1,-2,-1,-3
1511884774137650,0,-1,-1,1,-2,0,-1,1
1511884774137650,2,1,-2,-1,0,-1,1,-2
1511884774149742,1,-1,-1,0,0,-2,0,1
1511884774149742,0,1,-1,0,0,1,-2,0
1511884774158707,-1,2,-2,-3,-3,-1,-3,2
1511884774158707,-1,-2,0,3,8,4,0,0
1511884774172935,-1,-1,-2,0,-4,-1,-2,-1
1511884774172935,-1,-2,-1,0,-3,-2,0,-1
1511884774179765,0,-2,-2,-2,0,1,-1,0
1511884774179765,0,0,-2,0,-2,-2,0,-1
1511884774194807,0,0,-2,0,2,3,-1,0
1511884774194807,0,-1,-1,0,1,0,-1,-3
1511884774209842,-1,-1,1,-1,-2,-1,-3,0
1511884774209842,0,-2,0,-2,-1,2,0,0
1511884774210845,-1,-2,0,-3,0,0,1,1
1511884774210845,-2,-1,0,-3,-2,-2,1,1
1511884774218961,0,0,-1,-1,0,0,1,-1
1511884774218961,-1,0,0,-1,0,-2,-2,-2
1511884774233088,0,1,-2,-2,-2,-1,-1,-2
1511884774233088,-2,-1,-1,-2,1,-1,-1,1
1511884774239129,-1,0,-1,1,2,-1,0,-1
1511884774239129,-1,-1,0,0,1,-2,-1,1
1511884774255175,-1,0,0,0,-1,0,1,-1
1511884774255175,0,-2,-2,0,-2,0,1,-1
1511884774262231,-1,-1,-2,-1,-3,-1,-1,2
1511884774262231,0,-1,-2,-1,-2,-1,-1,-1
1511884774269324,-2,-1,2,-1,1,-1,-1,1
1511884774269324,0,-1,-2,1,-1,0,-2,0
1511884774278425,0,-1,-2,-1,0,-2,0,-1
1511884774278425,1,-1,-2,1,-3,1,0,-1
1511884774292581,1,-1,0,-1,-1,-2,1,2
1511884774292581,-1,0,0,-1,-3,2,-2,-1
1511884774299612,-2,-1,0,-1,0,1,0,-1
1511884774299612,-2,0,-2,-1,0,-2,-1,0
1511884774315542,-3,-1,-1,1,-2,0,-2,-1
1511884774315542,-1,0,-2,-2,1,1,-1,-2
1511884774321789,-1,-1,1,0,-1,-2,-2,-1
1511884774321789,-1,-1,0,-1,-3,0,0,-2
1511884774338802,0,0,0,0,-1,1,0,0
1511884774338802,-1,-2,-2,-1,1,-3,1,0
1511884774339789,0,-1,-2,-3,-3,-2,1,1
1511884774339789,1,0,0,-1,0,1,1,-3
1511884774351862,-2,0,-1,0,-1,1,-1,-1
1511884774351862,1,0,1,0,-1,-1,-1,1
1511884774360921,0,-1,-2,1,-1,-1,-1,1
1511884774360921,-1,-1,-2,0,-3,-2,-1,3
1511884774374959,-2,-2,-1,-1,0,-1,-3,0
1511884774374959,0,-1,1,0,0,-1,-1,-2
1511884774382017,-1,0,-1,-1,-1,-1,0,0
1511884774382017,0,-1,0,0,-1,-1,-2,0
1511884774398028,1,-1,-1,0,-1,0,-2,1
1511884774398028,0,0,-1,0,-1,1,-1,-1
1511884774400022,0,-2,0,-1,1,0,-1,-1
1511884774400022,1,-3,-1,-1,0,-2,-1,0
1511884774412198,0,-2,-1,1,0,-2,2,-1
1511884774412198,-3,-2,1,-1,-1,0,0,-1
1511884774421364,0,1,-1,0,-1,-2,-1,-3
1511884774421364,-2,-1,-1,0,-1,-1,2,0
1511884774435401,0,1,-3,0,-1,0,-2,-1
1511884774435401,-1,0,-2,-1,-2,-1,-1,-1
1511884774442418,1,-1,0,-2,-1,0,-1,0
1511884774442418,-3,1,0,0,-1,0,1,-1
1511884774458462,0,-2,-1,-2,-1,0,0,1
1511884774458462,-2,-1,0,-1,-2,-1,-1,0
1511884774459469,-1,0,2,1,0,-1,-1,0
1511884774459469,-2,-5,0,-1,-2,0,-1,0
1511884774471528,0,-2,-1,1,-1,-2,0,-2
1511884774471528,-1,1,-1,-1,-2,-2,0,-1
1511884774480523,-2,-1,0,0,-1,0,0,0
1511884774480523,0,2,-2,0,1,0,-2,-2
1511884774495565,-1,0,-1,-1,0,1,-1,0
1511884774495565,1,-1,-1,-1,-2,-2,-1,0
1511884774501829,2,0,-1,-2,0,1,1,0
1511884774501829,0,2,1,-1,-2,-2,0,-2
1511884774518763,-3,-1,-2,-2,-1,-1,1,-2
1511884774518763,1,-1,-1,-1,0,-1,-1,0
1511884774519762,0,-1,-2,-1,-2,1,0,0
1511884774519762,0,0,-1,-2,0,-1,0,-1
1511884774531924,1,-1,1,0,2,-1,-3,0
1511884774531924,0,-1,-2,-1,-1,1,-1,-1
1511884774540851,0,-1,-2,0,0,-1,0,-1
1511884774540851,-2,-1,-1,0,-2,-1,-1,2
1511884774554959,-2,1,0,0,-2,-4,1,1
1511884774554959,0,-1,0,-1,0,0,0,0
1511884774561878,0,-1,-2,-1,0,-2,-1,-1
1511884774561878,0,0,-1,-2,0,0,-2,-1
1511884774578214,0,-1,1,-2,-1,-1,0,0
1511884774578214,1,-1,0,-1,0,0,0,0
1511884774580151,-4,-2,-3,0,-1,1,-1,0
1511884774580151,0,-4,-2,-1,-1,-1,-1,0
1511884774592140,-1,1,-3,0,0,0,-2,-1
1511884774592140,0,0,-1,1,0,-1,0,-1
1511884774601194,1,-2,0,-1,1,0,-1,1
1511884774601194,-2,1,-1,2,0,-2,-1,2
1511884774615321,0,-1,0,0,0,0,0,1
1511884774615321,1,-1,-1,-1,1,-1,-1,0
1511884774622439,-2,-2,0,-1,0,-1,-2,-2
1511884774622439,1,-1,-2,-2,-1,0,-2,-1
1511884774638485,1,-2,0,1,0,0,-2,-2
1511884774638485,-2,-1,-1,0,-2,1,-1,-1
1511884774639470,-1,1,3,0,0,1,-1,-1
1511884774639470,1,1,1,-1,0,-1,0,-1
1511884774651523,-1,0,-1,-2,-1,-1,-1,-2
1511884774651523,-2,-1,-2,0,0,-2,-1,-1
1511884774660568,0,1,-2,-1,0,-1,-2,-1
1511884774660568,-1,-1,-2,0,0,0,0,-1
1511884774675623,-1,-1,-2,0,1,-1,0,-2
1511884774675623,1,-1,-2,1,-1,0,-1,-1
1511884774681630,-1,0,-1,1,-1,-1,1,-2
1511884774681630,-1,-1,0,-2,-1,0,0,-2
1511884774698669,-1,-1,0,-1,-1,0,0,-2
1511884774698669,-2,0,-1,-4,-1,0,-2,-1
1511884774699634,-1,-1,1,-2,0,-2,1,0
1511884774699634,1,-1,0,0,-1,0,-1,-1
1511884774711685,-1,1,-1,-1,-1,-1,1,1
1511884774711685,-1,-1,-1,0,-1,-2,-1,-1
1511884774720689,0,1,-2,1,-1,-1,1,0
1511884774720689,-4,-1,-1,-1,0,0,0,-3
1511884774734766,0,-2,-1,-1,-3,1,0,0
1511884774734766,-2,-1,-2,-1,-2,-1,-1,0
1511884774749884,2,-1,-2,-1,-2,0,-1,-2
1511884774749884,0,-1,-1,0,-1,-1,-1,-1
1511884774758786,1,-1,-1,0,-1,-2,-3,0
1511884774758786,0,-2,1,0,-1,0,0,0
1511884774759788,-2,-1,-1,-1,0,-2,-1,-1
1511884774759788,0,0,0,0,-1,0,-1,0
1511884774771979,-2,-2,-2,-1,1,0,-1,1
1511884774771979,0,-1,0,-1,0,0,0,1
1511884774780845,-2,-2,-2,0,0,0,0,2
1511884774780845,0,0,-1,-1,1,-1,-1,0
1511884774794885,-2,0,0,-1,0,0,0,-1
1511884774794885,-3,0,0,1,0,0,0,1
1511884774802084,-1,0,-1,-1,-4,-2,1,0
1511884774802084,0,0,-1,0,-2,-1,0,1
1511884774818366,0,-1,0,0,-1,1,-1,-1
1511884774818366,0,0,1,0,3,1,0,0
1511884774820190,-2,-1,-3,-2,0,0,-2,1
1511884774820190,-1,-2,-3,-1,0,-3,-1,0
1511884774832224,-1,1,0,-1,-4,-4,-1,0
1511884774832224,-1,-2,-2,-1,0,-3,-1,-1
1511884774840566,-1,0,-1,1,-2,-3,-3,-2
1511884774840566,-2,0,-2,-1,0,1,2,0
1511884774855591,0,-1,-1,-2,0,-1,-2,0
1511884774855591,-2,0,-1,0,-3,-1,0,-2
1511884774862451,1,-1,1,-1,-4,-2,1,-3
1511884774862451,-2,-1,-1,0,0,1,0,0
1511884774878473,0,0,-1,-1,-2,-1,2,0
1511884774878473,-2,0,-1,-2,-2,-2,-2,-1
1511884774879476,0,-1,-2,-1,1,0,-2,0
1511884774879476,1,-1,0,-1,-1,-1,-2,-1
1511884774891689,0,-1,1,0,-1,-1,2,0
1511884774891689,0,-1,-2,-1,-2,0,-2,-2
1511884774900677,-2,-3,-1,-2,-1,0,0,-1
1511884774900677,-2,-1,-1,-2,0,0,-1,0
1511884774914793,0,-1,-1,-1,0,-1,-1,-1
1511884774914793,0,0,0,1,0,0,-2,-1
1511884774921801,-1,1,0,0,-1,-1,0,-1
1511884774921801,1,1,-1,1,0,-2,-2,-1
1511884774938909,-1,-1,-2,2,1,-1,1,0
1511884774938909,-2,1,-1,-1,-1,1,0,1
1511884774939912,-1,0,0,0,-2,-1,0,2
1511884774939912,-1,-3,0,-1,0,1,-2,0
1511884774952098,-2,-1,-1,-2,0,0,-1,-1
1511884774952098,0,-1,-1,-1,1,-3,-1,-2
1511884774960968,0,0,0,-1,1,-2,-2,-1
1511884774960968,-1,0,-1,-1,-3,-3,0,1
1511884774975005,-2,-1,-1,0,-1,2,-1,1
1511884774975005,0,0,-1,-1,2,0,0,-1
1511884774982152,-1,-1,0,0,1,-2,-2,0
1511884774982152,1,-3,1,-1,-1,0,0,-4
1511884774998163,-1,0,-1,0,-1,-2,0,-1
1511884774998163,-1,0,-1,-1,-1,1,-2,-1
1511884775000072,0,-2,-3,-1,0,-1,1,0
1511884775000072,0,-1,0,0,0,1,1,1
1511884775012230,-2,-2,-2,-2,-1,-2,-1,-2
1511884775012230,0,-2,1,-2,-1,-1,0,-1
1511884775021127,-1,1,0,1,0,-1,-2,-1
1511884775021127,-1,0,-1,-2,2,2,0,0
1511884775035207,-1,1,0,0,-1,0,-1,-1
1511884775035207,0,-1,-1,1,-1,-1,-1,-2
1511884775042185,0,0,-1,0,0,2,0,0
1511884775042185,-1,1,0,0,-2,-1,0,0
1511884775058261,-1,0,-1,0,0,-2,-2,0
1511884775058261,-2,-2,-2,0,-2,-1,-2,1
1511884775060234,0,-2,0,-1,-2,-1,-1,-1
1511884775060234,0,-1,-1,0,-1,-2,-1,-4
1511884775072390,1,-2,-2,1,-2,0,-1,-1
1511884775072390,0,-2,1,1,-2,0,0,-1
1511884775081289,-2,0,0,-2,-1,1,0,0
1511884775081289,-1,0,1,-2,-1,-3,-2,0
1511884775095370,-1,-1,1,-1,-1,0,-1,-1
1511884775095370,-2,0,-1,0,1,-1,0,-1
1511884775102344,0,-4,-3,0,-1,-1,0,-2
1511884775102344,1,-1,-2,1,0,0,-1,-2
1511884775117401,0,-1,-1,-1,1,-1,-1,0
1511884775117401,0,0,-2,-1,1,-2,1,0
1511884775124402,0,1,-1,-1,0,-2,-1,0
1511884775124402,-2,-2,-1,0,-2,-1,-1,0
1511884775132424,0,0,0,0,-1,-1,-3,-1
1511884775132424,0,0,0,2,0,1,-5,0
1511884775140639,-1,0,0,-2,-2,-1,-4,-2
1511884775140639,-2,-1,-2,-3,-2,-1,-6,-2
1511884775155595,0,0,-3,0,-1,2,-1,-1
1511884775155595,-2,-1,-1,-1,-1,-1,0,1
1511884775161504,-1,-1,-1,2,1,1,1,-1
1511884775161504,-2,-2,-2,0,-1,-2,2,0
1511884775177547,-1,0,1,-3,-1,-1,1,-3
1511884775177547,1,-1,0,1,-1,-3,2,2
1511884775184766,0,0,-2,-1,-2,1,1,0
1511884775184766,-1,-1,-2,-1,-3,-1,2,1
1511884775191582,1,-2,1,1,0,-2,1,0
1511884775191582,-2,0,-1,-1,-1,-3,0,0
1511884775200706,-1,-2,1,1,2,-1,2,2
1511884775200706,-1,0,0,0,0,1,1,-1
1511884775214745,-2,0,-3,-1,-1,-2,-2,1
1511884775214745,0,-1,-1,0,-1,0,0,-2
1511884775221911,-2,-1,-1,0,-2,-2,-2,-1
1511884775221911,-1,0,0,-2,-4,-1,-1,1
1511884775238098,0,-1,1,0,-2,-1,1,0
1511884775238098,0,-1,0,-1,-2,0,-2,-1
1511884775244996,-1,0,1,0,-1,1,-2,-2
1511884775244996,-2,2,0,0,-1,-1,-1,-1
1511884775252031,-1,0,0,-3,1,-2,0,-1
1511884775252031,-1,-3,-2,0,-2,-1,-1,1
1511884775261036,-2,0,1,-1,0,0,-2,-1
1511884775261036,1,-1,0,0,2,1,0,1
1511884775274319,-2,1,-1,-1,-2,-1,-1,-1
1511884775274319,-1,-1,-1,-1,0,0,1,-1
1511884775283258,-2,-2,-1,-1,-3,0,-1,1
1511884775283258,0,-1,-1,0,-1,1,-1,0
1511884775297303,0,-1,0,-2,-1,-1,-2,1
1511884775297303,0,0,-1,-3,-1,-2,0,-2
1511884775304282,-2,1,-1,-3,-1,-1,-1,-2
1511884775304282,-2,-2,1,-2,1,-1,0,-1
1511884775321345,0,0,-1,0,-1,1,1,0
1511884775321345,-2,0,-1,-1,-3,-3,-3,-2
1511884775322328,1,0,-1,1,2,3,7,3
1511884775322328,0,-1,-1,-1,-2,0,-2,-2
1511884775335381,-1,-1,-1,1,0,-2,-1,-1
1511884775335381,0,-2,-1,0,-1,-1,0,-1
1511884775342382,0,0,-3,-2,-1,-4,-1,-1
1511884775342382,0,-1,0,-1,-2,-1,-1,-1
1511884775357422,-1,-1,-2,-1,0,2,0,0
1511884775357422,-1,-1,1,-1,2,3,0,-1
1511884775372497,0,-1,-1,-3,-2,-2,-3,-4
1511884775372497,0,-1,-1,-2,-4,-5,-6,-3
1511884775380485,0,0,-1,1,0,3,6,2
1511884775380485,1,0,0,-1,-1,0,1,-1
1511884775382488,-1,-1,-2,0,-1,2,1,3
1511884775382488,-2,0,0,0,-1,-2,0,0
1511884775395597,0,0,1,-1,-2,-2,-4,-3
1511884775395597,0,-2,-1,2,-1,0,1,0
1511884775401624,-1,0,0,0,1,0,0,-1
1511884775401624,-1,-3,-1,2,1,-2,-2,0
1511884775417828,-1,-1,0,1,0,1,1,2
1511884775417828,-1,-1,-1,-1,-1,-5,-4,0
1511884775424732,1,-1,-1,-1,-1,-3,-1,-3
1511884775424732,0,1,-1,0,0,2,1,-1
1511884775440903,-2,0,-2,-1,-3,-7,-6,-5
1511884775440903,0,0,-1,-4,-9,-7,-5,-2
1511884775442006,-1,-2,-3,1,3,5,7,-1
1511884775442006,1,1,-1,1,2,3,10,4
1511884775454017,-1,-2,1,-1,-3,0,-2,-1
1511884775454017,-1,0,-1,0,1,0,3,1
1511884775463074,-1,-1,-1,-1,-4,-2,-7,-1
1511884775463074,-1,-1,0,-4,-6,-8,-7,-4
1511884775478110,1,0,-1,0,2,5,8,4
1511884775478110,0,-1,1,-1,-9,-11,-13,-3
1511884775484130,-1,-2,-2,1,2,-1,-7,-4
1511884775484130,3,2,-1,8,18,19,25,10
1511884775501255,-1,-2,-3,-3,-9,-10,-20,-9
1511884775501255,-2,-1,-3,-1,9,2,0,2
1511884775502174,2,-1,2,2,4,0,4,3
1511884775502174,-4,-1,-1,-2,-3,-2,-6,-3
1511884775514209,-3,0,-1,-4,-5,-7,-12,-7
1511884775514209,2,1,1,1,4,6,13,4
1511884775523257,0,-1,-1,3,2,3,10,2
1511884775523257,-2,-2,0,-2,-2,-6,-7,0
1511884775538446,-1,0,0,1,1,1,1,1
1511884775538446,-2,2,-3,-2,-2,0,-2,0
1511884775544289,-1,-1,1,-2,-4,-4,-3,-1
1511884775544289,-2,-2,0,-4,-5,-4,-5,-4
1511884775560332,-1,-1,-1,-1,1,2,8,1
1511884775560332,-1,-1,0,-1,1,1,1,0
1511884775562334,-1,0,-1,-2,-3,0,-3,-2
1511884775562334,-1,-2,-2,-3,1,-1,-2,-1
1511884775574492,0,-1,0,-1,2,-2,-1,1
1511884775574492,-1,-1,0,-2,1,0,0,-1
1511884775583671,1,1,0,0,-3,-4,-2,0
1511884775583671,0,-1,-1,-1,-2,-2,-3,-1
1511884775597708,-2,-1,-2,0,1,2,4,0
1511884775597708,-2,-1,-1,0,-2,1,-2,-1
1511884775604852,-1,-1,-1,-2,-3,-1,-3,1
1511884775604852,-3,-1,1,-2,-1,-1,-4,-1
1511884775621043,0,-1,-1,-4,3,-1,1,0
1511884775621043,-2,-1,1,-2,1,1,1,-4
1511884775621958,-1,0,1,-3,-2,-1,-4,-2
1511884775621958,1,0,0,-2,-2,-2,-1,-1
1511884775635001,-1,-2,0,-1,0,-1,1,1
1511884775635001,-2,-2,0,2,0,0,0,1
1511884775643026,0,0,1,-1,0,-1,-2,-2
1511884775643026,1,-1,0,1,-3,0,0,0
1511884775658148,1,0,-3,-1,0,0,2,-1
1511884775658148,-2,0,-1,-1,0,0,1,-1
1511884775664041,-1,-1,0,-2,1,-1,-2,1
1511884775664041,1,-2,0,0,-1,0,-2,0
1511884775681084,0,1,-2,-1,-1,-1,-1,-2
1511884775681084,2,0,-1,1,0,-2,-1,-3
1511884775682091,-3,-1,-1,-1,-2,0,0,-2
1511884775682091,-2,-1,1,0,0,-3,-2,-4
1511884775694123,1,-1,0,1,2,3,2,1
1511884775694123,-2,1,-1,-1,-1,-2,0,-1
1511884775703165,0,-2,-1,-1,-2,0,0,-2
1511884775703165,-2,1,-2,1,0,0,0,-2
1511884775718211,0,0,-1,-1,-2,0,-1,1
1511884775718211,-2,1,0,-2,0,0,-1,-1
1511884775724200,-3,0,-1,-2,-1,-1,0,0
1511884775724200,0,-2,-1,-1,-1,0,-1,0
1511884775741244,1,-1,0,1,1,-1,-1,-2
1511884775741244,1,-1,-2,-1,-1,2,0,2
1511884775742247,-2,-1,0,0,-1,-2,0,0
1511884775742247,1,0,-2,0,-1,-3,-2,-1
1511884775754514,0,0,1,1,1,-2,0,1
1511884775754514,0,-3,-1,-2,0,-1,-1,0
1511884775763431,-2,-1,-2,-1,-1,-2,-2,-1
1511884775763431,-2,0,-3,-1,-2,1,0,-1
1511884775777472,-1,2,1,-1,0,-2,-2,2
1511884775777472,-2,0,-2,0,-3,-1,0,0
1511884775784694,-1,-2,-1,1,0,1,-1,1
1511884775784694,1,-2,-1,-1,-1,-2,-1,-1
1511884775800721,0,-4,-1,0,-1,-1,1,-1
1511884775800721,-1,0,-1,-2,-2,-1,0,-1
1511884775802538,0,-1,-1,0,0,-1,0,1
1511884775802538,-2,1,1,0,-2,0,0,-1
1511884775814731,-2,-3,-2,0,-1,-1,-1,0
1511884775814731,0,-1,-1,-1,-1,-3,-1,2
1511884775823593,1,-3,-1,0,-1,-2,-3,0
1511884775823593,-1,-1,-1,-2,-1,0,0,0
1511884775837629,-1,-1,-2,-2,-3,2,-2,-2
1511884775837629,0,0,-1,0,0,-1,1,0
1511884775844650,0,-2,-2,-2,-1,0,-2,-1
1511884775844650,0,1,-1,0,0,1,0,-3
1511884775860693,-1,0,-1,0,0,-1,0,-1
1511884775860693,-1,-1,0,0,-1,1,2,0
1511884775862699,0,0,-1,0,-1,-1,1,-1
1511884775862699,1,0,0,2,-1,1,1,0
1511884775874731,1,0,-1,-1,-2,-1,0,-2
1511884775874731,0,-1,-1,-3,1,0,-1,0
1511884775883756,0,-1,0,-3,-2,-2,0,-1
1511884775883756,-1,-1,-1,-2,1,-2,0,0
1511884775897792,-1,1,0,-1,0,0,0,1
1511884775897792,0,-1,0,2,-1,-1,0,-1
1511884775904999,0,-2,-1,-1,0,-2,-1,-2
1511884775904999,-1,-2,-1,-3,-1,-2,-1,0
1511884775921169,0,-4,-1,0,3,1,1,2
1511884775921169,-1,-1,0,-2,-1,-1,-2,-1
1511884775922099,-1,0,0,1,-2,-2,-3,0
1511884775922099,-1,-2,0,0,-1,0,-1,0
1511884775934183,-1,-1,0,-1,-1,1,-2,-1
1511884775934183,0,-2,-1,-1,-2,0,-2,-1
1511884775943203,-1,0,2,-2,-2,1,1,-1
1511884775943203,-3,1,0,-1,-3,-3,-3,0
1511884775957424,0,1,0,-2,-2,1,2,0
1511884775957424,-1,-2,-1,1,0,-1,-2,-1
1511884775964356,-1,0,-2,-2,-1,-1,-2,-2
1511884775964356,0,-1,-2,-1,1,-1,-3,0
1511884775980304,-2,-4,-3,-1,-2,0,-2,-1
1511884775980304,0,0,0,0,0,2,2,0
1511884775982307,-1,-1,-2,-1,-2,-1,-1,-2
1511884775982307,0,-2,-1,1,1,2,0,-1
1511884775994342,-1,-1,-1,0,-1,-2,-2,0
1511884775994342,-2,0,1,-2,0,-2,-1,1
1511884776003363,-1,0,0,0,-1,0,-1,-1
1511884776003363,-1,1,-1,-1,-1,0,-1,-1
1511884776017403,-1,-1,0,-2,-2,-1,0,0
1511884776017403,1,0,-1,-1,1,-2,-2,-1
1511884776024542,0,1,-2,0,0,-1,0,-1
1511884776024542,0,0,-1,-3,-3,0,0,1
1511884776040654,-1,-2,-1,0,2,-1,0,-1
1511884776040654,0,-3,-2,0,-2,-2,1,-1
1511884776046496,-1,0,0,-1,0,-1,-1,0
1511884776046496,0,-1,-1,-1,-1,-1,0,0
1511884776054499,0,0,2,-2,0,-2,1,1
1511884776054499,-1,-1,-1,-1,-4,-1,0,0
1511884776063523,0,-3,0,-1,2,-2,-2,0
1511884776063523,-1,-2,0,0,-1,-1,0,-2
1511884776077647,-1,1,-1,1,1,-3,0,-2
1511884776077647,0,-2,0,0,-2,1,-1,-1
1511884776084760,-1,1,-1,-1,-2,1,0,-2
1511884776084760,1,-1,0,1,-1,-1,0,1
1511884776099785,-1,-2,0,0,1,0,-2,1
1511884776099785,0,-1,-1,-1,1,-1,-2,-1
1511884776106806,0,0,0,-1,0,0,-2,2
1511884776106806,-1,0,-1,-1,-3,0,-2,-1
1511884776114828,-2,-3,0,-1,-1,-2,-2,-1
1511884776114828,0,1,-1,1,-1,-4,-1,-2
1511884776123810,-2,1,0,0,1,0,1,1
1511884776123810,-2,0,-2,-1,0,0,-1,-1
1511884776137889,0,-1,-4,-1,-2,0,0,0
1511884776137889,-1,-1,0,-1,-3,1,-3,-2
1511884776144865,-2,-1,-2,0,-2,-1,-1,-1
1511884776144865,0,0,-2,0,0,0,-2,0
1511884776159905,-1,-1,-1,-2,0,0,0,-2
1511884776159905,1,-2,-2,0,-1,0,0,-1
1511884776166927,-1,1,-1,0,0,-1,2,-2
1511884776166927,-2,-2,0,0,0,2,1,-1
1511884776174947,-2,0,0,-1,-1,0,-1,0
1511884776174947,-2,-1,0,0,-1,1,-1,0
1511884776183009,1,-1,-2,-2,-2,1,1,1
1511884776183009,-1,-2,1,-1,0,-4,-1,0
1511884776198204,0,0,0,-2,-1,-1,1,-2
1511884776198204,-1,0,0,-1,0,0,0,0
1511884776204384,0,-1,0,-2,-1,0,-2,-1
1511884776204384,-1,-1,-2,-2,0,-2,-1,-3
1511884776220433,1,1,-1,-2,-1,1,-1,-1
1511884776220433,-1,-1,-1,-1,0,0,-2,0
1511884776227247,-1,-2,0,0,0,0,-1,-2
1511884776227247,1,-1,0,-1,-1,-2,0,-1
1511884776243292,-2,1,-1,0,-3,1,-1,-1
1511884776243292,-1,-2,-2,-1,0,1,-1,0
1511884776245299,-1,-1,-1,0,0,-1,-1,-1
1511884776245299,0,-2,-1,-1,0,-1,-2,0
1511884776257443,0,0,-2,-2,0,0,-1,1
1511884776257443,-1,0,-1,-1,-1,-1,-1,0
1511884776264385,0,-2,-1,-1,-2,-2,0,-1
1511884776264385,-1,-1,-1,-1,-2,-1,0,-1
1511884776280430,-1,-4,-1,-1,-1,0,-1,0
1511884776280430,0,0,0,0,2,-2,0,-2
1511884776287405,-2,-1,-2,0,0,-2,-1,-1
1511884776287405,-2,-2,-1,1,1,0,-2,-1
1511884776303451,-2,0,-1,-1,-1,-2,0,-1
1511884776303451,-2,-1,0,-1,-1,-2,-1,0
1511884776304456,-1,-3,0,-1,-2,1,-1,0
1511884776304456,0,1,-2,0,1,0,-1,-1
1511884776317526,0,-2,-1,1,1,1,-1,0
1511884776317526,-2,-1,-1,-1,-1,-2,1,-2
1511884776324504,1,-1,0,0,-3,-1,0,0
1511884776324504,-1,-1,-2,0,-3,0,0,0
1511884776340564,1,0,0,-1,-1,-3,0,-2
1511884776340564,-1,-1,0,0,1,-1,-2,0
1511884776346610,0,-1,-2,-1,0,-1,1,-1
1511884776346610,2,-2,-1,-1,0,1,-1,0
1511884776363610,-2,-1,-1,-1,0,0,-1,-1
1511884776363610,-1,-1,-2,0,-2,0,0,-1
1511884776364609,-3,-1,1,-2,-1,1,-1,0
1511884776364609,-2,-2,-1,1,-1,0,-1,1
1511884776377788,0,0,-1,1,-1,-1,-1,0
1511884776377788,-3,0,-2,0,-1,0,-1,0
1511884776384805,-2,2,-1,-1,0,-1,-1,0
1511884776384805,-1,0,-2,-2,-1,-1,0,-1
1511884776400028,-1,0,-1,-1,-1,-1,-3,0
1511884776400028,0,0,0,-1,0,-1,-2,-3
1511884776407117,-1,-1,1,-1,-2,-1,1,0
1511884776407117,1,-2,-1,1,-1,0,-1,1
1511884776423090,-2,1,-1,-1,0,-2,0,0
1511884776423090,-1,-2,0,-2,0,-2,0,1
1511884776425056,-2,-1,0,-1,0,1,-2,-1
1511884776425056,1,0,0,-1,0,-2,1,-2
1511884776437127,0,-2,0,-2,0,1,-1,0
1511884776437127,1,1,-2,0,0,-2,0,0
1511884776446109,0,0,-1,1,0,0,-2,-1
1511884776446109,1,-1,-1,0,1,-1,-1,-1
1511884776460233,0,-1,-1,1,-3,-3,-2,0
1511884776460233,0,-2,-2,-1,-1,0,-2,-1
1511884776467374,1,2,-2,-2,1,0,-2,-1
1511884776467374,-1,-1,0,-2,0,0,-2,0
1511884776483421,0,-4,-1,-1,-1,0,0,0
1511884776483421,1,-2,1,-2,0,-1,1,2
1511884776485300,2,-1,-2,-1,-1,-1,0,-1
1511884776485300,-2,1,-1,-1,-1,-1,-1,1
1511884776497330,1,0,-1,0,0,-1,0,1
1511884776497330,-2,1,1,0,-1,0,-1,0
1511884776506355,1,-2,-1,-1,0,-2,-2,-2
1511884776506355,0,-2,-1,0,-1,-1,-1,-3
1511884776520552,-1,0,-2,0,-1,0,-1,-1
1511884776520552,0,-1,-2,0,-1,-1,-2,0
1511884776526464,-2,-2,0,0,-2,-2,-1,1
1511884776526464,0,1,-1,0,-1,-2,0,0
1511884776543499,0,1,1,0,1,0,-1,1
1511884776543499,0,0,-3,-1,-1,1,-1,-1
1511884776544501,-1,1,0,-1,1,0,1,-1
1511884776544501,-2,-1,-2,0,-1,-2,-2,2
1511884776556861,2,-1,0,0,-1,-2,-2,-1
1511884776556861,0,-1,-3,1,-1,-1,0,1
1511884776565741,0,-1,-1,-1,-1,1,-2,-3
1511884776565741,-1,0,1,-2,-1,-1,0,-2
1511884776579948,-2,0,0,-2,-1,-1,-2,-2
1511884776579948,0,-1,-1,1,-2,-1,1,-1
1511884776587050,0,-1,1,1,0,-4,0,0
1511884776587050,1,0,-1,-2,0,-1,0,-1
1511884776603222,-1,-2,-1,0,-2,-1,-1,-2
1511884776603222,1,-1,-1,-1,-1,-2,-4,-2
1511884776605064,-1,-1,-1,-2,-1,-2,-1,-1
1511884776605064,0,-1,0,0,2,1,-2,-1
1511884776617287,-2,-2,0,1,-2,0,-1,0
1511884776617287,-1,1,-1,-2,0,1,2,-1
1511884776626117,-1,-2,-2,0,1,0,0,0
1511884776626117,-1,2,0,-1,-1,0,-2,1
1511884776640331,-1,-1,2,-1,1,2,-1,-1
1511884776640331,-1,0,0,-1,-1,2,-3,0
1511884776647176,-1,-2,-2,-2,-2,1,-2,-2
1511884776647176,-2,-1,0,-1,-1,0,0,-4
1511884776663414,0,1,-1,-2,-1,-1,0,0
1511884776663414,-1,-2,-2,-1,1,-2,0,-1
1511884776665222,-2,1,-1,-1,-1,0,2,-1
1511884776665222,0,-2,-2,-1,-2,0,-1,-1
1511884776676498,0,-1,-1,-1,1,-1,-2,-1
1511884776676498,0,-2,0,-1,0,0,-1,-2
1511884776685416,0,0,-2,-2,1,-1,-1,-1
1511884776685416,-1,-1,2,-2,-1,-1,-1,0
1511884776700548,-2,0,-1,-3,0,-1,1,-2
1511884776700548,-2,-1,0,-3,-3,2,0,-2
1511884776706571,0,1,0,0,0,-1,-2,-1
1511884776706571,-3,0,-2,-1,-3,0,-1,0
1511884776723592,-2,-1,-2,-1,0,2,1,-1
1511884776723592,-1,-1,-1,0,-1,0,1,-1
1511884776724522,-3,-3,-1,-1,-2,0,-1,-4
1511884776724522,-1,-2,1,-1,1,0,1,-3
1511884776736657,0,-2,-2,-1,-2,-1,0,-1
1511884776736657,0,-1,-1,-1,-1,-2,1,-1
1511884776745614,-2,-1,2,1,-1,-2,1,1
1511884776745614,-2,1,-1,-1,-1,-3,0,1
1511884776759820,-1,0,-2,-1,-3,0,-2,-3
1511884776759820,2,0,-1,-3,0,0,-1,0
1511884776767100,1,0,-3,-1,-2,0,-3,-1
1511884776767100,0,-1,-1,-2,0,-1,-1,0
1511884776783063,-1,-1,0,-1,-1,-2,-1,-2
1511884776783063,-2,0,-1,-1,-1,0,-2,1
1511884776785044,0,-1,-1,-2,-3,1,0,-2
1511884776785044,-2,-1,0,-1,-2,-1,0,2
1511884776797101,0,-1,-2,-2,-1,1,1,1
1511884776797101,-2,0,-1,0,-2,-1,-2,0
1511884776806083,-1,-2,0,-2,0,-1,0,0
1511884776806083,0,1,1,0,0,-1,0,-1
1511884776820162,2,1,-1,0,-1,-2,-1,0
1511884776820162,-1,-2,0,-1,-1,-3,-1,0
1511884776827181,0,0,-3,1,0,0,0,1
1511884776827181,-1,-2,-1,0,-1,1,-2,-1
1511884776843306,-2,-1,0,-1,0,-1,-1,-2
1511884776843306,0,1,-2,-1,0,1,-1,0
1511884776845314,-1,-1,0,0,0,-1,0,0
1511884776845314,1,-2,-1,1,-1,0,0,-1
1511884776857330,0,1,-1,0,-1,0,-1,-2
1511884776857330,0,-1,0,-2,-2,0,-1,0
1511884776866242,0,-1,-1,0,1,-2,0,-2
1511884776866242,0,-2,-1,-1,0,-2,-1,-1
1511884776880282,-1,0,1,1,1,0,-2,0
1511884776880282,1,-1,-1,0,-1,-1,2,1
1511884776887492,0,0,-3,-2,-1,-1,-2,0
1511884776887492,0,-2,-2,0,-2,1,-1,-1
1511884776903666,0,-3,-1,-1,-2,-2,-3,1
1511884776903666,-2,0,0,-1,0,-2,-1,-1
1511884776904651,-2,-3,0,0,-1,3,0,-2
1511884776904651,0,0,-1,1,0,-1,0,0
1511884776917543,-2,0,-1,-1,1,-1,-1,0
1511884776917543,-1,0,1,0,0,0,-2,-1
1511884776925771,0,-3,-2,0,-2,-3,0,2
1511884776925771,0,-2,-2,0,-2,-3,-2,-2
1511884776940013,2,-1,-1,-3,-1,0,0,0
1511884776940013,1,-1,0,0,1,0,1,-2
1511884776947020,-2,1,0,-2,-2,1,0,0
1511884776947020,-2,-1,0,0,-3,-1,-1,0
1511884776962900,-1,-1,0,1,0,-2,0,-1
1511884776962900,-1,0,1,-1,-2,-2,0,-2
1511884776964902,-1,1,1,1,-1,0,0,-1
1511884776964902,-1,1,0,0,0,0,0,-1
1511884776977070,-1,0,2,0,-2,-1,-1,-1
1511884776977070,-1,-1,-1,-2,-1,-1,1,-1
1511884776986095,-1,-1,-1,1,0,-1,-1,1
1511884776986095,-3,0,-2,-2,1,-1,1,-1
1511884777000134,1,-1,-3,-1,1,-1,0,-1
1511884777000134,0,-1,-2,1,0,2,-3,-1
1511884777007341,0,2,0,-2,1,-1,-2,-1
1511884777007341,0,-1,0,-2,0,-1,-2,-2
1511884777022230,-1,-1,0,-3,-1,0,-1,0
1511884777022230,-3,0,0,-1,0,-2,-2,-1
1511884777029206,0,-2,-2,0,0,1,-1,0
1511884777029206,0,-1,-3,-1,-2,2,2,-1
1511884777037434,-2,0,-2,1,-1,-2,0,-1
1511884777037434,0,-2,-2,0,-1,0,-1,-1
1511884777046381,1,1,-1,-1,-1,1,1,0
1511884777046381,-1,0,-1,-1,-1,0,0,-1
1511884777060292,-2,-3,1,0,-2,0,1,-1
1511884777060292,0,-2,-1,0,-1,-2,-1,2
1511884777067322,1,-2,-1,0,-1,-2,0,-1
1511884777067322,1,-1,1,0,0,-1,-2,0
1511884777082461,0,0,-1,1,-1,-1,-1,0
1511884777082461,-2,1,-1,1,0,-1,-1,0
1511884777089473,-1,1,-2,-1,-1,-1,-2,-2
1511884777089473,2,1,0,-2,0,-2,-1,2
1511884777097388,1,-2,0,-2,0,-1,-2,0
1511884777097388,1,-1,-1,-2,-2,0,1,0
1511884777105523,-3,-3,0,-2,2,0,0,0
1511884777105523,-2,-1,-1,-1,0,0,1,-2
1511884777120452,0,-1,-1,1,0,-2,-2,-1
1511884777120452,-1,-2,0,0,-1,-1,0,-2
1511884777126465,1,-1,0,0,0,-2,-2,0
1511884777126465,-1,1,0,0,0,0,0,-1
1511884777142511,-3,-1,-1,-1,-1,1,0,-1
1511884777142511,0,0,-1,0,0,0,-2,-2
1511884777149531,0,0,-1,2,-1,-1,-1,-4
1511884777149531,-1,0,-3,0,-1,-1,-1,-2
1511884777156730,-1,0,-3,-1,-1,1,-1,-2
1511884777156730,0,-1,-1,0,-2,0,-1,1
1511884777165569,-1,-2,1,0,-3,-1,-1,0
1511884777165569,-1,-1,0,-1,-1,-1,1,0
1511884777179611,-2,-1,0,-1,-2,-1,-1,0
1511884777179611,0,-1,-2,-2,0,0,-3,0
1511884777186787,0,0,-1,-2,-2,0,0,-1
1511884777186787,-1,-1,-1,-2,0,-1,-2,1
1511884777210763,-1,0,-1,0,0,-2,0,1
1511884777210763,0,-2,-1,1,0,-2,-1,-1
1511884777212720,0,-2,1,-1,1,-2,-1,0
1511884777212720,0,-1,0,2,-2,0,-2,0
1511884777225768,1,0,-1,0,1,0,-1,-1
1511884777225768,2,-2,0,1,-1,-2,-1,-2
1511884777227736,-1,0,0,-1,-3,-2,-2,0
1511884777227736,1,-2,-1,0,0,-2,-1,0
1511884777239809,1,0,-1,0,0,-1,-1,-1
1511884777239809,-1,1,-1,1,-1,0,-1,-1
1511884777246790,-3,1,-2,1,0,-2,-3,-1
1511884777246790,-3,1,0,0,-1,-1,-1,-2
1511884777262832,1,-2,-3,-2,-4,0,0,-1
1511884777262832,-2,-2,0,-3,-1,1,0,-2
1511884777269862,-2,1,1,-1,0,1,-1,0
1511884777269862,-1,0,0,-2,-1,-2,-1,-1
1511884777285889,-4,0,0,-1,1,2,-2,-3
1511884777285889,0,-1,-2,-5,-2,0,1,1
1511884777287911,0,0,0,-1,-2,0,1,-3
1511884777287911,-1,-2,-2,-1,-2,-2,-1,0
1511884777300173,-2,0,-1,0,-2,-1,0,0
1511884777300173,-1,-1,0,0,-1,-1,0,-2
1511884777307102,0,-1,-1,-2,-1,0,0,-3
1511884777307102,1,0,-1,0,0,-1,0,-1
1511884777323142,0,-2,-1,0,-3,0,0,0
1511884777323142,-1,0,0,0,-1,1,1,2
1511884777329201,-1,-2,0,0,-1,0,-1,-1
1511884777329201,0,-1,-1,-1,-1,0,1,0
1511884777345330,-1,-1,0,-1,-1,-2,-1,1
1511884777345330,-1,1,-2,0,0,-2,-1,0
1511884777346296,1,0,-2,-2,-4,-1,-2,-2
1511884777346296,-2,0,0,-1,-1,1,-3,0
1511884777367666,-1,0,-1,-1,0,-1,-1,-3
1511884777367666,-1,-1,-1,0,-1,0,-3,0
1511884777368468,-1,-1,-2,-1,0,-1,0,1
1511884777368468,0,-3,-2,-2,-2,-2,-1,0
1511884777383508,-1,-1,-1,-1,1,0,0,0
1511884777383508,0,-1,0,0,2,-2,-1,0
1511884777389614,2,-1,-2,3,2,-1,0,1
1511884777389614,2,0,0,3,2,-1,0,0
1511884777405650,2,-3,0,2,-2,-4,-2,1
1511884777405650,0,0,1,2,0,-1,-2,1
1511884777405650,0,2,-2,1,-1,-3,-2,3
1511884777405650,-1,-2,-1,0,-2,-2,-1,-1
1511884777427833,0,0,1,0,-1,-1,-1,-1
1511884777427833,1,-2,0,-1,-1,-1,-2,-2
1511884777428837,-1,0,-1,-1,-1,-1,-2,-1
1511884777428837,-1,-1,-1,-3,-1,1,0,-1
1511884777442906,-2,0,-2,-2,-1,-1,0,0
1511884777442906,-2,0,-2,-2,-2,-1,0,-2
1511884777449977,-2,-1,-1,0,-1,1,-1,-2
1511884777449977,-1,0,2,-1,-2,-2,-1,-3
1511884777465087,-2,-2,0,-3,-1,1,0,0
1511884777465087,0,-1,-1,-2,0,-1,0,-1
1511884777465964,-1,0,0,-2,0,-2,0,-2
1511884777465964,0,-1,-2,-1,-2,-1,-1,0
1511884777487498,-1,2,-1,1,0,-1,-1,-1
1511884777487498,-2,-3,1,-1,-1,-1,-1,0
1511884777488295,-1,-1,1,-1,0,0,0,0
1511884777488295,1,0,0,0,-2,-1,-1,0
1511884777503334,2,-1,-1,-1,0,-2,2,1
1511884777503334,0,0,-2,-1,0,0,-1,-1
1511884777509353,0,1,1,-1,2,-1,-2,-1
1511884777509353,-1,1,-1,0,1,0,-1,0
1511884777524630,2,0,0,1,-1,-1,0,0
1511884777524630,0,0,0,3,0,-2,-1,-1
1511884777525525,1,-3,-1,0,-1,1,0,-1
1511884777525525,-1,-2,-1,0,1,-1,0,-2
1511884777547588,0,0,-1,1,-1,0,-1,-2
1511884777547588,-1,1,-1,-1,-2,-1,0,0
1511884777548587,-1,0,-2,-2,-1,0,-2,1
1511884777548587,0,2,-1,0,0,0,0,2
1511884777563627,-2,-1,-2,0,1,-1,-1,0
1511884777563627,2,0,0,2,-2,-1,-2,-1
1511884777569741,-2,-2,-2,0,-3,0,1,-1
1511884777569741,-3,-1,0,-2,-1,0,-1,-1
1511884777584707,-1,0,0,-2,0,-1,-2,-1
1511884777584707,-2,0,-1,-1,0,-3,-1,-3
1511884777585685,-1,-1,-1,0,-1,-1,-1,-2
1511884777585685,-1,-1,-2,-2,0,0,0,0
1511884777607752,-1,1,-1,-1,-1,0,0,-2
1511884777607752,1,-1,0,0,0,3,2,0
1511884777608795,-2,1,0,-2,0,-2,2,-2
1511884777608795,-3,-1,-2,-1,0,-1,0,-1
1511884777623786,-1,-1,-1,-2,1,-1,-2,-1
1511884777623786,-2,-1,0,-4,-2,0,-2,-2
1511884777628806,-1,0,-1,-2,-2,-3,-1,-1
1511884777628806,0,-1,-2,0,-2,-1,0,-2
1511884777644843,0,-2,0,-1,-2,0,0,-1
1511884777644843,-2,-1,0,-3,-1,1,0,-1
1511884777645845,0,-1,2,-1,0,-1,2,-4
1511884777645845,-1,0,-1,-2,-1,0,0,-2
1511884777668106,-2,0,-1,0,-1,-1,-2,-1
1511884777668106,0,0,-1,-1,-2,-1,1,-1
1511884777668106,-1,-2,-1,-1,0,2,-1,0
1511884777668106,1,0,1,0,0,2,1,-2
1511884777683116,-1,-1,-2,0,-2,0,0,0
1511884777683116,0,-1,0,0,0,1,0,0
1511884777689041,0,-2,0,0,-2,-3,-1,0
1511884777689041,-1,-1,-1,-1,0,-1,-1,0
1511884777705189,-1,-3,0,-1,1,-2,0,0
1511884777705189,-1,0,-2,0,0,-3,0,0
1511884777706007,1,-1,-1,1,0,-1,-1,0
1511884777706007,1,0,-1,-2,-1,-1,0,-1
1511884777728068,-1,-1,-1,-1,-1,-2,-1,-1
1511884777728068,-2,0,-1,0,1,-1,-1,0
1511884777728068,1,0,-2,-1,-1,0,0,-1
1511884777728068,1,-2,0,-3,-1,-2,1,0
1511884777743108,0,1,-1,-1,0,1,0,-2
1511884777743108,0,-1,-1,0,-1,-2,-1,0
1511884777749162,-1,0,1,-1,1,0,-3,1
1511884777749162,1,-1,1,1,-1,0,-3,0
1511884777765205,1,-1,-2,0,0,-2,-2,1
1511884777765205,-1,-1,-1,-1,-1,-2,0,-2
1511884777766166,-2,0,0,0,0,-2,0,0
1511884777766166,-1,-1,1,1,-1,0,-1,-1
1511884777788225,1,-1,0,2,2,0,-2,0
1511884777788225,0,1,-1,0,0,-2,-2,-1
1511884777788225,-1,-2,-2,1,-1,-1,-1,-2
1511884777788225,-1,-3,-1,0,0,-1,-1,-1
1511884777803263,-2,-2,0,-2,-1,2,-3,-2
1511884777803263,-1,2,-2,-1,0,-1,-1,0
1511884777809283,0,0,-2,-1,-1,0,-3,-2
1511884777809283,-1,1,-2,-3,-1,0,1,-2
1511884777825322,0,0,-1,1,-2,0,1,-1
1511884777825322,0,0,1,-2,0,1,-1,1
1511884777825322,0,-2,-1,-2,1,0,2,0
1511884777825322,1,-1,-4,0,1,0,-2,2
1511884777847521,1,-1,0,-2,-2,-2,-2,0
1511884777847521,0,-1,-2,-2,-1,1,-1,0
1511884777848521,-2,-2,0,0,-2,0,-2,0
1511884777848521,-2,2,-1,0,-1,-1,-2,-3
1511884777863739,-1,0,-2,-2,-1,-2,0,-1
1511884777863739,-3,-5,-2,-1,1,-1,0,-1
1511884777869718,0,-2,0,0,0,0,-1,1
1511884777869718,0,-2,0,0,1,-1,0,0
1511884777884801,1,1,-2,-1,2,-1,1,2
1511884777884801,1,-1,-1,0,5,-1,-1,-2
1511884777885764,-1,1,0,0,16,0,-1,-2
1511884777885764,-1,-2,0,-1,20,0,0,-1
1511884777907821,-2,-2,-1,-1,22,8,-1,-1
1511884777907821,2,-1,-2,0,8,1,0,1
1511884777908823,0,1,-2,-1,-26,-4,-1,1
1511884777908823,0,1,2,1,-35,-9,-2,0
1511884777923863,-1,-2,1,-1,-41,-9,0,0
1511884777923863,-1,-1,1,0,-28,-6,-2,0
1511884777938093,-2,0,0,-1,-15,-2,0,-2
1511884777938093,0,-1,-2,-2,-4,0,-1,-2
1511884777943915,-1,0,-3,-2,1,1,-1,-3
1511884777943915,-1,0,0,-1,5,4,0,-1
1511884777952119,0,-1,2,-2,9,1,-2,-1
1511884777952119,0,0,0,-1,5,2,2,-1
1511884777967341,-5,0,-3,0,7,3,0,-2
1511884777967341,-1,2,-1,-3,4,0,0,-3
1511884777968305,0,0,-2,-2,5,3,1,0
1511884777968305,1,0,-1,-3,6,1,1,2
1511884777991369,1,-3,1,-1,5,-2,0,1
1511884777991369,-1,-1,-2,0,1,-2,2,3
1511884777992367,0,-3,-1,1,3,-1,1,-1
1511884777992367,-2,-2,-1,0,1,1,3,-1
1511884778004416,1,-2,2,-1,-1,-2,0,0
1511884778004416,3,-2,2,0,2,-2,-3,0
1511884778011459,2,-2,-1,2,2,-2,-2,0
1511884778011459,-1,-4,-2,2,0,-1,-2,0
1511884778027462,0,0,-1,2,1,0,-3,-1
1511884778027462,0,-2,0,2,0,1,-2,0
1511884778028461,0,-1,-2,1,0,-2,0,0
1511884778028461,-3,0,-2,1,1,-3,-2,-1
1511884778043512,0,0,-3,0,0,-2,-1,0
1511884778043512,-3,2,0,0,-2,-2,-2,0
1511884778049521,-2,-2,-2,0,-2,1,0,-1
1511884778049521,0,1,1,-1,-2,-1,-2,-2
1511884778064770,-1,-1,1,0,-1,-2,-1,-1
1511884778064770,0,-3,1,0,-2,0,0,-2
1511884778072002,-3,3,0,-1,-2,-1,0,-5
1511884778072002,-1,0,0,-2,-1,0,-2,-1
1511884778096890,-1,1,-2,-2,-2,-1,-1,-3
1511884778096890,-3,0,0,-2,-1,1,-1,-3
1511884778096890,-3,2,0,-4,-1,-1,1,-1
1511884778096890,-2,0,-1,-3,-4,2,3,-4
1511884778102902,-3,2,1,-4,-5,1,2,-3
1511884778102902,-2,-1,-3,-5,-4,1,2,-3
1511884778108922,-4,-3,-1,-3,-2,-1,0,-1
1511884778108922,-2,-2,-1,-3,-1,0,-1,-1
1511884778133142,1,-3,0,-1,1,0,1,0
1511884778133142,1,-1,-1,-3,0,-2,2,-2
1511884778133142,1,1,0,-1,0,2,2,-1
1511884778133142,-1,-2,-2,-1,0,-1,-1,1
1511884778147020,0,-2,-1,0,1,0,-3,1
1511884778147020,1,-2,-1,1,1,-1,0,1
1511884778148022,3,-4,0,2,0,-1,-4,0
1511884778148022,3,-1,1,2,0,-1,-2,1
1511884778163135,0,0,-1,0,-1,-3,-3,0
1511884778163135,0,-1,2,0,0,-1,-1,0
1511884778169105,1,0,-3,1,1,-2,-2,0
1511884778169105,0,-1,0,3,0,-1,0,-2
1511884778184317,1,-2,0,1,0,-1,0,-1
1511884778184317,-1,-1,-1,3,-1,0,-3,1
1511884778192159,1,1,0,2,-1,-3,-2,1
1511884778192159,2,-1,-1,1,0,-2,-5,3
1511884778207180,0,-3,0,2,0,-1,-2,-1
1511884778207180,1,-2,0,0,0,-2,-1,1
1511884778208181,0,1,0,2,-1,-1,-3,0
1511884778208181,-3,1,0,-1,0,0,-1,-1
1511884778223223,-3,2,-2,-2,-1,0,0,-2
1511884778223223,-3,1,-1,-3,-2,2,-2,-3
1511884778229241,-1,-1,0,-2,-1,-1,-1,-2
1511884778229241,-1,-1,-2,-1,-2,-3,1,-1
1511884778244406,0,-3,0,0,0,0,0,-1
1511884778244406,0,0,-1,-1,0,0,1,1
1511884778251553,-2,0,0,-2,1,1,-1,-1
1511884778251553,-1,-1,-1,0,-2,-1,-1,-2
1511884778267579,-2,1,0,-4,-2,2,-1,-1
1511884778267579,-2,0,-1,-1,0,0,0,-2
1511884778268469,-4,0,-1,-4,-2,0,1,-4
1511884778268469,-2,1,1,-1,-2,2,1,-1
1511884778283648,-3,1,0,-3,-2,1,1,-3
1511884778283648,-3,0,0,-3,-2,2,0,-3
1511884778289752,-3,-1,-2,-5,0,2,0,1
1511884778289752,-1,-1,-1,-4,1,1,1,-2
1511884778304707,-1,0,-2,-2,-2,0,2,-2
1511884778304707,-2,-1,-1,-4,-1,0,2,-2
1511884778311726,-2,-2,0,0,0,2,2,0
1511884778311726,-3,-2,1,-2,-1,1,0,0
1511884778327807,0,-1,0,0,-1,-2,-2,1
1511884778327807,1,-2,-2,-1,-1,-3,-1,0
1511884778328794,0,-2,0,0,-1,-2,1,1
1511884778328794,1,0,0,1,0,-1,0,0
1511884778342898,-1,-2,1,1,0,0,0,1
1511884778342898,-1,-1,0,2,-1,0,-3,-1
1511884778349947,0,-1,0,-1,1,-3,-1,1
1511884778349947,2,-1,-2,-2,2,-2,-2,0
1511884778364956,0,0,-1,0,-1,-3,1,-1
1511884778364956,0,0,0,0,1,0,-1,0
1511884778371975,0,0,-1,1,-1,1,0,-2
1511884778371975,-2,0,-2,-1,-1,-2,-1,-1
1511884778388140,-1,0,-1,-1,-1,-1,0,-3
1511884778388140,0,-2,-1,-1,-2,1,1,-1
1511884778388140,-2,-1,-3,-1,-2,1,-1,-1
1511884778388140,-1,0,-1,0,-1,0,0,-1
1511884778403166,1,-2,-2,0,0,1,0,2
1511884778403166,0,-2,-1,-1,0,-2,0,0
1511884778409282,1,-2,-1,0,0,-3,0,0
1511884778409282,1,-3,1,0,1,0,-1,-1
1511884778424147,0,0,-1,1,1,-2,-2,-1
1511884778424147,2,-3,-1,1,-1,-1,-3,0
1511884778432168,1,-2,-1,2,1,-1,-2,1
1511884778432168,0,0,-2,-1,-1,-1,-1,2
1511884778447466,1,-1,0,3,0,-2,-1,0
1511884778447466,0,-1,-1,1,1,-2,-1,0
1511884778448351,-2,2,-1,-1,-4,-1,-2,-3
1511884778448351,-1,-1,0,-2,-1,3,-2,-3
1511884778463391,-4,1,-1,-1,-2,1,-2,-1
1511884778463391,-2,0,0,-2,-2,0,0,-2
1511884778469407,-1,0,0,-2,-1,2,0,-2
1511884778469407,-2,-2,-3,-1,-1,-1,2,-1
1511884778484729,0,-3,-1,-3,0,1,2,-1
1511884778484729,-2,0,-1,-1,-1,1,-1,-3
1511884778491716,2,0,0,-1,0,2,0,0
1511884778491716,0,-2,0,-1,0,5,-1,0
1511884778507728,1,-2,-1,-1,-2,7,-1,1
1511884778507728,1,-1,0,0,0,3,1,1
1511884778508732,0,-2,1,0,0,1,-2,-1
1511884778508732,0,0,-2,1,0,-4,0,1
1511884778523768,0,0,0,0,0,-14,-2,0
1511884778523768,0,1,-1,-1,0,-12,-1,-2
1511884778529787,-1,-1,-1,1,-2,-14,-2,-2
1511884778529787,-3,1,0,-1,-2,-9,-1,0
1511884778544827,-1,3,0,-1,-1,-5,0,-2
1511884778544827,-2,-1,-2,0,-2,2,-2,-1
1511884778552039,-2,-1,-2,-3,-2,3,0,-1
1511884778552039,-3,-1,-2,-1,1,2,-1,-2
1511884778567227,-2,-1,-2,-3,0,6,-2,-4
1511884778567227,1,0,-1,-1,1,5,2,-1
1511884778568123,-1,-1,0,-1,0,3,1,-1
1511884778568123,2,-2,0,0,-1,3,0,2
1511884778583212,1,-2,0,1,-1,-2,-2,1
1511884778583212,0,-1,-1,2,1,-1,-1,-1
1511884778589307,-1,0,-1,0,-2,-1,-1,0
1511884778589307,1,-1,-3,0,-3,0,-2,-1
1511884778604416,0,-3,-2,0,-2,3,1,0
1511884778604416,-1,-1,1,0,0,0,-2,-2
1511884778612353,-2,-3,0,2,1,-1,1,-2
1511884778612353,-1,-2,-1,-1,-2,0,1,1
1511884778627402,-1,1,-3,-2,-1,-3,1,0
1511884778627402,-2,-1,-1,-2,-1,-2,1,0
1511884778628283,0,2,-3,-1,1,0,-3,-2
1511884778628283,-1,1,-1,0,-2,-2,-1,-2
1511884778643489,0,0,-1,0,-1,0,-2,1
1511884778643489,-2,-1,-1,-1,-1,-2,-1,-1
1511884778649508,0,2,-1,-2,-1,0,0,0
1511884778649508,-1,1,1,-3,1,0,-2,-1
1511884778664548,-2,-1,1,-1,-2,0,-2,-2
1511884778664548,-3,0,1,-3,-3,0,0,-2
1511884778671824,0,-2,-1,-2,-1,0,1,-1
1511884778671824,-2,-1,-1,-1,0,-1,-1,-2
1511884778687788,-2,-1,0,-1,2,1,-1,0
1511884778687788,-1,-1,-1,-2,-2,-3,0,1
1511884778688757,-1,-2,1,-1,1,0,1,-2
1511884778688757,-1,-1,-1,-1,-1,0,1,0
1511884778703003,-2,-1,1,-1,0,-1,-1,-1
1511884778703003,1,0,-1,1,1,-1,0,2
1511884778709988,1,-1,-1,1,-1,-3,-1,2
1511884778709988,0,1,-1,1,0,-1,-1,0
1511884778724064,1,1,1,1,0,-2,1,2
1511884778724064,-1,0,0,1,0,0,-1,0
1511884778732046,1,0,-1,0,2,-2,-1,0
1511884778732046,-1,0,0,-1,1,-3,-1,0
1511884778747147,2,-1,-2,0,2,-3,-2,1
1511884778747147,0,-3,1,0,-1,-1,-1,0
1511884778748112,1,-2,-1,1,0,-1,-2,0
1511884778748112,0,-2,0,0,-1,-1,-1,-2
1511884778763146,-1,0,-1,0,-1,0,-1,-2
1511884778763146,1,-2,-1,1,-1,-2,-2,0
1511884778769191,2,-1,0,0,-2,-1,-1,3
1511884778769191,0,2,-1,1,-2,0,-1,2
1511884778784243,0,1,-1,0,-2,0,-1,-1
1511884778784243,0,1,-1,0,1,-1,-2,1
1511884778792227,-1,1,-1,0,-3,1,-1,0
1511884778792227,-2,0,-1,-1,-1,-2,-1,-2
1511884778807377,-1,0,1,-2,-2,0,-5,-2
1511884778807377,-1,-1,-2,-1,-1,0,-2,-3
1511884778808271,0,2,-2,0,-2,-2,1,-1
1511884778808271,-1,-2,0,0,-2,-3,-2,-2
1511884778823311,-2,0,-2,-2,0,0,1,-2
1511884778823311,-1,-1,-2,-1,-2,-2,0,0
1511884778829326,-1,-3,-2,-1,0,1,0,0
1511884778829326,1,-1,-1,1,-1,-1,1,-2
1511884778844403,0,-3,0,0,-1,-5,-5,-1
1511884778844403,-2,-1,-1,-1,-2,0,-1,0
1511884778852385,1,-1,0,-2,-2,-3,-2,0
1511884778852385,0,-1,-1,-1,1,1,0,-1
1511884778866503,1,-1,-1,-1,-1,-2,1,-1
1511884778866503,0,0,-1,-1,0,-2,-1,-1
1511884778874536,-1,1,-2,-1,0,-1,-1,-1
1511884778874536,-3,-1,0,-1,-2,-1,-2,-2
1511884778883546,0,-2,0,-1,-2,2,1,1
1511884778883546,-2,0,-1,-2,-2,1,0,-2
1511884778889670,-1,-1,1,-1,0,-1,1,-1
1511884778889670,-1,-1,-2,0,1,1,-1,-1
1511884778904604,-1,-1,-1,-2,0,-2,1,-2
1511884778904604,-2,-2,1,-2,0,2,-2,0
1511884778911652,-3,0,-1,-2,-1,1,-1,-3
1511884778911652,-1,1,1,-1,-1,1,0,0
1511884778926665,-1,0,-1,0,-2,0,1,-2
1511884778926665,1,-2,-3,-2,-3,-2,0,1
1511884778934690,-3,-1,-1,-1,-2,0,-1,-1
1511884778934690,-2,-1,0,-4,1,-1,1,-2
1511884778943710,-2,0,-1,-1,1,1,2,-1
1511884778943710,-1,1,-1,0,-1,0,1,-1
1511884778949761,0,-1,0,0,-1,-1,0,-1
1511884778949761,-1,0,-1,-3,-2,-2,0,0
1511884778964794,-2,-2,1,-2,0,-2,0,0
1511884778964794,-1,0,0,-3,1,-1,1,-2
1511884778971920,-1,-1,0,-1,0,1,-2,-2
1511884778971920,-1,-2,-2,-2,-1,1,-1,-1
1511884778988907,-2,-1,0,-1,0,1,0,-1
1511884778988907,-1,-1,1,0,0,0,2,0
1511884778993923,0,-1,-2,-1,0,1,0,0
1511884778993923,-1,0,-1,0,-1,0,0,-4
1511884779003110,1,0,-3,-1,-1,1,0,1
1511884779003110,0,0,1,0,-1,-1,-1,-1
1511884779008964,-1,-3,-1,-1,0,-1,0,-1
1511884779008964,1,-1,0,1,2,-2,-1,2
1511884779024413,0,-2,-1,2,-1,-1,1,0
1511884779024413,0,-2,-3,1,0,-3,-1,-1
1511884779040449,1,-1,0,0,1,-1,0,2
1511884779040449,0,-2,-1,0,-1,-1,0,1
1511884779047299,0,-1,-1,0,0,-1,-1,0
1511884779047299,-1,-3,0,-1,1,-2,0,2
1511884779054492,0,-2,-2,0,0,-3,0,-2
1511884779054492,-1,-1,0,1,-1,-1,1,2
1511884779070603,1,-2,-1,0,0,0,-2,-2
1511884779070603,1,0,-1,2,-1,-1,-2,-3
1511884779071478,-1,0,1,-1,0,-2,0,0
1511884779071478,2,-1,0,0,2,-3,-1,-1
1511884779085514,0,0,0,0,-1,-2,1,1
1511884779085514,0,-1,-2,2,-2,-2,1,1
1511884779091530,-1,0,-1,0,-1,-1,0,-2
1511884779091530,1,0,-1,0,-1,-1,-4,0
1511884779106742,0,1,-1,-1,0,0,-3,-1
1511884779106742,0,0,-3,-1,-2,1,-3,-2
1511884779114676,-3,0,-1,-1,-2,0,-1,-2
1511884779114676,-2,0,-2,-3,-2,-1,2,-2
1511884779130719,-3,-1,0,-1,-3,3,1,-2
1511884779130719,-4,-1,-1,-5,-2,1,1,-2
1511884779130719,-1,-1,-2,-1,-2,0,-1,0
1511884779130719,-1,0,1,0,-1,-1,0,0
1511884779144761,0,-3,-1,0,2,-2,0,1
1511884779144761,1,-1,0,1,0,0,0,0
1511884779159754,-1,0,-1,-1,-2,-2,0,-2
1511884779159754,-1,1,-2,-1,-1,-2,0,0
1511884779166809,-1,-1,-1,-1,-3,0,-2,-1
1511884779166809,-3,0,0,-2,1,-3,0,0
1511884779174819,-1,-1,-1,0,0,0,-2,2
1511884779174819,2,-2,-1,0,1,0,0,4
1511884779190100,2,0,-3,2,0,-4,-3,3
1511884779190100,2,-3,0,2,0,-3,-1,3
1511884779190982,2,-3,1,1,0,-3,-3,-1
1511884779190982,2,-3,2,2,8,-1,-1,0
1511884779204059,0,-2,-1,1,74,-1,0,-1
1511884779204059,2,0,-1,2,98,-2,-1,0
1511884779212158,-1,-2,0,0,22,4,-2,-1
1511884779212158,-2,0,0,-1,-35,3,-1,-3
1511884779227365,-3,1,0,0,-87,-1,-1,-3
1511884779227365,-2,1,0,-3,-82,-4,-3,-2
1511884779234314,-3,0,1,-2,-52,-5,-1,-4
1511884779234314,-5,-1,-1,-1,-38,-4,-1,-3
1511884779250459,-4,2,0,-4,-24,-3,0,-2
1511884779250459,-3,0,-1,-4,-13,1,1,-4
1511884779251324,-2,0,-1,-5,0,4,1,-2
1511884779251324,-1,-1,0,-2,12,3,2,-3
1511884779264354,-1,0,0,-2,17,3,2,-2
1511884779264354,-4,2,0,-3,4,4,1,-2
1511884779272380,-2,0,-2,-3,6,1,3,-2
1511884779272380,-4,0,-1,-5,18,3,1,-2
1511884779287452,-4,-1,0,-4,11,3,2,-2
1511884779287452,-4,1,-1,-4,-4,2,3,0
1511884779294650,-1,0,0,-2,8,1,0,1
1511884779294650,0,-1,-1,-1,16,-3,0,2
1511884779309690,2,-3,-1,0,5,-1,-1,2
1511884779309690,1,-2,0,1,-1,0,1,-3
1511884779310690,-2,0,0,0,4,-1,2,1
1511884779310690,-4,3,-1,-3,3,1,-1,-2
1511884779324728,-2,2,2,-4,-3,3,1,-2
1511884779324728,-4,-1,-2,-3,-4,2,2,-2
1511884779331748,-1,1,-1,-2,2,0,2,-5
1511884779331748,0,-1,-2,-2,1,-3,1,0
1511884779346980,-1,-1,-2,-2,0,-3,1,2
1511884779346980,0,-2,-2,2,1,-1,1,3
1511884779354930,4,-4,-2,3,2,-4,1,5
1511884779354930,3,-5,1,3,2,-4,-3,5
1511884779369966,5,-3,0,5,3,-5,-4,3
1511884779369966,4,-1,1,5,-3,-4,-4,5
1511884779370969,2,-1,0,5,1,-5,-2,2
1511884779370969,2,-1,-2,5,-1,-2,-2,-3
1511884779386007,0,1,-2,2,-1,-3,-1,-2
1511884779386007,0,0,0,1,-3,-1,-5,-5
1511884779392027,-2,1,-1,0,0,-1,-2,-3
1511884779392027,-3,2,-2,0,1,-1,-3,-1
1511884779407448,-3,-1,0,-1,-4,1,0,-2
1511884779407448,-3,-1,-1,-2,-2,-1,-1,0
1511884779414440,-2,1,2,-2,-3,0,0,-2
1511884779414440,-4,0,-1,-3,-1,0,1,-3
1511884779430483,-2,0,-1,-1,-2,2,0,-2
1511884779430483,-1,3,-2,-1,-1,1,-1,-3
1511884779431483,-3,-1,-2,-2,-1,0,0,-2
1511884779431483,-1,-2,1,-3,-1,0,1,-2
1511884779444797,-1,-3,-1,-3,-2,0,0,-1
1511884779444797,-1,-2,-2,-2,1,1,1,1
1511884779451808,0,-1,-1,-1,-2,-1,-2,1
1511884779451808,2,0,0,-1,1,1,-1,0
1511884779466854,1,0,1,0,0,-3,-3,0
1511884779466854,-1,0,-1,0,0,-1,-1,-2
1511884779473832,-1,-1,-1,1,-2,-1,-1,-1
1511884779473832,-1,-1,-1,2,-1,0,0,-1
1511884779490316,0,-2,-1,0,0,-2,-1,-1
1511884779490316,1,-1,-1,1,-1,-1,-1,1
1511884779491124,0,-1,-3,1,0,1,-1,0
1511884779491124,-2,-2,-3,1,1,-2,-2,1
1511884779506188,1,-1,-1,0,1,-2,-1,1
1511884779506188,2,1,2,1,-1,-1,-2,3
1511884779512183,0,-2,-1,1,0,0,-1,1
1511884779512183,-2,-1,0,-1,0,-2,0,-1
1511884779527219,0,-1,-1,0,2,-1,-2,-1
1511884779527219,-3,0,0,-1,0,-4,0,0
1511884779534444,2,-2,0,-2,0,-1,-2,-2
1511884779534444,0,0,0,-1,-2,-2,-1,-1
1511884779550620,-2,-1,-1,2,-2,-4,-2,-2
1511884779550620,-2,-3,-1,0,0,2,1,0
1511884779551449,-1,1,-1,-1,-3,-1,0,-2
1511884779551449,-2,-1,-2,0,-1,1,-2,-3
1511884779565565,0,-1,0,0,0,1,1,-1
1511884779565565,0,0,-2,-2,-2,0,-2,-1
1511884779579713,-1,-1,-1,-1,1,-1,-1,-2
1511884779579713,-1,-1,1,-1,0,0,-1,1
1511884779586663,-1,0,-1,-1,2,1,-2,-1
1511884779586663,-1,-1,-2,-1,0,-1,2,0
1511884779594714,0,-1,-2,0,0,0,-1,0
1511884779594714,0,-3,-2,-1,-1,-2,0,-3
1511884779609726,0,-2,-1,-2,-1,2,0,-1
1511884779609726,-2,-1,0,-1,-1,-1,-1,-3
1511884779610725,-1,0,0,-1,0,-1,1,0
1511884779610725,0,0,2,-3,-1,2,-2,-2
1511884779625765,-2,1,1,-1,-2,0,1,-1
1511884779625765,-1,-1,0,0,-2,-2,-2,-2
1511884779631784,-1,1,1,0,0,2,0,-1
1511884779631784,0,0,-1,-2,-1,1,-2,-1
1511884779647005,-1,1,-1,0,0,1,0,-1
1511884779647005,-2,-2,-1,-2,-2,-1,-1,-2
1511884779654849,-1,0,-1,-1,-3,-1,0,-2
1511884779654849,-2,1,-3,-1,-2,0,-1,-1
1511884779669882,-1,-1,-1,0,0,0,1,-5
1511884779669882,0,-2,-3,-1,-1,-1,0,0
1511884779670885,0,-1,-1,-1,-1,1,-1,-1
1511884779670885,0,-1,-1,-2,-1,-2,0,0
1511884779686070,-1,-1,-1,-2,-1,2,-1,1
1511884779686070,-2,-1,-2,0,1,-1,-2,-1
1511884779692162,-1,0,-2,-2,0,0,0,-2
1511884779692162,0,-3,-1,1,-1,-3,0,1
1511884779707295,-1,0,-2,-1,-1,-1,0,1
1511884779707295,2,1,0,-1,-1,2,-2,-1
1511884779714344,-1,-1,0,1,0,-3,0,0
1511884779714344,2,-1,0,-1,1,-1,-1,-2
1511884779730421,-1,0,-1,-1,-1,-4,-1,1
1511884779730421,0,-2,1,-1,1,0,-1,0
1511884779730421,-1,0,0,0,-1,-3,-2,1
1511884779730421,-1,-1,1,2,-1,-1,0,-1
1511884779745453,1,1,-1,1,-1,1,-1,-2
1511884779745453,2,-1,0,0,-1,-1,0,0
1511884779751469,0,0,1,0,-2,0,0,-1
1511884779751469,-3,-1,-1,1,0,-2,-1,0
1511884779766849,0,-3,-1,1,0,0,-1,0
1511884779766849,-1,0,-2,0,0,0,-1,-1
1511884779774785,2,-1,0,-1,-1,-1,1,0
1511884779774785,0,1,-1,0,-1,-1,-1,0
1511884779790167,0,1,0,0,-1,-2,-2,0
1511884779790167,-1,-1,0,-1,-2,-1,-1,-2
1511884779791042,-2,0,-2,-2,-1,1,-2,-2
1511884779791042,-2,0,-1,-3,-3,1,-1,-3
1511884779806129,-1,0,0,-4,-1,1,0,-1
1511884779806129,-3,2,0,-2,-2,-1,0,-1
1511884779812099,-3,0,0,-2,0,1,-1,-2
1511884779812099,-2,0,-1,-2,-1,-1,0,-1
1511884779827348,0,-1,-1,-2,-1,2,1,-2
1511884779827348,-1,-2,0,-2,0,0,2,-2
1511884779834561,1,-2,-2,-2,0,1,1,1
1511884779834561,1,-2,0,0,0,-3,0,0
1511884779849587,1,0,0,-1,-1,-2,0,0
1511884779849587,0,-1,1,-1,0,-1,-2,2
1511884779857460,-2,0,0,0,-1,-1,-2,-1
1511884779857460,-2,0,0,2,-1,-2,-1,-1
1511884779865453,-1,0,-2,-2,2,-2,0,2
1511884779865453,2,-3,-3,1,0,-1,1,-1
1511884779871468,-1,0,1,1,0,0,1,-1
1511884779871468,1,0,-2,-3,0,2,1,3
1511884779886688,-3,1,1,0,-1,-1,-2,-3
1511884779886688,0,-2,-1,-2,0,1,-1,-1
1511884779894530,0,-1,-1,0,-1,-3,0,-1
1511884779894530,0,-1,0,1,-1,1,-1,-1
1511884779910711,0,-1,-3,0,-2,-1,-2,-1
1511884779910711,0,1,-1,-3,-2,-1,-2,1
1511884779917059,0,0,-1,0,0,0,0,-2
1511884779917059,-1,-1,-1,-1,0,-3,-2,-3
1511884779925891,0,-3,-2,-2,-2,-1,0,2
1511884779925891,-1,-2,0,0,0,-1,-2,0
1511884779932037,0,10,-3,0,-2,-1,-2,-1
1511884779932037,1,6,0,0,-2,-1,-2,0
1511884779947077,0,-2,0,0,-1,0,-2,-1
1511884779947077,0,-9,0,1,0,-1,-1,0
1511884779954276,0,-14,-1,-2,0,2,-1,2
1511884779954276,-1,-8,0,0,-1,1,-3,0
1511884779969156,1,-2,-2,2,0,-2,-2,-2
1511884779969156,-1,2,-1,1,0,-2,-1,-1
1511884779977385,-2,-1,-1,1,2,-2,-2,-2
1511884779977385,0,2,0,1,2,0,-3,-2
1511884779985439,-4,2,-2,-1,-1,-1,1,-1
1511884779985439,-1,3,0,0,0,-3,-2,-3
1511884779992357,0,1,-3,-2,-1,0,-1,-1
1511884779992357,-3,1,-1,-2,-1,1,0,0
1511884780007397,-3,1,1,0,-1,2,-2,-3
1511884780007397,-3,1,0,-1,-1,0,2,-2
1511884780014420,-1,-1,0,0,-1,0,-2,0
1511884780014420,-2,-5,-1,-2,1,-1,1,-1
1511884780029517,2,0,0,-1,0,-1,-3,1
1511884780029517,1,1,0,-1,-1,-1,1,-1
1511884780036535,0,2,0,-2,-1,-1,0,0
1511884780036535,-1,2,-2,-1,-2,1,0,0
1511884780052575,0,-2,-2,0,-2,0,1,-1
1511884780052575,-2,1,0,-3,-3,1,0,-1
1511884780053578,-1,-3,1,-1,0,-1,0,-3
1511884780053578,0,-2,-1,0,1,0,-1,-1
1511884780066611,0,0,0,1,0,-2,1,0
1511884780066611,1,-1,-2,2,1,0,0,0
1511884780074634,0,0,-3,0,0,-3,-2,2
1511884780074634,0,0,-1,0,-1,-3,-2,-1
1511884780097969,1,-2,-2,1,0,-1,-3,1
1511884780097969,0,-2,-1,1,-2,0,-1,0
1511884780097969,-1,1,-2,0,-2,0,-2,-1
1511884780097969,1,0,-1,0,-1,-2,1,-1
1511884780112976,0,-1,1,0,0,-2,-1,-2
1511884780112976,2,-2,-1,0,-1,1,-4,0
1511884780112976,-1,-2,-1,0,-3,1,-2,-2
1511884780112976,-1,-2,0,1,0,1,-3,1
1511884780126989,0,-2,0,-1,-2,-1,-2,-1
1511884780126989,-1,0,-1,-1,-2,0,-2,1
1511884780134052,0,-3,0,-1,-1,-1,-3,-1
1511884780134052,-1,0,1,0,-2,-1,0,-1
1511884780149093,-1,0,-1,0,-2,-1,-1,0
1511884780149093,2,-1,-2,0,-1,-3,-1,-1
1511884780157114,-2,-3,-1,-2,1,-1,0,-2
1511884780157114,0,1,-1,1,-1,-1,-1,0
1511884780173149,-1,1,-1,-2,0,0,0,-1
1511884780173149,-2,-2,-3,1,0,-1,0,-1
1511884780173149,-2,-1,-3,1,-3,0,0,1
1511884780173149,1,1,-1,-1,-1,0,2,1
1511884780187363,0,1,0,0,-1,-1,-2,-1
1511884780187363,-2,2,1,-1,1,-1,-3,0
1511884780194287,1,-1,-1,-1,0,-1,1,-1
1511884780194287,0,0,1,0,-2,-2,0,-2
1511884780209351,-2,-2,-1,-1,1,-2,-2,0
1511884780209351,0,-1,1,-1,0,0,0,-1
1511884780217518,-1,2,-1,0,0,0,0,0
1511884780217518,-1,-2,0,-3,-3,0,0,2
1511884780233069,1,-1,-1,-1,0,-1,0,-1
1511884780233069,1,-1,-1,-1,-2,0,0,-1
1511884780233898,0,0,-1,0,0,-1,-1,0
1511884780233898,-2,-1,0,0,0,0,-2,-1
1511884780247173,-2,-2,-1,0,0,0,1,-1
1511884780247173,-1,-3,-3,0,-2,-1,-1,0
1511884780254189,1,-1,-1,-1,1,-2,-1,-4
1511884780254189,-3,-1,-2,1,0,2,-2,-1
1511884780269131,-1,-2,-1,-2,-2,-1,0,-3
1511884780269131,-2,0,-1,0,0,2,1,-2
1511884780277229,-3,-1,1,-1,-1,0,0,-1
1511884780277229,3,-2,0,0,-1,0,-1,-1
1511884780292271,-2,-2,0,-2,-2,0,1,0
1511884780292271,-3,-1,-1,-1,-2,-2,-2,0
1511884780293274,0,-1,-1,-1,1,1,-2,1
1511884780293274,0,0,-1,-3,-2,-2,-1,-2
1511884780307327,-2,1,0,-2,1,0,0,-3
1511884780307327,1,-1,0,0,0,1,0,-1
1511884780314372,-3,-1,-1,-4,-1,-2,2,-2
1511884780314372,-1,0,0,-4,0,1,1,-1
1511884780329510,0,-1,0,-1,0,1,-2,-1
1511884780329510,-1,0,-1,-1,-1,0,-1,-1
1511884780337528,-1,-2,-1,0,0,1,0,-1
1511884780337528,0,-1,-1,-2,-2,-1,0,-1
1511884780352589,-2,-2,-2,-3,-1,-2,1,0
1511884780352589,-2,-1,0,-1,-2,2,1,-2
1511884780353730,0,-2,0,-2,-4,1,1,0
1511884780353730,-2,-1,-2,0,2,0,-1,-3
1511884780366609,1,-1,-1,-2,-1,-2,-2,1
1511884780366609,1,-1,-1,0,2,-1,0,-2
1511884780374820,0,0,0,-2,-1,-1,0,1
1511884780374820,-1,-1,-1,0,-1,1,-1,2
1511884780389842,1,-2,0,-1,0,-1,1,1
1511884780389842,0,-1,0,-2,1,-3,-1,1
1511884780396875,0,2,-2,0,-1,-2,-2,-2
1511884780396875,-1,0,0,0,0,-2,0,0
1511884780412731,0,-1,-1,1,2,1,-1,1
1511884780412731,0,-2,2,0,-1,-3,-1,2
1511884780413734,1,-2,2,1,2,0,-1,0
1511884780413734,0,-1,-1,0,0,0,-1,0
1511884780426950,-1,0,-3,-1,-1,0,-1,-1
1511884780426950,0,1,-2,0,-2,-2,-1,0
1511884780434790,0,-1,-2,2,-2,-2,-2,1
1511884780434790,-1,-2,1,2,0,-2,-2,-2
1511884780449830,0,0,0,2,-2,-1,-1,-1
1511884780449830,-2,-2,-2,0,0,-1,2,-3
1511884780457121,-3,0,-1,0,-2,-1,0,-2
1511884780457121,-1,0,0,-3,-2,-1,0,-2
1511884780472111,-3,0,0,-1,-1,0,1,-2
1511884780472111,-2,-1,-1,-5,-2,1,0,-3
1511884780473113,0,-1,-2,0,0,0,2,-2
1511884780473113,-3,-2,-2,0,-1,1,-1,-2
1511884780487221,0,0,0,-1,1,0,0,1
1511884780487221,0,-2,-1,0,1,-1,-2,1
1511884780494224,0,-1,0,-1,-1,-2,0,2
1511884780494224,-1,-1,0,0,-1,0,0,0
1511884780509268,1,-1,-3,0,1,-3,-1,1
1511884780509268,3,-2,0,3,-1,0,-2,3
1511884780517288,1,0,1,0,0,-1,-2,1
1511884780517288,0,-2,0,-1,-1,-1,0,0
1511884780532367,1,-4,-2,0,-1,1,-1,1
1511884780532367,0,-2,-2,0,0,0,2,1
1511884780533352,-1,-3,-2,-2,-1,-1,-1,-2
1511884780533352,0,1,-2,1,1,-2,-1,1
1511884780546397,-3,1,-1,1,0,1,0,-2
1511884780546397,-4,0,-2,-3,-2,0,-1,-3
1511884780554609,-1,1,-1,-2,-2,1,-1,0
1511884780554609,0,1,0,-2,-1,-1,0,0
1511884780569457,-1,1,0,-2,-1,-1,0,-2
1511884780569457,1,0,-1,-1,-1,2,-2,-2
1511884780576478,-2,0,-2,-2,-1,0,0,0
1511884780576478,-3,0,1,-2,-2,-1,-1,-3
1511884780592621,-3,0,0,-3,0,0,0,0
1511884780592621,-2,2,-1,-2,0,0,1,-1
1511884780593523,0,0,-1,-2,1,0,2,-1
1511884780593523,-1,-3,-1,-3,-1,2,1,-2
1511884780606753,-2,-1,-1,-2,-3,-2,1,-2
1511884780606753,1,0,1,-3,-4,-1,1,-2
1511884780614757,-2,-3,0,-3,-4,2,1,-1
1511884780614757,0,-1,-1,-3,-2,1,2,1
1511884780629825,-1,0,-1,-1,-1,1,0,-1
1511884780629825,-3,-1,-2,-1,-1,0,-1,-2
1511884780636922,0,-2,0,0,-1,1,1,0
1511884780636922,2,-1,0,-1,-2,-1,-1,0
1511884780652914,0,-2,1,0,-2,0,0,1
1511884780652914,-2,-1,1,1,1,-2,1,0
1511884780653911,0,-2,-1,-2,2,-2,0,0
1511884780653911,1,-3,-2,0,0,-4,1,0
1511884780666926,0,0,-2,-1,1,-2,0,-1
1511884780666926,-1,-2,1,-1,-1,-1,-2,2
1511884780674120,0,-2,0,-1,2,-2,-1,-1
1511884780674120,0,-1,0,1,0,0,-2,1
1511884780690015,1,-1,-1,1,-1,-1,-1,1
1511884780690015,2,0,-1,0,0,-2,-1,0
1511884780697132,-1,0,0,2,-1,-1,-2,0
1511884780697132,-1,3,-1,-1,-1,-1,-2,-2
1511884780712046,-1,-2,-1,1,-2,1,0,-1
1511884780712046,0,0,-1,-1,1,0,1,0
1511884780713045,1,1,-1,2,0,-1,-1,0
1511884780713045,0,-2,-1,2,1,-2,-2,2
1511884780727086,0,1,0,2,-1,0,-2,-1
1511884780727086,-1,-1,-2,1,-4,-1,1,-2
1511884780734288,-2,2,-1,0,-2,-1,-1,-1
1511884780734288,-2,-1,0,-2,0,-2,1,0
1511884780749391,-1,-3,0,-4,-2,-1,-3,1
1511884780749391,-1,0,-1,-1,-1,-2,-3,-1
1511884780757289,1,-1,0,-2,0,0,-1,-2
1511884780757289,-2,-2,0,0,0,1,0,0
1511884780772431,-2,1,-1,-1,-1,-2,0,-1
1511884780772431,-2,-1,-3,-1,-1,0,-2,-1
1511884780780460,2,-2,-1,-1,-1,-1,-2,0
1511884780780460,-1,-1,-2,1,0,-1,-2,0
1511884780787394,1,-1,2,1,0,-2,-1,1
1511884780787394,2,-3,2,2,0,-2,0,1
1511884780794490,-1,0,1,0,0,-2,1,0
1511884780794490,1,0,-1,1,0,-2,0,0
1511884780809552,0,0,-1,0,-1,-1,-2,-3
1511884780809552,-2,-1,-1,0,-3,1,0,-3
1511884780816446,-3,1,0,-3,-1,0,-1,-2
1511884780816446,-5,0,-2,-3,-2,1,2,-4
1511884780831519,-4,1,-3,-4,0,1,-1,-3
1511884780831519,-3,0,-2,-3,-2,0,0,1
1511884780840550,1,-2,-1,0,-2,1,-1,1
1511884780840550,0,-3,-1,-1,-1,-3,0,1
1511884780846613,1,-3,-2,1,1,-3,0,3
1511884780846613,1,-1,0,1,1,-1,-1,1
1511884780854658,3,-2,-2,2,1,-1,-2,3
1511884780854658,2,0,-1,2,-1,-2,-1,0
1511884780869753,1,0,1,2,2,0,-1,1
1511884780869753,1,-1,-1,2,0,-3,-2,-1
1511884780876771,1,-1,-2,1,-1,0,-1,-1
1511884780876771,0,0,1,1,-2,0,-4,-1
1511884780891938,1,-2,-1,-2,-3,-2,0,1
1511884780891938,-1,0,-1,1,1,-2,0,-1
1511884780899955,-2,0,-2,-2,-1,0,1,-1
1511884780899955,-1,0,-1,0,-1,1,0,-2
1511884780906968,-1,-1,1,2,-1,0,-1,0
1511884780906968,0,-1,0,-2,-2,1,-2,-4
1511884780914884,-3,0,-1,-1,-2,-1,-1,-3
1511884780914884,-2,-1,-1,-2,0,1,0,-2
1511884780928956,-1,0,-2,-3,-1,-1,-1,-1
1511884780928956,-1,-1,0,-4,0,1,0,0
1511884780936928,-4,0,-2,-2,-3,0,0,-2
1511884780936928,-1,0,1,-2,-1,1,-2,0
1511884780951968,-4,0,0,-1,0,-1,1,-2
1511884780951968,-1,2,-1,-3,0,0,1,-2
1511884780960233,0,0,-1,-2,1,0,1,0
1511884780960233,-2,0,-1,-2,-1,2,0,-2
1511884780975271,-2,-2,-2,-3,-2,0,2,-2
1511884780975271,-1,2,-1,-2,0,1,0,-3
1511884780975271,-1,-3,-2,-3,0,-1,-1,-1
1511884780975271,-2,-1,-3,-4,-1,0,0,-3
1511884780989413,0,-1,-1,-2,0,2,0,-1
1511884780989413,-3,-2,0,-1,-1,0,1,-2
1511884780997341,-1,-1,0,-2,-2,0,2,-1
1511884780997341,0,-3,0,0,0,2,0,2
1511884781012371,-1,-2,1,-1,0,0,-2,0
1511884781012371,1,-3,-2,-1,-1,-2,0,2
1511884781020495,1,-2,0,2,-1,-2,-3,0
1511884781020495,2,-2,-3,0,0,-2,0,1
1511884781035561,1,-2,-1,1,0,-2,-1,0
1511884781035561,0,-3,-2,2,0,-3,-2,2
1511884781035561,1,0,-2,2,-3,-2,-2,-1
1511884781035561,0,-1,0,0,0,-1,-1,-1
1511884781049655,0,0,0,-1,1,0,-1,-3
1511884781049655,1,2,-2,0,-1,0,-2,0
1511884781056590,-2,-2,0,1,1,0,0,0
1511884781056590,0,0,-1,-1,0,0,0,0
1511884781071780,-1,-4,-3,3,-2,-1,0,0
1511884781071780,-1,0,0,-1,-2,-2,-2,0
1511884781079711,-2,1,0,-1,-2,-3,-2,-3
1511884781079711,-3,0,-2,-4,-2,1,-3,-2
1511884781094773,-2,1,-1,-1,-2,-1,1,-1
1511884781094773,-2,-2,-2,-3,0,-1,-1,0
1511884781095732,0,-1,0,-3,-2,1,2,0
1511884781095732,2,0,0,0,2,-3,0,1
1511884781109866,2,-2,0,1,1,-2,-2,-1
1511884781109866,2,-2,0,2,-1,-1,-2,1
1511884781116935,1,-1,1,0,0,-2,-1,1
1511884781116935,1,-2,0,1,1,-3,-2,-1
1511884781132047,-1,0,0,0,1,0,-1,-2
1511884781132047,-1,1,-2,0,-2,0,-1,-2
1511884781140069,0,0,-2,0,-1,-1,-2,0
1511884781140069,-1,-2,-2,1,-2,0,-1,0
1511884781155101,0,-1,-1,-2,-1,-1,-2,-1
1511884781155101,-2,-2,0,1,2,1,-1,-1
1511884781155983,0,-2,0,1,0,-4,-1,-1
1511884781155983,0,0,0,0,0,-1,-3,0
1511884781170052,0,2,0,1,-2,-1,0,2
1511884781170052,0,-2,0,0,-1,-1,-1,-1
1511884781177043,-2,-2,-1,1,0,-1,-1,0
1511884781177043,-2,0,-1,1,-1,-2,-2,-1
1511884781192086,-2,-1,0,-1,0,-2,-3,-2
1511884781192086,-2,0,0,-3,0,-2,0,-2
1511884781200225,-4,1,-2,-4,-3,3,1,-4
1511884781200225,-3,1,0,-2,-3,2,1,-3
1511884781215187,-2,0,0,-3,-2,-1,1,0
1511884781215187,-2,-1,-2,0,-2,-2,0,1
1511884781216178,-1,0,0,-1,2,-1,-2,-1
1511884781216178,3,-2,-2,0,-2,0,0,0
1511884781229269,2,-2,-2,1,0,-2,-2,1
1511884781229269,0,-1,-2,-2,-2,0,-1,0
1511884781237482,-1,0,-1,0,0,-2,-3,1
1511884781237482,1,-1,-1,1,-1,1,-1,1
1511884781251633,0,0,-3,0,-1,-1,-3,0
1511884781251633,0,0,-1,1,0,-1,-2,-1
1511884781260536,1,-1,0,1,1,-2,-1,-1
1511884781260536,-2,-2,-1,-3,-3,1,2,-1
1511884781274615,-2,0,0,-1,-2,-1,0,0
1511884781274615,-3,1,0,0,-1,0,0,-2
1511884781275578,-3,0,-1,-1,-1,0,1,-1
1511884781275578,-2,-1,-2,-4,-1,-2,0,-1
1511884781289738,-2,2,-2,-2,0,2,-1,-2
1511884781289738,-1,-1,-2,-4,-1,0,-1,-1
1511884781296639,-4,0,1,0,-2,1,0,-2
1511884781296639,-2,-2,-1,-2,-1,0,1,-1
1511884781311694,-1,0,0,-3,-1,2,2,-2
1511884781311694,1,-1,-2,-3,-1,2,-1,0
1511884781319693,1,-2,0,-1,-2,1,0,1
1511884781319693,0,-1,-1,0,-1,0,-2,0
1511884781335735,0,-1,-2,-1,-1,-1,1,0
1511884781335735,0,-1,0,0,0,-1,1,-1
1511884781335735,1,-2,-1,0,1,-1,-2,0
1511884781335735,-1,1,-1,1,1,-3,-1,1
1511884781349774,-3,-2,-1,0,-1,-1,-1,1
1511884781349774,0,-1,0,0,0,-1,-1,0
1511884781356829,-1,-1,-2,-1,-1,0,1,0
1511884781356829,0,-1,1,2,-2,-2,0,0
1511884781371836,0,-2,-2,1,0,0,-1,0
1511884781371836,0,0,0,1,0,-1,0,0
1511884781379851,2,-2,-1,1,-2,0,-2,-1
1511884781379851,0,1,2,1,-1,-1,-3,-1
1511884781395033,1,-2,0,-1,-1,-3,1,1
1511884781395033,0,-2,-1,1,-1,-1,-1,2
1511884781396037,-1,-1,-1,-1,0,-2,-2,-1
1511884781396037,-1,0,-1,1,-1,0,-2,-1
1511884781409068,-1,-1,1,1,-2,-1,-2,2
1511884781409068,-3,-2,1,0,-2,-3,-2,0
1511884781417213,1,-1,-1,-1,-1,-2,-2,0
1511884781417213,0,-2,0,0,1,0,-1,-1
1511884781432172,-1,-1,-3,-2,-4,-1,-1,-3
1511884781432172,0,1,1,-2,0,0,0,-1
1511884781440468,0,-3,-2,1,-2,0,-1,0
1511884781440468,-1,0,0,-1,0,-1,-1,-1
1511884781455507,-2,0,1,-2,0,-1,-1,-2
1511884781455507,2,1,-1,0,-1,0,1,0
1511884781455507,0,1,-1,-1,-2,-1,0,-1
1511884781455507,-2,-1,-2,-2,0,-1,-2,0
1511884781477490,-1,-1,1,-1,2,0,-2,1
1511884781477490,-1,-1,-1,0,-1,-2,-1,-1
1511884781478441,-3,0,0,-1,0,0,0,-2
1511884781478441,0,-1,-2,-1,-2,-2,-2,0
1511884781491473,0,-1,-2,-1,1,0,1,-1
1511884781491473,-1,-1,-1,-1,-2,-2,-1,0
1511884781500624,0,-1,2,-1,-1,-1,0,1
1511884781500624,-2,-1,0,-2,-1,-3,0,-1
1511884781515609,2,-1,0,0,-1,-1,0,0
1511884781515609,0,0,-1,-1,-1,2,-1,-1
1511884781515609,-3,0,-1,-2,-2,-2,0,-1
1511884781515609,-1,1,-1,-1,-2,0,0,-2
1511884781529577,0,-1,-1,-2,-1,1,1,-2
1511884781529577,0,-1,-1,0,1,1,1,-1
1511884781536597,1,0,-2,-2,1,-1,-2,1
1511884781536597,0,-2,0,-1,-1,-2,-1,0
1511884781551756,0,-1,0,1,0,-1,-1,-1
1511884781551756,-2,-1,-2,0,-2,-2,-1,-1
1511884781559659,0,-3,-2,1,-2,0,1,-1
1511884781559659,-2,0,-2,-1,1,-2,-1,-1
1511884781574845,0,-1,-1,-2,-1,-2,0,0
1511884781574845,-2,-2,-1,-1,0,-1,-1,0
1511884781575845,-1,0,1,-2,-1,1,-2,1
1511884781575845,0,-1,-1,-1,-1,-1,1,-2
1511884781589184,-2,2,-1,-1,0,-1,-2,0
1511884781589184,1,-1,1,-1,-1,-1,2,-4
1511884781597134,-1,-1,-2,-1,-2,-1,-1,1
1511884781597134,0,0,-1,-2,-2,-1,-1,1
1511884781612189,-1,-1,-1,-1,-1,-2,0,-2
1511884781612189,-3,-1,-1,-2,1,0,-3,0
1511884781620190,-1,-1,-1,-1,0,0,0,0
1511884781620190,-1,-1,-3,-2,2,-1,1,-2
1511884781635160,-3,-3,0,-1,-1,0,-1,-1
1511884781635160,0,0,-1,-1,-2,-1,-1,-1
1511884781636121,-1,1,0,-1,-1,-2,-1,-2
1511884781636121,-2,2,0,0,-2,2,0,0
1511884781657225,-1,-1,-1,-2,-2,1,1,-2
1511884781657225,-1,-2,1,-1,-1,-1,0,-1
1511884781658183,0,-1,-1,1,-1,-1,-2,0
1511884781658183,-2,-2,0,-1,-2,1,1,-2
1511884781672287,0,0,0,0,-2,-1,-1,-1
1511884781672287,0,-1,-1,-1,-1,-2,1,1
1511884781680335,1,0,0,-2,0,1,0,-2
1511884781680335,0,0,-1,-3,-1,0,1,0
1511884781694324,0,-2,-3,2,1,1,-2,0
1511884781694324,-1,0,-1,-1,0,0,-1,0
1511884781702342,-1,0,-2,-1,0,-1,2,0
1511884781702342,0,-2,0,0,1,-2,0,0
1511884781709364,2,0,0,-1,0,-3,-1,-1
1511884781709364,-1,0,0,1,1,-3,-1,0
1511884781717413,-1,-1,-1,0,1,1,-1,1
1511884781717413,1,-2,0,1,0,0,-1,1
1511884781731422,-1,0,2,-1,-1,-1,-1,1
1511884781731422,1,-1,0,0,0,0,-1,0
1511884781740637,0,-1,-1,0,-1,-2,-1,0
1511884781740637,1,-1,-1,1,1,0,0,-1
1511884781754669,0,-1,-2,1,-1,-2,-2,-1
1511884781754669,-1,-2,0,1,-2,-1,-2,1
1511884781762505,-1,-1,-1,-1,0,1,-2,-2
1511884781762505,1,0,-2,0,0,-2,-1,2
1511884781769521,0,0,0,1,0,-1,-1,-1
1511884781769521,0,0,-1,-1,0,1,1,-1
1511884781776543,0,0,-2,1,-2,-2,-2,-2
1511884781776543,-2,-1,-2,-1,-1,-1,-2,-3
1511884781791625,-1,0,-3,-1,-2,1,-2,-1
1511884781791625,-3,1,0,-2,-1,1,-1,-2
1511884781800650,-3,0,-1,-3,-2,3,0,-3
1511884781800650,-3,2,1,-4,-1,2,1,-4
1511884781814689,-5,0,0,-5,-2,3,1,-3
1511884781814689,-1,1,-2,-4,0,2,1,-3
1511884781822712,-1,-2,-1,-1,0,-2,2,1
1511884781822712,-1,-2,-1,1,1,-2,1,3
1511884781829758,4,-1,0,1,0,-4,-1,3
1511884781829758,2,-2,0,1,0,-4,0,2
1511884781837137,3,-3,0,2,1,-2,-1,3
1511884781837137,1,-2,0,1,0,-3,-2,0
1511884781852212,1,-2,0,2,-1,-2,-3,1
1511884781852212,-1,-3,1,3,-2,-2,-3,-1
1511884781860271,1,1,-2,-1,0,-2,-1,-2
1511884781860271,-2,-1,1,-1,-1,-1,0,-1
1511884781874524,-3,1,1,0,1,1,-1,-1
1511884781874524,-2,2,-1,-1,-2,-1,-2,-2
1511884781882483,-4,-1,-1,-2,-4,0,0,-2
1511884781882483,-1,0,-2,-2,-3,0,-1,-3
1511884781897603,-3,-3,-2,-3,-2,0,1,0
1511884781897603,2,-1,-1,-2,0,0,1,0
1511884781898481,0,0,-1,-1,2,1,-1,0
1511884781898481,-1,-2,-1,0,0,-1,-4,0
1511884781912518,1,-2,0,1,0,-1,-2,-1
1511884781912518,1,-2,-3,-1,0,1,-3,-2
1511884781920567,-1,-2,0,0,0,-2,-1,-1
1511884781920567,-1,-1,0,0,-1,0,2,-3
1511884781934580,-2,0,-1,0,0,2,0,-4
1511884781934580,-3,-1,-1,-1,-3,-1,2,-2
1511884781942740,-2,1,1,-2,-1,-2,0,-1
1511884781942740,-3,0,-3,-4,-2,2,2,-1
1511884781957780,-4,1,-1,-3,-2,2,0,-3
1511884781957780,-3,0,0,-5,-1,1,2,-1
1511884781957780,-3,1,-1,-3,-2,2,0,-3
1511884781957780,1,3,3,-3,-3,2,2,-2
1511884781971927,4,5,-2,-2,-1,1,3,0
1511884781971927,-3,-5,-2,-3,-1,-1,-1,-2
1511884781979845,12,18,4,-1,0,0,2,2
1511884781979845,-14,-28,-9,-1,2,-3,0,-2
1511884781994883,7,7,2,0,-1,-3,-1,4
1511884781994883,-1,-5,0,1,-2,-5,-3,-1
1511884782002907,4,2,1,1,1,3,0,-1
1511884782002907,8,10,2,3,-1,0,-2,3
1511884782017959,-7,-8,-2,-1,-2,-1,-1,-2
1511884782017959,4,3,-1,0,1,0,1,1
1511884782017959,-5,-9,0,1,-3,-4,-3,0
1511884782017959,0,2,0,-1,-2,-1,-1,-3
1511884782032069,-4,-5,-1,-1,0,-2,1,-2
1511884782032069,1,-2,-2,0,-2,-2,-2,-2
1511884782039210,-3,-4,-2,-2,-1,-2,0,-1
1511884782039210,-2,0,-1,-1,-2,0,-2,0
1511884782054285,0,1,0,0,-2,0,1,-1
1511884782054285,-1,1,0,0,-1,1,1,-1
1511884782062303,-6,-5,-2,-2,-1,0,1,-1
1511884782062303,3,3,-1,-1,0,-2,0,-1
1511884782077346,-1,-1,-2,-1,1,1,0,-1
1511884782077346,0,-1,-1,0,2,0,-1,2
1511884782078345,-3,-6,-3,-3,0,-3,1,-3
1511884782078345,2,2,2,1,0,0,0,1
1511884782091383,1,-2,0,-1,0,-1,-2,-1
1511884782091383,-1,0,-1,-1,0,0,-1,0
1511884782099406,2,-2,-3,1,-2,-4,-1,4
1511884782099406,3,-2,0,2,-2,-2,-1,2
1511884782114445,1,-3,-1,2,2,-3,-2,0
1511884782114445,2,1,0,2,-1,-3,-4,1
1511884782122649,1,-2,0,2,1,-3,-2,-1
1511884782122649,0,0,-1,2,-1,-1,-2,-1
1511884782137688,-1,-1,-3,-1,-1,1,-2,-1
1511884782137688,1,-3,-2,1,-1,-2,-1,-1
1511884782138506,-1,0,2,-1,-3,0,-2,-3
1511884782138506,-3,1,-1,-4,0,-1,0,-2
1511884782151737,-1,-2,-1,0,0,-1,-3,-1
1511884782151737,-2,-1,-1,-1,-1,1,0,-1
1511884782158972,-3,-2,-2,0,-1,-1,-1,-2
1511884782158972,-1,-2,0,-3,-1,-2,-3,-1
1511884782174254,0,-1,0,0,-3,0,0,-1
1511884782174254,-1,-1,-2,-2,0,0,-1,0
1511884782182285,-3,-2,-2,0,-1,0,-3,1
1511884782182285,0,0,-3,-3,0,-1,1,-1
1511884782197336,0,1,0,0,-1,0,0,1
1511884782197336,-2,-1,0,0,-2,1,0,0
1511884782198213,-2,0,-2,-1,0,0,-1,0
1511884782198213,2,2,-2,1,0,-2,-2,-2
1511884782212251,-3,1,-1,-2,0,-2,0,-2
1511884782212251,-1,-1,1,-1,0,0,1,-3
1511884782219411,0,-2,0,0,0,1,-1,-1
1511884782219411,-2,0,1,0,-2,-2,0,-1
1511884782234558,-1,-2,-1,-1,-2,-2,-1,-1
1511884782234558,0,0,-1,-2,-1,-2,0,1
1511884782242634,-1,-2,0,0,-1,-2,-2,-1
1511884782242634,-2,-1,-1,0,-1,-1,-1,1
1511884782257778,0,-1,-1,-1,1,-1,-1,0
1511884782257778,0,1,-2,0,0,-1,-3,0
1511884782258672,1,-2,1,-2,-1,-2,-1,0
1511884782258672,0,0,0,-1,-1,1,-2,1
1511884782271961,-1,-3,1,0,0,-1,2,1
1511884782271961,1,-1,1,-1,1,0,-1,1
1511884782278964,0,0,-3,0,0,-1,-1,-1
1511884782278964,1,0,0,1,-1,0,-1,1
1511884782293971,-1,-1,0,1,-1,-2,1,0
1511884782293971,0,-1,-1,-1,-2,-2,-3,-2
1511884782302951,1,0,0,1,0,-1,0,-1
1511884782302951,0,-2,-1,-1,0,-1,-2,-2
1511884782318019,-2,0,-2,0,-2,-1,-1,-2
1511884782318019,0,1,-1,-1,0,1,-1,-1
1511884782318019,-1,-1,-2,0,0,0,-1,0
1511884782318019,-2,-2,0,-1,0,-1,0,-1
1511884782332071,0,-2,-1,-1,1,2,-1,1
1511884782332071,-2,-3,-1,0,-2,-1,0,0
1511884782339197,0,0,1,-1,-2,0,0,-2
1511884782339197,-1,-1,0,-3,1,0,0,-1
1511884782354294,0,0,1,-1,-3,0,0,-3
1511884782354294,-2,-1,0,-1,-1,1,-1,-1
1511884782362202,0,-1,0,-4,0,0,2,-1
1511884782362202,-3,-2,-2,0,-1,-2,-1,-2
1511884782377345,0,1,-1,-3,1,-2,-1,-1
1511884782377345,-1,-1,-2,-1,0,0,1,-1
1511884782378278,-3,1,-1,-2,-2,0,-1,0
1511884782378278,-1,1,-1,-1,-2,2,1,-1
1511884782392283,0,-2,-1,-2,-2,-1,0,-3
1511884782392283,-1,-2,-2,-3,-2,1,2,1
1511884782399340,0,-1,0,-1,1,-1,-1,1
1511884782399340,-1,0,-2,0,0,-1,0,-1
1511884782414342,0,-1,0,1,-1,-1,0,1
1511884782414342,0,-1,1,-1,0,-1,-2,-1
1511884782422404,-1,0,-1,-2,-2,-2,1,-2
1511884782422404,-1,0,-2,0,-2,-2,0,-1
1511884782437447,-1,0,0,0,-1,1,-5,0
1511884782437447,0,-2,0,-1,-1,-1,0,0
1511884782438406,1,-2,-1,1,1,0,-1,2
1511884782438406,0,-1,-1,0,0,-1,0,0
1511884782451561,0,-1,-3,0,0,-1,3,2
1511884782451561,-1,0,-1,0,-2,-2,1,-1
1511884782459658,2,-2,-2,0,0,0,-2,0
1511884782459658,2,1,0,-1,-1,-2,0,2
1511884782474585,3,-3,-2,0,0,-1,-2,1
1511884782474585,-1,-1,1,0,-2,-1,-2,0
1511884782482605,-1,-2,-1,1,0,-2,-1,-1
1511884782482605,1,-2,-1,1,0,0,-1,2
1511884782497798,1,-1,0,0,0,-3,-2,1
1511884782497798,1,0,-1,2,0,-2,-3,0
1511884782498683,2,0,0,2,0,0,0,-1
1511884782498683,1,-2,0,1,0,-2,-3,1
1511884782512156,-2,-2,-1,1,-1,-2,-3,-1
1511884782512156,0,0,-2,1,-1,-1,-2,0
1511884782519293,-3,1,-3,-2,-2,0,-2,-3
1511884782519293,0,-1,-1,-4,-1,2,-1,-2
1511884782534585,1,0,-3,0,-2,1,-1,-2
1511884782534585,2,0,-1,-1,-2,-1,-1,-2
1511884782542604,-2,0,0,0,-1,-2,0,-1
1511884782542604,-3,0,0,-1,-1,-1,-1,-3
1511884782557799,-5,-1,-2,-3,-3,1,1,-2
1511884782557799,-3,0,0,-3,-2,2,2,-3
1511884782558689,-6,0,-3,-5,-3,2,0,-5
1511884782558689,-5,1,1,-6,-2,4,2,-5
1511884782571838,-6,1,-3,-5,-2,2,3,-5
1511884782571838,-4,0,-3,-5,-1,3,4,-3
1511884782579851,-2,1,0,-5,-3,3,3,-1
1511884782579851,-3,1,-1,-4,-1,0,1,-3
1511884782593859,-2,0,1,-5,0,3,2,-1
1511884782593859,-5,-1,-2,-3,-1,1,2,-2
1511884782602885,0,-1,1,-3,0,1,3,-2
1511884782602885,0,-3,-2,-3,0,0,2,-2
1511884782617938,2,-1,0,-3,1,0,1,-2
1511884782617938,0,-1,0,-1,0,0,2,1
1511884782617938,0,-3,-2,-1,0,-1,1,0
1511884782617938,2,0,0,1,1,-3,1,1
1511884782631998,1,0,-1,2,2,-1,-1,0
1511884782631998,2,-2,0,2,1,-3,-2,2
1511884782639017,3,-3,0,3,3,-4,-1,2
1511884782639017,2,-4,0,2,0,-1,-2,4
1511884782654039,1,-1,-1,3,1,-2,-4,4
1511884782654039,2,-2,-1,1,-1,-4,-2,0
1511884782663058,0,0,-2,3,0,-2,-2,1
1511884782663058,1,0,-1,2,0,-3,-2,0
1511884782677079,1,-1,-1,2,0,-2,-1,0
1511884782677079,0,-1,1,2,0,0,-2,-1
1511884782685139,-1,0,-1,2,-1,-3,0,-2
1511884782685139,-1,-3,-2,1,0,-1,-4,1
1511884782692121,-1,-1,-1,2,-1,-2,-3,1
1511884782692121,-1,-1,1,1,0,-1,-3,1
1511884782699176,-1,-4,0,0,-2,-2,-2,0
1511884782699176,-1,-1,-1,-1,0,0,-2,-2
1511884782714308,-2,-1,0,0,-2,-1,1,-3
1511884782714308,0,-3,-2,1,-1,-1,-3,-2
1511884782723406,2,0,-1,-1,-1,-1,-2,1
1511884782723406,-2,0,-1,0,-3,-1,-1,1
1511884782736465,0,0,0,-1,-1,0,-3,2
1511884782736465,-1,-2,-2,-2,-1,-2,0,1
1511884782745476,-1,1,-1,-1,-1,0,-2,-2
1511884782745476,-1,-1,1,-2,-1,-1,-3,-1
1511884782751510,0,0,0,-2,1,-1,0,0
1511884782751510,0,1,0,0,-2,0,0,-2
1511884782759480,0,-2,-1,-1,0,-2,-2,1
1511884782759480,0,0,1,0,-2,-2,1,0
1511884782775523,1,-1,-1,2,-1,-2,0,-2
1511884782775523,2,-1,-1,-1,0,0,-1,-1
1511884782782541,-1,0,-1,2,1,0,-3,0
1511884782782541,0,-2,-2,2,2,-1,-1,0
1511884782796578,-1,0,0,0,-2,-3,-2,0
1511884782796578,1,0,0,-1,-3,-1,0,0
1511884782805599,0,-1,-2,1,-2,-1,-1,-1
1511884782805599,0,-1,-1,1,0,1,0,0
1511884782811859,-2,0,-1,1,-2,-1,2,-2
1511884782811859,-2,-1,-1,-2,-1,-1,0,1
1511884782819796,-1,0,0,-3,-1,2,2,-4
1511884782819796,0,0,0,-2,-1,-1,0,-2
1511884782834847,-1,-2,-3,-4,-1,0,2,-1
1511884782834847,-2,0,0,-1,1,-1,0,0
1511884782842842,-3,-1,-1,-2,-1,-2,1,0
1511884782842842,0,0,-1,-1,1,1,-1,-1
1511884782857001,0,0,2,-2,0,-3,-2,0
1511884782857001,-2,0,-1,-2,-1,-1,0,-2
1511884782864941,-1,-2,1,0,-3,0,1,1
1511884782864941,-2,1,-1,-1,-3,0,1,0
1511884782880115,-1,-2,-1,-1,0,-1,-3,-1
1511884782880115,1,-1,1,-1,-1,-1,-2,-1
1511884782881118,0,0,-1,-1,2,0,0,-1
1511884782881118,-2,-2,-1,-3,0,-2,-1,-1
1511884782894149,0,0,1,-1,-2,0,-1,1
1511884782894149,0,-1,-3,-2,0,-1,0,0
1511884782902244,0,-2,-1,-1,0,-1,-2,0
1511884782902244,-1,-1,0,1,-1,1,0,1
1511884782917299,-3,-1,-1,-1,-1,0,-2,-1
1511884782917299,-1,-3,-1,0,0,-1,0,0
1511884782925235,0,1,-2,-1,-3,0,-1,-1
1511884782925235,-1,-2,-1,-3,2,1,1,0
1511884782940457,-2,-1,-2,0,1,-2,0,-2
1511884782940457,-1,1,-2,1,1,-1,-3,0
1511884782941275,-2,-2,0,-1,0,-2,2,1
1511884782941275,0,-1,-3,-1,-1,-1,1,-1
1511884782963507,-1,-1,-1,-2,-1,-1,0,0
1511884782963507,-1,-2,2,-2,-1,-2,-1,-2
1511884782963507,1,1,-1,0,1,0,0,0
1511884782963507,-1,-2,0,0,-1,-2,0,0
1511884782976545,-1,-3,0,-2,-1,-1,-1,-1
1511884782976545,-1,2,-1,0,-1,0,-1,-1
1511884782985566,0,0,-1,0,-1,-2,-1,0
1511884782985566,3,1,0,-1,0,1,-1,-2
1511884783000607,1,-2,0,-1,0,2,-2,0
1511884783000607,-1,-1,-1,1,-2,2,1,1
1511884783000607,-1,-2,0,0,-1,-1,-1,0
1511884783000607,-1,-2,0,0,-2,-3,0,-2
1511884783014737,-1,-1,-1,-1,2,-2,0,0
1511884783014737,-2,0,-1,-1,0,-3,0,0
1511884783022806,-2,-2,0,-2,-2,0,0,0
1511884783022806,-1,0,0,-1,-1,0,-1,0
1511884783037020,0,1,0,-1,-4,0,-2,-2
1511884783037020,-1,1,1,-1,-1,0,-2,-1
1511884783044988,-1,-2,-1,-1,-1,-2,-3,-1
1511884783044988,-2,0,-1,0,-1,-3,-1,0
1511884783060051,-2,0,-2,-1,-1,0,0,0
1511884783060051,-1,-1,-1,-2,1,-1,0,-2
1511884783061054,0,-1,-1,0,-2,0,0,-2
1511884783061054,0,0,0,1,-1,0,-3,-1
1511884783074087,1,-1,1,-2,-2,-2,0,1
1511884783074087,-1,-2,-1,-2,-1,-1,0,-1
1511884783082115,-2,0,1,0,1,0,-2,-1
1511884783082115,-1,-1,-2,0,-2,-1,1,0
1511884783097150,-2,-1,-2,-1,1,1,3,0
1511884783097150,0,-2,-1,-1,-1,-1,-2,-3
1511884783105367,1,0,0,-1,-1,0,-1,-1
1511884783105367,-3,-1,0,-2,-1,-1,0,-1
1511884783120407,-1,0,-1,1,-1,-2,-1,-2
1511884783120407,0,-3,-1,-1,-1,0,-1,1
1511884783121345,0,-1,0,-1,0,-1,-2,0
1511884783121345,1,-1,1,0,-2,0,-1,0
1511884783136253,1,-2,1,1,-2,-2,0,-1
1511884783136253,0,0,-2,0,-2,-1,0,0
1511884783142491,-3,-2,-3,-2,-2,-1,1,-2
1511884783142491,0,0,-1,0,0,-2,-1,-1
1511884783156708,1,-1,-1,0,0,-2,-2,-1
1511884783156708,-1,0,-2,1,1,0,1,0
1511884783165556,0,-1,-1,-1,0,-2,-2,1
1511884783165556,-1,-1,-3,0,-1,0,-1,-2
1511884783179791,2,-1,0,0,0,0,-2,0
1511884783179791,-1,0,-1,-1,-1,0,-1,0
1511884783180712,-1,-1,0,0,0,0,-1,-1
1511884783180712,-2,-1,0,-3,-1,-1,-1,-1
1511884783193902,0,2,-1,-1,-1,-1,1,0
1511884783193902,-1,-2,-1,-3,0,0,0,0
1511884783202903,0,-1,0,0,-4,-1,1,-1
1511884783202903,0,-1,-2,-2,0,-1,-1,0
1511884783216942,-1,0,1,0,-1,2,0,-1
1511884783216942,0,-1,1,1,-1,-1,-3,1
1511884783225072,-1,-2,-1,-1,-2,-1,-1,1
1511884783225072,-1,0,-2,-1,-1,1,1,-1
1511884783240151,-2,-2,-1,-2,1,1,-1,-1
1511884783240151,1,0,0,-2,0,-3,0,-2
1511884783241158,-3,-2,-1,-2,2,-1,-1,0
1511884783241158,1,-1,0,1,0,0,0,0
1511884783254384,-2,-2,-2,0,-2,-2,-1,0
1511884783254384,0,0,0,0,-4,-1,-3,-1
1511884783262213,0,0,-1,1,1,1,-2,0
1511884783262213,-2,-2,-1,-1,0,-4,-1,1
1511884783277250,-1,-2,0,0,-1,0,2,0
1511884783277250,0,-1,0,-1,-3,-3,0,2
1511884783285401,-1,0,-2,0,-3,-3,-2,-1
1511884783285401,0,-1,0,0,-1,-2,-1,0
1511884783300513,0,2,-2,0,1,-1,-2,0
1511884783300513,-1,-2,-1,0,2,1,-1,-2
1511884783301354,1,-1,-1,-3,-2,1,-2,-1
1511884783301354,-1,-1,-2,-1,-1,2,0,-4
1511884783314352,-1,-2,-2,-1,-1,2,2,0
1511884783314352,-3,-1,0,-1,2,2,0,-1
1511884783322553,0,-1,-1,0,-1,-3,0,-2
1511884783322553,-1,-1,0,0,0,-1,0,-1
1511884783337440,2,-2,0,0,-2,-2,-1,-1
1511884783337440,0,0,-1,-2,0,-1,-2,0
1511884783345434,-2,-1,1,0,0,2,-1,0
1511884783345434,-1,0,-2,-1,0,1,0,0
1511884783359709,-3,-2,0,-1,0,0,-2,-2
1511884783359709,0,-2,-1,1,-2,-1,2,1
1511884783376653,-1,1,-2,-3,-1,-2,0,-1
1511884783376653,-1,1,-1,-2,1,-3,-1,2
1511884783377659,-1,0,-1,-1,1,-1,0,-1
1511884783377659,1,1,0,-1,-2,1,0,0
1511884783383814,0,-2,0,-2,-1,1,-1,-2
1511884783383814,-1,-2,-1,-1,-1,1,0,1
1511884783396886,1,-2,-1,-1,-2,0,-2,2
1511884783396886,0,1,-1,1,0,-2,-2,-2
1511884783405871,0,-2,-1,1,-1,-2,-1,-2
1511884783405871,0,0,-1,0,0,-3,-5,0
1511884783418966,-1,1,1,-1,-1,-3,-2,0
1511884783418966,0,0,-1,0,0,0,-1,0
1511884783427989,-1,-1,-2,1,1,-1,0,-1
1511884783427989,2,-1,1,2,-2,0,-1,0
1511884783434039,0,-1,-2,0,0,-1,-1,-1
1511884783434039,-2,-1,0,0,-3,-1,0,-2
1511884783443046,-3,-2,-1,-2,-1,-1,1,1
1511884783443046,-1,-2,0,-2,-1,-1,-1,1
1511884783457100,0,-1,-1,-1,1,-1,0,0
1511884783457100,1,-1,1,-2,1,-1,0,0
1511884783473124,1,0,-1,0,-1,0,1,0
1511884783473124,0,-1,-1,0,-2,-1,2,0
1511884783488183,-1,-1,0,-1,-2,-1,-2,0
1511884783488183,-2,-1,-2,0,0,-2,-1,0
1511884783490136,-1,0,-1,1,-2,-1,-2,-2
1511884783490136,-2,0,0,-1,-1,0,-2,-1
1511884783494149,-3,-1,-1,-3,-2,-1,1,-3
1511884783494149,-3,1,-1,-2,-2,1,0,-3
1511884783503173,-3,2,-1,-2,-2,0,2,-1
1511884783503173,-2,-1,-1,-2,-3,1,1,-3
1511884783517249,-1,1,-1,-3,-1,1,1,-2
1511884783517249,-3,0,-1,-3,-1,0,1,-2
1511884783526235,0,-1,0,-3,0,0,2,0
1511884783526235,-1,0,0,-2,1,-2,0,-2
1511884783539404,-1,-1,0,-1,-1,-1,1,0
1511884783539404,1,-2,0,-2,0,-1,2,-1
1511884783548293,0,-2,-1,0,-1,1,1,1
1511884783548293,1,-2,-3,0,2,-1,1,1
1511884783554309,0,-1,0,1,-1,-2,-3,0
1511884783554309,1,-1,-1,0,0,-3,-2,0
1511884783563333,1,1,2,1,1,-2,-2,-1
1511884783563333,2,-2,1,0,-1,0,0,1
1511884783576367,-2,-2,-3,1,0,-1,-1,-1
1511884783576367,-1,-1,0,0,0,0,-2,2
1511884783585519,1,-1,1,-1,1,-1,-2,1
1511884783585519,0,0,-2,1,1,1,-1,1
1511884783599459,-1,-1,-1,1,-1,0,0,0
1511884783599459,-2,-2,-2,2,0,-3,-2,1
1511884783608460,-1,-3,0,-1,-1,-2,-2,0
1511884783608460,-1,0,-1,0,0,-2,-3,-1
1511884783614469,-1,0,-2,-2,-2,-1,-1,0
1511884783614469,0,-1,0,-1,-1,-1,0,-1
1511884783623490,-1,0,-1,0,-2,-1,-1,-1
1511884783623490,-1,0,1,1,0,-3,-3,-2
1511884783636706,0,0,-1,-2,0,0,-1,-2
1511884783636706,0,-1,-1,-3,-1,-1,-1,-1
1511884783645548,1,-1,-2,-2,1,-1,-1,0
1511884783645548,0,-2,-1,0,-2,-1,1,0
1511884783659806,0,-1,1,0,0,0,-1,0
1511884783659806,-1,-1,1,1,1,0,-1,0
1511884783668740,-2,-1,-3,0,-1,-4,-1,-2
1511884783668740,-2,-1,-1,-1,-1,-1,-1,0
1511884783674159,0,0,-1,0,-1,1,-1,-1
1511884783674159,1,-3,0,-1,-1,-1,0,-2
1511884783689352,-1,0,-2,-1,-2,0,-1,1
1511884783689352,-1,0,-1,-1,-1,-2,-1,1
1511884783697300,0,1,-1,0,1,-1,-2,-1
1511884783697300,-1,-1,-3,0,0,1,0,-1
1511884783706201,-1,-1,-1,0,-2,0,0,-1
1511884783706201,-1,0,-1,-2,-2,2,-1,-3
1511884783719237,-1,-1,0,-1,-1,-2,0,0
1511884783719237,-2,-2,-2,-1,-1,0,0,1
1511884783728258,-1,-2,0,-2,-1,1,1,-1
1511884783728258,-1,-2,0,-4,-2,1,0,0
1511884783734511,-2,-1,0,-1,0,0,2,0
1511884783734511,1,-1,-1,0,-1,1,-1,-2
1511884783749646,-2,-2,-1,0,0,-2,0,-1
1511884783749646,-1,-1,0,0,-1,0,1,0
