timestamp,emg1,emg2,emg3,emg4,emg5,emg6,emg7,emg8
1511884872349905,-93,-24,-14,97,56,-25,-9,12
1511884872349905,-58,-21,-18,23,51,-24,-70,9
1511884872350905,-53,-16,-7,-20,47,-26,-33,-31
1511884872350905,-20,-2,-22,-68,25,-18,34,-27
1511884872354916,15,25,3,-65,16,-14,55,-32
1511884872354916,27,24,11,-23,15,-6,68,-8
1511884872358954,45,25,5,-16,11,-10,97,2
1511884872358954,48,23,8,0,12,-13,34,12
1511884872360932,82,33,10,-14,0,-14,-16,-10
1511884872360932,8,8,1,-3,-5,-25,-75,-45
1511884872372051,-20,-12,-11,-20,-10,-33,-81,-46
1511884872372051,-57,-28,-22,-6,-5,-65,-78,-13
1511884872376081,-125,-33,-38,-39,-16,-38,-81,-12
1511884872376081,-64,-25,-48,-72,-32,96,-62,-25
1511884872392322,-49,-37,-12,-113,-24,-27,-84,-96
1511884872392322,-110,-105,-52,-67,-100,12,-82,-10
1511884872400328,-72,21,-41,-68,-123,-58,-23,-59
1511884872400328,-128,-13,-33,9,-128,-22,-27,-108
1511884872417559,-126,47,-57,31,-36,8,31,-59
1511884872417559,-115,62,-96,-87,68,-6,-14,-72
1511884872420568,-20,83,-124,-93,123,-86,48,33
1511884872420568,48,125,-41,-16,31,-61,10,118
1511884872469698,-37,-85,-71,98,-111,112,28,7
1511884872469698,-103,-32,98,120,2,16,98,36
1511884872469698,-99,-47,113,122,74,104,106,53
1511884872469698,-128,-13,-68,82,12,5,127,58
1511884872470701,25,86,33,-105,-8,18,92,55
1511884872470701,-86,3,28,-109,17,-22,-35,88
1511884872473712,46,86,118,-83,-46,31,10,19
1511884872473712,-10,24,127,61,34,-59,-63,-2
1511884872480727,80,88,120,118,82,-72,-49,115
1511884872480727,127,76,29,126,76,117,79,-20
1511884872488797,75,90,31,118,20,86,71,23
1511884872488797,127,-33,52,74,-1,15,-45,-8
1511884872495772,50,27,18,52,53,33,-14,-23
1511884872495772,63,-64,-34,91,38,-33,-73,-69
1511884872511813,6,77,-61,83,107,-72,83,74
1511884872511813,-1,0,-42,92,1,33,99,99
1511884872518863,-128,14,-78,82,67,28,32,12
1511884872518863,-34,-44,-91,47,-70,49,-85,-43
1511884872525893,87,-106,-128,-85,14,-128,-20,36
1511884872525893,-3,65,4,-73,-51,66,-17,81
1511884872540933,117,-91,66,33,23,66,-18,20
1511884872540933,49,-4,-3,-75,-61,56,14,-108
1511884872548952,-44,-80,28,-77,-128,68,-100,14
1511884872548952,101,15,68,-73,1,-80,-31,18
1511884872555957,-26,-128,20,-64,-24,20,1,75
1511884872555957,114,-28,-66,-47,2,-128,38,114
1511884872572068,44,7,88,67,13,26,-128,-98
1511884872572068,-100,53,-35,52,55,102,37,-38
1511884872578084,15,12,6,-37,5,-99,24,-106
1511884872578084,-45,43,113,-17,-50,-48,28,32
1511884872586098,-80,-57,2,-128,3,58,69,91
1511884872586098,-68,-17,-51,-41,38,-92,10,-84
1511884872601249,-95,48,58,1,-88,22,68,-65
1511884872601249,-69,-44,-78,58,-9,19,78,72
1511884872609593,-41,24,-87,7,21,-95,58,-41
1511884872609593,75,-39,7,-27,-8,-5,-32,99
1511884872616420,111,52,62,39,66,-84,63,127
1511884872616420,95,-63,7,-83,5,51,73,121
1511884872631657,28,11,36,98,1,75,59,87
1511884872631657,13,-105,56,-29,-37,95,99,76
1511884872638466,13,-40,22,-9,-24,53,61,66
1511884872638466,37,-43,112,72,-64,52,-128,12
1511884872645624,110,-56,8,4,-49,-52,-128,-101
1511884872645624,43,-27,12,-28,-35,-69,-128,-128
1511884872660803,-75,-14,-31,-92,-45,-68,-128,-128
1511884872660803,-116,33,-50,-66,26,-27,-61,-128
1511884872668863,-128,7,-47,-15,-29,-8,-44,-108
1511884872668863,-62,39,-69,38,7,-4,11,-128
1511884872675879,-76,21,-60,40,9,12,-24,-54
1511884872675879,-63,45,-24,34,19,7,-10,53
1511884872692022,-36,20,-25,35,-6,-3,-7,53
1511884872692022,-40,4,-7,-3,-17,9,-9,-2
1511884872698927,-15,-1,-32,-18,16,6,-26,-76
1511884872698927,-18,13,6,-34,15,-8,-2,-38
1511884872714062,12,3,8,-10,-2,-15,19,10
1511884872714062,-7,7,-4,-14,9,20,9,2
1511884872721078,0,4,-17,-14,-6,11,-6,-11
1511884872721078,16,39,3,1,21,42,46,-13
1511884872729509,-10,21,2,-9,4,42,28,-29
1511884872729509,-1,15,-6,10,2,54,39,-13
1511884872735347,17,0,-16,-6,-2,44,22,-16
1511884872735347,2,43,11,-10,6,62,-1,-19
1511884872751390,0,-6,-2,-6,6,-16,-115,-34
1511884872751390,-3,-21,-4,10,7,-91,-127,-77
1511884872758409,10,-8,-4,17,-2,-128,-128,-82
1511884872758409,2,-26,3,34,11,-122,82,-103
1511884872765569,-38,-36,12,15,-3,94,-102,-128
1511884872765569,-106,-22,3,33,6,73,-94,-113
1511884872789701,20,-11,14,26,21,56,-127,-122
1511884872789701,-117,39,33,26,14,61,30,-128
1511884872790633,-108,80,-9,13,-17,45,127,83
1511884872790633,-104,104,9,-34,-31,98,127,118
1511884872795649,59,56,5,9,6,-40,120,127
1511884872795649,120,70,12,-46,-15,-19,-76,92
1511884872811830,126,-21,2,-59,-17,-62,70,-126
1511884872811830,104,-73,-11,-46,-16,-7,1,-4
1511884872818850,-6,-93,-11,-59,-23,-58,53,76
1511884872818850,18,-97,-27,-42,-8,-58,-13,117
1511884872825987,101,-63,-21,-52,-2,49,-36,127
1511884872825987,127,-24,-31,-35,-10,46,-9,119
1511884872840948,109,12,-34,-19,-12,112,-68,43
1511884872840948,-29,2,-5,-6,3,45,-47,-95
1511884872848969,-128,29,11,20,16,-4,-14,-128
1511884872848969,-117,31,11,20,22,-26,30,-128
1511884872855945,-128,21,0,30,5,-9,33,-80
1511884872855945,-96,4,-14,20,8,-11,-20,-46
1511884872871084,-55,2,-2,50,13,-36,2,-39
1511884872871084,-16,2,-6,33,7,-13,-40,-14
1511884872878106,-53,-2,-4,57,-3,9,17,-21
1511884872878106,0,-15,3,12,5,-30,14,38
1511884872886162,9,-16,6,-17,-4,-42,18,75
1511884872886162,16,-12,18,-13,0,-79,29,18
1511884872901284,-33,9,10,-33,6,-100,-109,-11
1511884872901284,15,15,15,19,13,20,-7,-45
1511884872909362,0,30,1,11,-3,-38,-58,-57
1511884872909362,-52,4,-2,-8,-3,48,-42,-111
1511884872915492,-109,6,5,5,2,71,83,-128
1511884872915492,-100,-27,3,18,1,50,56,91
1511884872931424,56,-16,3,6,0,52,2,42
1511884872931424,78,-11,-7,-4,-15,31,-37,14
1511884872938444,112,-19,-2,-15,-12,-25,-79,-1
1511884872938444,75,2,-9,-17,-9,-12,75,-42
1511884872945461,-43,-12,-4,9,-2,-29,47,60
1511884872945461,-58,4,1,26,1,-38,29,117
1511884872960633,87,-4,-5,-28,-3,-51,-6,119
1511884872960633,119,4,-2,-36,-4,-14,-128,104
1511884872968986,127,11,-10,-39,-7,-28,87,53
1511884872968986,127,30,-2,-20,2,-3,61,88
1511884872975912,101,29,-8,-10,-2,25,34,127
1511884872975912,123,37,-8,-7,-3,-11,3,71
1511884872991977,-18,18,0,15,1,13,-47,-1
1511884872991977,-95,-9,0,12,3,-1,54,-72
1511884872997980,-128,-11,3,7,8,47,20,-114
1511884872997980,-128,-19,10,20,0,22,-14,-128
1511884873006176,-119,-18,9,26,12,12,-11,-99
1511884873006176,-116,-5,1,14,6,-17,-75,-116
1511884873021155,-128,-25,9,7,-2,-6,-70,-116
1511884873021155,83,-27,8,23,10,-51,-47,11
1511884873029397,102,-36,5,13,-7,-32,16,104
1511884873029397,30,-19,-4,-11,-8,-27,46,95
1511884873036344,4,4,-18,-35,-8,11,-24,82
1511884873036344,-45,0,-6,-23,-6,18,-62,9
1511884873052589,-67,-20,-2,-7,-18,2,-29,-12
1511884873052589,84,21,0,22,3,28,72,5
1511884873058805,-8,24,2,43,-4,-8,41,10
1511884873058805,60,18,-8,3,-4,14,61,-28
1511884873074735,49,19,-6,-25,-3,-6,23,-8
1511884873074735,100,30,4,-26,-5,-14,-65,42
1511884873080788,127,31,-3,-40,-10,30,25,112
1511884873080788,113,17,-8,-26,0,-11,43,95
1511884873089775,-94,-53,4,0,17,10,-7,-44
1511884873089775,-86,-49,13,28,32,3,7,-17
1511884873095793,95,-14,10,29,11,27,-59,-122
1511884873095793,55,8,-13,0,0,-14,-51,-38
1511884873112847,92,17,-18,1,3,-6,-69,-91
1511884873112847,-29,-5,5,63,-5,4,25,8
1511884873118852,-108,17,14,32,9,-9,-20,-37
1511884873118852,-86,14,13,5,-10,13,30,80
1511884873134895,-107,39,4,-29,-15,22,40,-21
1511884873134895,50,3,-2,-52,-13,5,57,2
1511884873141016,-5,-5,-13,-38,-1,-4,28,24
1511884873141016,-30,-11,-3,-13,-30,-28,23,-3
1511884873149960,22,-3,-5,0,14,-13,-26,-1
1511884873149960,29,3,-10,-10,4,-12,-9,19
1511884873155974,-48,0,-1,5,-11,-12,78,98
1511884873155974,-40,-13,-5,2,26,26,-81,-38
1511884873171993,14,12,4,18,3,-15,-87,98
1511884873171993,13,-10,1,9,-4,-17,-128,5
1511884873178009,-38,-24,-4,6,6,-43,71,70
1511884873178009,-35,1,4,-4,-4,-17,79,-30
1511884873203078,31,9,-5,-3,-21,-26,45,-57
1511884873203078,-43,42,-2,-6,-10,19,0,-84
1511884873204080,-13,65,-1,0,-3,32,24,-22
1511884873204080,-31,32,1,9,-5,-17,2,-53
1511884873210099,-1,-4,-4,8,19,42,33,94
1511884873210099,0,-65,-7,-7,-22,22,-1,5
1511884873216114,27,-81,1,1,-20,6,-42,-45
1511884873216114,40,-70,-5,-5,0,5,-9,11
1511884873232247,80,-40,3,9,24,-7,6,17
1511884873232247,35,-23,-2,-8,10,-13,17,11
1511884873238366,116,-13,2,5,1,15,17,32
1511884873238366,6,-1,8,-5,1,2,2,44
1511884873254436,-18,29,16,3,11,-18,-7,77
1511884873254436,-22,42,11,0,11,2,-24,22
1511884873260419,-80,8,-5,-23,-7,-7,4,70
1511884873260419,-50,18,1,9,14,2,-40,-64
1511884873269446,-10,11,-13,-3,-23,29,-29,-29
1511884873269446,-38,11,-29,-20,1,1,20,-10
1511884873275581,16,1,-16,-2,14,4,15,-39
1511884873275581,-72,17,-8,8,-10,14,27,-26
1511884873292669,-16,15,3,18,-19,-1,-10,-64
1511884873292669,15,-11,12,-2,4,-11,-35,-17
1511884873298790,-11,-18,19,5,19,2,-54,-1
1511884873298790,-5,-27,19,-5,9,-21,31,4
1511884873314864,-17,-21,12,-12,9,-11,-12,-53
1511884873314864,29,-9,-1,-4,11,8,14,79
1511884873320879,-15,-5,-5,-15,14,12,3,-32
1511884873320879,45,7,3,24,40,-1,10,-15
1511884873335920,-42,6,-15,-34,7,1,36,10
1511884873335920,-10,-7,-2,8,12,-1,63,-54
1511884873342939,5,29,-7,0,-6,-8,-37,-4
1511884873342939,-48,20,-12,12,-9,1,-39,8
1511884873351962,32,0,-9,10,-61,19,26,-86
1511884873351962,-23,7,-9,9,-81,0,-58,-71
1511884873358164,6,-17,-5,-5,-79,17,-17,-31
1511884873358164,23,-14,13,-6,-86,11,-20,-11
1511884873375023,-10,-16,28,17,-13,-23,25,66
1511884873375023,-18,12,18,1,4,12,-8,46
1511884873381043,-44,4,3,6,34,16,64,-14
1511884873381043,40,23,-10,14,43,10,-14,58
1511884873396218,56,-14,-4,-6,27,-24,15,76
1511884873396218,43,-1,-2,-1,43,16,-33,88
1511884873403275,15,-10,-1,-9,12,18,-17,-41
1511884873403275,6,0,-10,-24,44,-48,17,33
1511884873412264,-35,7,-15,-11,43,-31,-29,-42
1511884873412264,-17,13,-9,-14,8,-6,-13,48
1511884873418315,59,16,-10,-4,10,11,1,-13
1511884873418315,-40,-30,6,-5,34,18,57,-51
1511884873434357,27,11,8,1,31,-4,18,-38
1511884873434357,28,-12,4,-2,28,-31,2,0
1511884873441340,14,4,7,7,22,-14,-28,-1
1511884873441340,-35,0,4,-4,-10,-10,7,66
1511884873455375,19,3,1,-1,16,24,-12,-5
1511884873455375,9,4,3,4,10,4,-17,-74
1511884873463435,59,-2,4,8,-7,24,3,11
1511884873463435,11,8,-2,-8,-46,-11,-16,-52
1511884873479435,-20,1,-6,6,-64,19,-20,10
1511884873479435,-60,4,-4,5,-46,17,9,25
1511884873479435,-6,-4,-11,1,-41,2,-2,16
1511884873479435,-44,-30,-4,5,-36,-11,-28,-27
1511884873494475,-25,13,-5,9,-45,3,17,27
1511884873494475,32,-6,-13,-2,-9,-19,20,-20
1511884873500533,23,-20,-3,1,47,-33,4,35
1511884873500533,-8,-16,-4,-6,66,-3,-14,17
1511884873515572,-10,-13,-3,0,60,-4,-19,22
1511884873515572,-17,9,6,-3,40,-14,-4,-1
1511884873523590,-28,24,17,1,16,14,-6,-17
1511884873523590,19,17,9,3,-10,48,-31,-24
1511884873539595,-27,8,8,3,-23,30,-22,30
1511884873539595,10,7,4,3,-40,26,9,11
1511884873539595,23,3,-7,-4,-30,1,-28,-7
1511884873539595,75,-1,-13,-11,-19,-7,-6,14
1511884873554634,88,-17,-11,-13,-9,-10,-8,13
1511884873554634,49,-22,-16,-14,-7,-24,32,-3
1511884873560789,-106,-26,-11,-5,-4,-34,42,-16
1511884873560789,-104,-11,-1,2,-8,3,17,5
1511884873575849,-22,3,5,4,-7,0,9,-1
1511884873575849,17,-4,8,9,0,3,-3,8
1511884873582877,52,21,7,7,-1,-13,27,21
1511884873582877,30,26,-2,-1,-9,2,17,-3
1511884873598923,2,16,7,3,4,7,19,-3
1511884873598923,-9,2,-6,-1,3,2,20,-11
1511884873599922,-34,1,2,-2,-2,-3,-1,2
1511884873599922,-49,-2,-2,0,0,2,7,-8
1511884873614963,35,-6,2,6,5,2,1,-36
1511884873614963,24,-12,3,1,0,-4,6,11
1511884873620978,64,-11,3,-1,-2,-5,-8,6
1511884873620978,82,-8,-7,-5,-4,1,-2,12
1511884873636130,41,-5,0,-2,2,-3,2,-9
1511884873636130,-18,25,4,2,-3,-4,-11,-18
1511884873643144,16,3,-8,-1,1,1,-12,-7
1511884873643144,29,0,4,0,-6,2,-9,-4
1511884873659084,-103,0,-5,1,2,3,-7,-12
1511884873659084,-99,-9,5,-1,3,0,-10,-9
1511884873660086,-128,-17,10,7,0,-3,-12,7
1511884873660086,-91,-14,-2,2,-3,0,4,-9
1511884873675124,-102,5,0,-8,-4,-3,-4,-11
1511884873675124,46,-4,-4,0,-1,-3,-4,1
1511884873681266,80,-8,-9,-6,0,-2,7,-2
1511884873681266,73,-9,-1,-4,2,2,-1,3
1511884873695507,107,0,-2,-6,1,-6,2,15
1511884873695507,54,-12,-1,1,4,3,6,-12
1511884873703528,37,4,-4,-5,-5,-4,1,14
1511884873703528,-79,3,3,-3,-3,-3,0,-1
1511884873718568,-128,-23,9,4,2,3,-3,-5
1511884873718568,-62,-1,5,5,-3,0,-3,-9
1511884873719570,-14,-14,-6,-3,-6,1,-5,-14
1511884873719570,29,5,-2,5,-3,3,20,-6
1511884873734613,58,-7,-6,2,1,-1,-8,-7
1511884873734613,37,12,1,-2,0,-1,-2,0
1511884873740629,-10,15,0,-1,1,-1,-5,-1
1511884873740629,12,23,2,2,0,-2,-3,1
1511884873755894,27,14,-2,-3,0,0,0,4
1511884873755894,-7,-2,-3,1,1,0,3,-1
1511884873762959,-11,11,1,-4,-2,-1,-4,-3
1511884873762959,7,4,4,0,2,-3,-5,2
1511884873778954,1,2,-4,-2,-2,-1,1,-1
1511884873778954,-16,-6,-3,0,0,-1,-6,-3
1511884873779957,-9,1,6,1,1,1,1,-5
1511884873779957,3,-2,0,2,2,1,3,3
1511884873794989,0,-1,1,0,-2,-1,0,-3
1511884873794989,-9,-2,-4,-5,-2,-1,0,-4
1511884873801239,-3,3,4,1,-1,-1,2,0
1511884873801239,1,-2,-4,-1,0,-1,-1,5
1511884873816337,-3,-2,-2,-2,-2,-2,-2,-2
1511884873816337,-3,0,-1,-2,0,1,6,1
1511884873823412,-7,1,-3,1,0,-1,-1,-2
1511884873823412,-5,2,-1,1,-2,1,-7,-5
1511884873839372,8,5,3,5,-1,3,-1,5
1511884873839372,-4,-3,3,4,0,2,-1,3
1511884873846388,-4,-5,-4,-10,-2,8,2,-2
1511884873846388,-1,-12,-4,-6,-4,3,15,-3
1511884873863410,0,-4,-2,-5,3,3,4,5
1511884873863410,-44,-4,3,1,0,-3,1,1
1511884873863410,-1,-1,4,7,3,-3,-8,-2
1511884873863410,18,9,0,1,-1,2,-16,-4
1511884873875761,24,-3,1,-5,-3,29,-6,0
1511884873875761,17,2,-3,-2,-2,27,-7,-4
1511884873883602,-13,-11,0,5,-4,17,15,-2
1511884873883602,-92,-7,-2,4,11,-8,6,-1
1511884873898918,5,-2,-5,-18,-17,-22,3,-3
1511884873898918,62,5,-2,2,8,-50,7,3
1511884873899792,36,10,-36,9,-2,-13,-6,-5
1511884873899792,33,3,-37,-7,-1,-21,-7,-4
1511884873914831,-46,8,102,23,12,10,-9,-2
1511884873914831,-101,1,68,-1,-8,27,6,-6
1511884873920887,31,-5,22,-12,-5,-20,-1,-1
1511884873920887,60,-4,-76,-12,6,2,10,1
1511884873936198,26,-10,-72,-8,0,13,11,6
1511884873936198,-73,-3,88,-8,4,18,-5,2
1511884873943034,-53,-23,116,-17,6,-9,-15,1
1511884873943034,-6,-6,90,23,-14,13,-35,3
1511884873959078,26,-25,-45,-7,5,-18,-23,-5
1511884873959078,54,4,-128,-43,-15,-16,-21,5
1511884873960083,-54,52,-74,-6,7,11,4,3
1511884873960083,-58,53,-38,17,-4,-7,3,-4
1511884873983140,-36,38,-22,9,-1,-20,12,5
1511884873983140,14,-23,-26,26,3,-27,14,-3
1511884873984261,35,-41,-65,-21,-13,-34,12,-11
1511884873984261,116,-27,-70,0,5,-12,6,1
1511884873996334,91,-27,-38,13,-9,-37,1,3
1511884873996334,117,-29,-46,-30,-11,-4,-14,2
1511884874003534,110,-13,-15,-8,-3,13,-23,0
1511884874003534,-38,19,59,-9,9,15,-19,-28
1511884874019599,-128,1,52,0,6,31,-13,13
1511884874019599,-102,-22,20,14,3,31,-2,5
1511884874020420,50,1,24,23,6,18,17,24
1511884874020420,93,-19,33,10,-1,0,28,27
1511884874034432,127,7,-6,27,3,5,17,-7
1511884874034432,97,19,-11,40,7,-9,10,2
1511884874040445,-29,7,-9,24,-3,1,10,-13
1511884874040445,-70,5,8,-7,-6,4,1,-11
1511884874055727,-100,9,3,-20,-2,2,-9,-15
1511884874055727,-92,15,12,-7,5,3,-1,-13
1511884874063666,-84,15,19,-9,-2,0,-9,-16
1511884874063666,-62,2,18,-20,-5,4,-12,-4
1511884874078683,-50,3,14,-14,0,1,2,1
1511884874078683,-12,6,7,-6,0,0,-1,-8
1511884874079684,-23,-4,-1,-19,-1,3,-3,1
1511884874079684,-19,-9,-2,-1,-1,2,-1,4
1511884874101743,5,-3,1,5,-1,-2,2,-6
1511884874101743,14,2,-4,-7,-9,2,-2,1
1511884874102749,-9,0,-13,-21,-7,-3,-7,-1
1511884874102749,-3,-3,1,-2,-1,-4,10,6
1511884874115780,15,0,1,10,10,-1,1,0
1511884874115780,17,2,2,0,0,-11,0,6
1511884874123850,-2,-15,7,12,2,0,2,3
1511884874123850,5,-3,-4,1,-1,-6,-4,-4
1511884874138845,-1,7,3,-5,-1,3,-6,2
1511884874138845,6,16,0,5,1,0,3,1
1511884874139879,-7,5,-9,8,2,6,-7,-5
1511884874139879,5,-2,5,-3,-1,-4,5,0
1511884874154887,10,-1,1,-2,-1,1,1,1
1511884874154887,-4,-2,-4,-3,-1,7,-1,2
1511884874160902,-7,2,-8,-8,0,3,1,0
1511884874160902,-4,-6,-5,1,-3,9,-3,-5
1511884874175946,-4,-2,-4,-2,-1,-2,-5,-3
1511884874175946,2,-1,0,9,0,-1,-17,1
1511884874183017,-4,0,1,4,1,-2,-1,-4
1511884874183017,1,-1,0,-3,-2,-4,3,1
1511884874199042,2,-2,-4,-2,-3,-5,-3,0
1511884874199042,0,-4,1,-1,1,-15,1,-5
1511884874200042,2,1,12,12,3,-15,5,3
1511884874200042,0,-2,-4,-4,-5,-5,5,-1
1511884874215086,-4,-6,-1,-3,-3,1,8,-8
1511884874215086,3,0,-5,-10,-2,12,13,0
1511884874221100,1,5,2,-1,5,13,4,3
1511884874221100,-3,0,9,14,9,15,-1,-2
1511884874235405,-2,-4,-10,-12,-6,3,-3,0
1511884874235405,1,-5,-1,-4,0,-4,-14,1
1511884874243424,-6,0,0,2,-9,-7,-9,-2
1511884874243424,-4,-2,4,7,6,-3,-9,2
1511884874259527,-2,-1,-3,-3,-2,-11,-1,-5
1511884874259527,-2,2,-3,-11,-4,-11,3,-3
1511884874259527,0,0,-4,3,-2,-3,4,0
1511884874259527,4,-1,5,6,3,-2,-18,4
1511884874274610,5,0,10,2,1,-3,-6,-6
1511884874274610,-3,-6,-9,-5,0,3,5,-32
1511884874280853,0,2,0,-2,-2,4,7,-5
1511884874280853,4,-1,-4,-8,-6,6,17,8
1511884874295785,-1,-1,0,1,3,9,24,49
1511884874295785,1,-1,4,6,0,11,16,28
1511884874303879,2,2,2,3,-1,5,4,5
1511884874303879,-2,-4,-5,-7,-2,4,5,-10
1511884874318929,-2,-3,-7,-4,-3,1,-10,-17
1511884874318929,0,2,5,9,1,-4,-13,-5
1511884874325869,-2,-2,-7,-7,-4,-10,-12,-7
1511884874325869,-3,-1,-7,-4,-2,-8,-15,-7
1511884874334895,1,3,-1,2,3,-6,-5,-7
1511884874334895,1,2,4,6,2,-5,-8,-2
1511884874341029,-4,-2,-1,1,2,3,-6,-3
1511884874341029,-3,-1,-9,-14,-9,-3,-4,2
1511884874356063,5,-3,-4,-6,-4,-2,2,-3
1511884874356063,-1,-3,2,1,-1,10,-1,-3
1511884874363176,-2,-3,2,8,3,21,2,1
1511884874363176,2,2,3,1,0,-4,4,1
1511884874378131,-3,0,2,5,2,31,-3,-4
1511884874378131,-7,-4,-6,-1,1,40,0,-2
1511884874386114,-1,2,-2,-3,-1,-66,0,2
1511884874386114,1,-3,-2,0,0,-51,-3,-1
1511884874401153,-6,-4,-3,-2,-3,-44,-2,-5
1511884874401153,-3,-2,-2,0,-4,-15,-4,0
1511884874402156,2,3,1,0,0,26,-1,5
1511884874402156,0,-2,-2,1,-2,31,-3,-2
1511884874416196,-4,-1,-2,-3,0,23,-8,-3
1511884874416196,1,2,3,3,1,13,4,2
1511884874423415,-4,1,3,-3,0,10,0,-1
1511884874423415,-4,-3,-3,-4,2,2,-1,-4
1511884874438416,2,2,-3,-8,-2,4,1,0
1511884874438416,4,0,1,1,0,-14,-1,3
1511884874445409,-6,-1,-2,0,-4,-2,-6,-3
1511884874445409,-1,-4,0,-1,-2,6,-4,-2
1511884874461594,1,1,1,4,-2,-1,2,-1
1511884874461594,-2,-2,3,3,3,-11,-4,-5
1511884874462721,2,0,-3,-1,-2,-2,-4,1
1511884874462721,0,-3,-5,-4,2,9,5,3
1511884874476760,0,-1,0,-5,-3,-4,0,0
1511884874476760,-2,0,-3,-1,0,-7,-1,-1
1511884874483783,1,0,0,1,-1,6,2,-3
1511884874483783,0,3,2,1,-4,0,1,1
1511884874498819,-2,-2,0,-1,0,-2,-6,-3
1511884874498819,-1,5,-2,-4,-1,-5,-2,0
1511884874505967,2,-3,3,3,4,-1,0,1
1511884874505967,-1,3,-1,-2,-1,-4,-2,-2
1511884874521004,1,1,0,2,-2,-1,-2,-2
1511884874521004,0,1,-2,-1,2,-5,4,4
1511884874522007,1,-2,-3,-10,-4,-1,7,0
1511884874522007,0,-1,1,0,0,0,-1,-1
1511884874537104,-1,-1,0,1,-2,-6,2,3
1511884874537104,-1,-2,1,-3,-3,1,-1,-2
1511884874543065,-1,-1,-3,-2,0,1,-4,0
1511884874543065,-1,0,3,5,-1,3,2,-1
1511884874558372,2,0,-8,-10,-1,-1,1,-1
1511884874558372,0,-2,-2,-4,-1,-3,0,-1
1511884874566323,-3,-3,-2,0,-2,1,-1,0
1511884874566323,0,2,2,1,-1,1,-1,-1
1511884874581327,-4,1,2,5,1,-1,-3,-3
1511884874581327,-3,-1,-5,-4,0,1,-3,-3
1511884874582327,1,-2,1,0,3,0,-1,-1
1511884874582327,1,-1,1,0,-1,4,-3,0
1511884874595365,0,-1,-2,-1,-1,0,-5,-4
1511884874595365,-1,3,-1,-4,-1,-1,0,3
1511884874603581,0,-1,1,2,-1,1,-1,-3
1511884874603581,-3,-1,-5,-3,-3,-4,-3,-1
1511884874618423,-1,-1,-3,-1,0,5,-2,-1
1511884874618423,0,-2,-2,1,-1,-5,0,1
1511884874625566,-2,1,5,7,0,-2,-4,0
1511884874625566,-1,-5,-10,-9,-2,0,1,-1
1511884874641487,-2,-2,-5,-7,-3,-1,4,1
1511884874641487,2,1,-2,0,-2,2,0,-1
1511884874642491,-1,1,0,-1,-2,4,4,-2
1511884874642491,2,3,1,2,1,1,0,0
1511884874655526,-2,-2,4,5,3,0,-2,0
1511884874655526,0,3,0,-2,-1,2,-3,-1
1511884874663655,-1,0,0,-1,-2,-3,1,-1
1511884874663655,0,-11,-8,-2,0,-3,1,1
1511884874678612,-4,0,5,0,0,-2,0,-2
1511884874678612,1,-2,-2,-1,-3,0,-2,0
1511884874693680,-1,-1,-1,-2,1,0,1,-1
1511884874693680,1,-1,9,7,3,1,-4,1
1511884874701670,3,0,-3,-3,-3,2,-4,-1
1511884874701670,-1,-3,-8,-10,-2,-4,-3,2
1511884874701670,-1,0,-4,-4,-4,-2,0,1
1511884874701670,-1,0,-1,-2,1,0,3,1
1511884874715709,-3,-1,4,4,0,-1,4,0
1511884874715709,-2,2,5,6,1,0,3,0
1511884874723729,0,-3,-2,0,-1,2,-3,-1
1511884874723729,-2,3,3,-2,-3,-1,-9,0
1511884874738771,2,-1,-3,-1,-2,-1,-8,0
1511884874738771,-3,-1,1,-2,1,11,-4,0
1511884874745788,0,-2,1,-1,2,0,2,-3
1511884874745788,-2,-2,0,2,0,-2,11,-4
1511884874761832,1,4,-2,0,0,-4,8,0
1511884874761832,2,29,0,0,1,7,33,0
1511884874761832,-1,32,-1,-2,2,9,6,1
1511884874761832,2,-3,3,-3,0,6,0,1
1511884874775868,0,-13,5,9,-1,-1,3,-3
1511884874775868,-2,-23,0,1,-1,-5,-9,-4
1511884874783052,-1,-10,-15,-11,-12,18,3,1
1511884874783052,-3,9,-10,-17,-8,21,-11,-1
1511884874798065,0,5,-1,-2,5,8,-17,2
1511884874798065,1,1,6,6,13,-14,-10,0
1511884874806085,0,-6,6,10,11,-29,2,0
1511884874806085,-1,-3,0,4,2,-22,-6,0
1511884874821263,-1,-1,-1,-1,4,-16,-11,-4
1511884874821263,-1,-1,2,-2,63,-16,-3,-1
1511884874822265,-2,-3,7,1,74,-17,3,-1
1511884874822265,-2,-6,13,6,68,-18,18,1
1511884874837305,0,24,27,-1,1,-3,15,-1
1511884874837305,0,50,13,-4,-93,-17,27,2
1511884874843325,-1,16,-1,-6,-123,-11,-17,0
1511884874843325,0,-10,-8,0,-73,-7,-17,-1
1511884874858459,3,-22,-20,-4,-55,-10,2,0
1511884874858459,10,-46,-17,-3,-28,19,-38,2
1511884874865384,1,-67,-7,1,-3,18,-37,1
1511884874865384,-6,-23,1,3,10,37,-23,-1
1511884874881462,-5,-42,-11,1,49,28,12,-3
1511884874881462,0,-23,-1,-3,69,24,20,-2
1511884874882462,-2,12,-11,5,91,17,27,1
1511884874882462,10,23,-15,-12,53,10,13,2
1511884874897502,6,-6,-18,7,42,16,11,4
1511884874897502,4,-14,-37,-7,1,-8,13,-4
1511884874903751,4,-5,-40,-6,0,-34,7,-1
1511884874903751,-3,10,-14,4,29,-55,8,-6
1511884874918741,0,28,-13,-23,74,-40,21,-7
1511884874918741,-7,18,-1,-65,59,-18,3,-5
1511884874925898,-12,36,2,-52,46,-21,54,-2
1511884874925898,-20,12,-18,13,-54,20,113,-2
1511884874941933,-14,5,-38,64,-62,27,119,2
1511884874941933,2,-25,23,86,-50,18,13,4
1511884874942842,14,-2,59,50,-83,23,-93,7
1511884874942842,28,-8,59,10,-100,8,-128,3
1511884874956795,16,-17,32,-4,-98,-3,-128,1
1511884874956795,26,-22,-41,-5,-67,-14,-46,2
1511884874962813,30,-27,-94,-41,-72,9,-31,-6
1511884874962813,29,-26,-108,-27,22,15,-7,2
1511884874977853,15,-7,-117,-10,92,-3,14,-1
1511884874977853,22,-7,-127,21,64,-3,-5,-2
1511884874985981,26,-37,-116,46,90,-10,9,12
1511884874985981,60,-92,43,27,92,-10,0,-4
1511884875001915,61,-77,104,12,-2,-46,-52,6
1511884875001915,117,17,48,-81,-5,-8,-24,-7
1511884875001915,88,77,-16,-106,-29,11,-18,-17
1511884875001915,95,127,-22,-128,-128,8,9,-9
1511884875026016,-10,125,29,-128,-105,15,22,-5
1511884875026016,-107,55,111,-79,-71,19,5,5
1511884875026016,-128,-27,99,80,49,11,34,32
1511884875026016,-128,-17,67,113,127,8,25,37
1511884875038012,-118,-31,127,127,127,27,8,34
1511884875038012,-91,-36,34,127,122,7,37,5
1511884875046050,-36,-9,-36,103,26,4,42,-28
1511884875046050,89,-19,29,64,-1,-9,2,-23
1511884875069135,118,2,8,3,-118,-19,6,-15
1511884875069135,54,-2,7,-24,-128,-18,13,-27
1511884875070101,-11,-22,-36,-36,-120,-14,10,-35
1511884875070101,-15,-10,-128,-4,-90,-13,3,-42
1511884875077115,41,7,-128,-21,-42,-4,-14,-50
1511884875077115,64,4,-118,6,3,3,-11,-16
1511884875083172,69,-1,-29,2,41,1,-7,-15
1511884875083172,24,5,-29,-21,40,1,-5,-8
1511884875100181,18,5,-20,-14,63,11,-1,12
1511884875100181,10,4,-3,4,49,1,-6,24
1511884875106209,16,20,38,-23,27,-1,-1,33
1511884875106209,-2,17,10,-27,17,4,3,28
1511884875121237,37,10,-4,-20,25,10,-7,20
1511884875121237,71,-26,-1,-7,15,3,-7,16
1511884875122238,12,-33,20,-18,-8,-1,8,10
1511884875122238,-79,-37,3,-11,1,-5,11,6
1511884875137274,-115,-26,-7,-6,-1,0,3,-4
1511884875137274,-71,4,1,-10,-5,9,-1,0
1511884875143290,-11,18,18,-16,-5,7,-3,1
1511884875143290,2,12,3,-13,-6,2,-3,-2
1511884875158654,19,5,-9,-14,3,-3,3,-4
1511884875158654,18,12,-3,-9,0,-8,3,-2
1511884875165560,22,2,12,-5,0,-4,-17,-2
1511884875165560,14,3,2,-3,-6,-6,-20,3
1511884875181602,13,-3,-6,-1,-3,-2,-4,3
1511884875181602,-3,-3,-1,5,3,-8,3,-1
1511884875182605,2,2,11,2,-8,-3,17,-2
1511884875182605,2,5,6,-3,-6,3,1,2
1511884875197647,6,-1,3,3,-1,5,-4,-2
1511884875197647,-9,-7,2,2,-1,-1,4,-6
1511884875203660,-1,-9,5,-1,1,6,13,-2
1511884875203660,2,-1,0,-5,42,5,20,-1
1511884875218700,-6,-4,-11,-3,114,15,19,-5
1511884875218700,-8,4,-11,1,127,18,19,-2
1511884875225896,2,6,-4,-6,127,11,6,-2
1511884875225896,1,-6,-9,-1,6,1,15,1
1511884875234740,-2,-4,-2,2,-102,1,-25,-1
1511884875234740,-5,-1,-3,3,-128,-29,-17,1
1511884875248781,5,2,6,-1,-128,-37,-13,-3
1511884875248781,2,0,2,4,-117,-35,-37,-2
1511884875256802,3,1,1,4,-91,-31,-66,1
1511884875256802,2,3,0,6,-96,-32,-75,4
1511884875263823,0,2,4,2,-96,-16,-76,3
1511884875263823,-2,-4,0,3,-62,3,-51,0
1511884875278857,-2,0,-4,-3,-37,15,14,-1
1511884875278857,-2,-3,2,-4,14,33,32,-2
1511884875285967,-4,-1,-2,-1,61,24,51,1
1511884875285967,0,3,-1,-4,69,12,50,-4
1511884875294991,-1,-3,1,-2,77,5,38,6
1511884875294991,-6,0,1,-3,69,6,28,23
1511884875308207,-2,-1,1,1,46,7,17,25
1511884875308207,-1,2,2,-3,30,3,11,12
1511884875317273,-1,-7,-3,-3,31,1,9,-5
1511884875317273,-1,0,-3,-2,15,-3,6,-28
1511884875323293,-1,1,3,-2,-2,1,3,-29
1511884875323293,0,2,-2,0,9,2,-3,-26
1511884875355486,-1,0,-2,-1,1,-2,2,-14
1511884875355486,1,-1,-4,1,-7,-1,-6,-6
1511884875356377,1,1,-1,-2,-5,3,-5,5
1511884875356377,0,1,2,0,3,-2,0,4
1511884875357473,-4,-4,0,0,-4,-6,1,9
1511884875357473,1,-1,-3,-3,-7,-1,-3,10
1511884875368596,0,1,-3,3,-2,-3,-7,5
1511884875368596,1,-2,-1,0,0,-2,0,0
1511884875377434,2,-2,-1,-2,-4,-1,2,4
1511884875377434,-2,-3,0,-2,-1,5,-1,5
1511884875383567,0,-1,3,0,-4,0,1,3
1511884875383567,1,-2,-4,0,-2,-1,0,16
1511884875398489,-1,10,-2,0,-3,-1,2,14
1511884875398489,-3,15,3,2,-2,0,-1,-3
1511884875405616,-3,20,1,-1,0,0,-7,-14
1511884875405616,0,9,0,-2,-1,2,-2,-16
1511884875414532,1,-2,-3,1,4,-1,-3,-18
1511884875414532,3,-32,1,1,-2,0,-2,-11
1511884875428674,-1,-31,1,1,-3,1,0,0
1511884875428674,0,-26,-1,1,-1,2,0,4
1511884875437746,-2,-12,-3,-1,2,-3,-1,7
1511884875437746,0,2,-2,-1,-4,0,3,4
1511884875442965,-1,6,1,-2,0,3,-1,1
1511884875442965,-4,9,-1,-2,0,-1,-5,1
1511884875458030,-3,8,3,-3,0,4,-3,-3
1511884875458030,-1,9,-1,-2,0,2,-5,2
1511884875466025,-4,6,-2,-3,0,0,-2,1
1511884875466025,-1,7,2,-1,-2,1,0,0
1511884875475049,-3,1,1,-1,-1,1,-1,0
1511884875475049,-2,1,0,-3,-2,-2,1,-2
1511884875497109,-1,0,-1,0,-4,0,0,0
1511884875497109,2,5,0,-2,1,-3,0,0
1511884875499140,0,0,-1,1,0,2,1,-1
1511884875499140,-1,1,2,-1,-2,-2,-1,0
1511884875503153,-2,-6,-1,3,2,0,0,-3
1511884875503153,-2,-3,1,8,-1,-2,0,-1
1511884875518164,1,-7,2,0,-2,1,-3,0
1511884875518164,-1,-1,1,2,-1,2,-2,0
1511884875526185,0,0,0,-6,-3,-2,3,4
1511884875526185,1,0,2,-7,-3,3,-4,-1
1511884875535233,-2,0,-2,-6,-2,-2,-2,-3
1511884875535233,2,-1,-3,-2,1,-7,0,2
1511884875548248,7,-3,2,6,-2,-13,2,3
1511884875548248,-2,-1,0,2,-1,7,0,-3
1511884875557268,-3,1,-4,1,-2,2,-3,-3
1511884875557268,-3,3,-5,-4,0,6,-2,-4
1511884875563409,-3,1,-1,-3,0,2,-4,-4
1511884875563409,-1,-1,-1,-2,0,-4,3,1
1511884875578350,-2,2,-2,-2,0,7,-3,-1
1511884875578350,-3,-1,-3,-1,-3,1,-2,-1
1511884875585342,-3,-1,-4,-2,-1,3,0,0
1511884875585342,-2,1,-1,0,0,-4,3,0
1511884875594571,4,-2,-1,3,-2,-5,3,2
1511884875594571,2,-2,3,5,-1,-6,-1,1
1511884875608429,3,-2,1,3,-2,-2,-1,-2
1511884875608429,-1,-3,-1,1,0,1,-5,-1
1511884875617427,-2,0,0,-1,3,0,1,-2
1511884875617427,-2,0,-4,-2,1,1,1,-3
1511884875623447,-5,2,-1,-4,2,4,-3,-4
1511884875623447,-3,-2,-2,-4,13,2,-4,-1
1511884875638483,0,5,-1,-2,49,-5,0,-2
1511884875638483,-1,105,4,-3,74,5,-4,-4
1511884875645643,-3,13,-3,-3,119,2,-1,-1
1511884875645643,3,-24,1,0,77,-2,1,-2
1511884875654695,3,-65,2,1,4,-1,-3,2
1511884875654695,-5,-108,-1,-2,-79,7,-2,-3
1511884875668845,1,-57,-4,-2,-127,-9,1,0
1511884875668845,5,-24,-3,3,-128,-12,3,2
1511884875676774,3,11,-1,2,-127,-6,2,1
1511884875676774,3,25,3,3,-91,-2,1,1
1511884875683772,3,37,0,1,-34,2,-1,-1
1511884875683772,-3,18,-1,-1,11,2,4,-1
1511884875697813,-1,25,1,0,45,-2,1,0
1511884875697813,4,5,2,4,59,-10,3,6
1511884875714858,2,-5,2,3,50,-5,3,4
1511884875714858,4,9,1,2,46,1,3,3
1511884875716861,-4,7,-1,0,39,3,-1,1
1511884875716861,-4,-19,-4,-1,34,4,-2,-3
1511884875728896,0,1,-1,-5,13,4,-4,0
1511884875728896,-4,20,-3,-3,4,4,-1,-2
1511884875736914,-3,13,-2,-4,0,2,-3,0
1511884875736914,-2,-7,-2,-5,4,1,-2,-5
1511884875742949,-3,-2,0,-4,-2,1,-4,-3
1511884875742949,-3,-24,1,-3,-6,0,-4,-1
1511884875758074,1,3,-1,-1,-1,-2,-4,-1
1511884875758074,1,10,-1,1,-1,0,5,4
1511884875765991,1,13,-2,-1,-6,-2,0,-1
1511884875765991,-2,4,1,-1,-4,-2,0,-3
1511884875775015,-3,-11,-1,-2,-1,3,0,-5
1511884875775015,-1,-26,1,-2,0,-1,0,1
1511884875788050,-3,6,-1,-2,-3,1,5,-2
1511884875788050,-3,11,-2,-3,-2,-2,-4,2
1511884875797078,-3,13,-3,-1,-4,2,-2,2
1511884875797078,3,9,-4,-3,-2,0,-3,-1
1511884875803215,0,-7,0,1,-2,-1,-3,-1
1511884875803215,0,-5,2,-3,-2,0,-1,0
1511884875818133,2,-61,0,-3,2,-3,-2,-2
1511884875818133,-1,6,-5,0,0,3,-2,-1
1511884875826298,-1,12,-3,3,-3,4,0,-2
1511884875826298,-1,23,-2,1,-6,5,-5,-1
1511884875835419,-2,17,4,1,0,1,1,-1
1511884875835419,-3,1,5,-2,0,-1,2,-2
1511884875848402,0,-5,1,-1,1,2,-4,-3
1511884875848402,1,5,-1,0,1,-4,-3,-1
1511884875857477,2,-2,0,-1,-1,-1,3,1
1511884875857477,-1,-11,-3,0,0,1,2,1
1511884875863495,-3,-27,0,-2,-2,-1,6,0
1511884875863495,-2,-33,0,-1,-2,5,-3,0
1511884875878535,-2,19,0,-1,-2,-2,-7,-2
1511884875878535,0,19,0,0,-1,-6,-7,-3
1511884875885554,3,34,0,0,1,-1,-2,-1
1511884875885554,-1,9,0,1,-1,-3,1,0
1511884875900594,-2,1,-2,0,-6,1,0,0
1511884875900594,-1,-11,-1,-1,3,4,2,-1
1511884875908817,-4,-58,0,-1,2,5,-2,0
1511884875908817,-1,-5,-2,-2,3,0,2,-4
1511884875917640,-1,20,0,-3,2,-4,0,-1
1511884875917640,-1,18,-2,0,4,-3,1,-1
1511884875923656,0,25,-1,-2,-2,0,3,0
1511884875923656,-1,15,-4,-4,-2,7,17,-2
1511884875938693,0,12,-1,0,-5,12,5,0
1511884875938693,-4,-16,-2,-2,-14,1,-10,1
1511884875945715,-5,-88,-3,-3,-25,-4,-17,-4
1511884875945715,-5,-12,-2,-2,-19,-5,-17,-2
1511884875960882,-2,7,-2,1,1,-5,0,-1
1511884875960882,4,33,2,-2,31,2,-5,0
1511884875967876,5,51,1,2,34,-1,7,4
1511884875967876,2,12,2,1,32,-4,-1,0
1511884875976901,2,-8,0,1,5,-1,3,-1
1511884875976901,1,0,2,1,2,6,-6,1
1511884875982916,0,16,-2,0,-9,-2,-7,-4
1511884875982916,3,-21,-1,1,-9,-2,3,-1
1511884875997958,-1,-54,-1,3,-1,0,3,-1
1511884875997958,-1,-27,0,-1,-12,-3,6,-3
1511884876006016,-2,25,0,0,-10,1,3,0
1511884876006016,-2,18,-2,-1,-4,2,-1,1
1511884876021016,1,19,-2,-3,-3,0,-3,-1
1511884876021016,-3,-9,2,-1,-4,1,2,0
1511884876028036,1,-4,1,-3,0,6,1,-1
1511884876028036,-2,2,1,-1,-6,3,0,1
1511884876037056,-2,2,-4,-2,-1,0,-1,-1
1511884876037056,-1,-7,-4,-1,-1,1,-2,-1
1511884876043195,-1,7,0,1,1,-1,-1,2
1511884876043195,4,-2,-1,-1,1,-2,-2,1
1511884876058300,-1,-5,0,-1,1,-7,-3,1
1511884876058300,1,-6,0,-1,-2,-2,-1,-4
1511884876066283,1,-1,0,0,1,4,1,-2
1511884876066283,0,-5,-3,1,-1,1,0,-1
1511884876080391,2,3,-1,-1,-2,2,-2,-2
1511884876080391,-1,0,-2,-3,-3,0,2,1
1511884876088411,1,-3,0,-2,-2,0,2,1
1511884876088411,-1,-1,1,1,0,0,-1,-2
1511884876105455,-2,3,-1,0,-2,-2,-1,0
1511884876105455,1,-4,-2,-1,-1,-3,3,-1
1511884876106571,0,-4,-3,-2,1,-2,-1,1
1511884876106571,2,-1,-1,-1,0,-1,1,3
1511884876118495,-2,1,-1,-1,0,3,1,0
1511884876118495,-1,-1,1,-1,-2,-2,0,-1
1511884876125920,-1,-1,0,0,-1,-4,1,1
1511884876125920,-2,-1,0,0,0,0,-3,-2
1511884876140923,-1,0,1,1,0,-1,-2,0
1511884876140923,-3,0,-2,0,0,4,-2,-1
1511884876147840,-2,1,-1,-2,-2,-1,-2,-2
1511884876147840,1,0,-2,-2,0,-1,-1,-3
1511884876164008,2,2,1,-2,0,6,-2,1
1511884876164008,-1,-2,-4,0,-4,0,-1,2
1511884876164914,-2,1,-1,-2,2,-1,-2,-2
1511884876164914,-2,-1,-2,-2,1,1,-1,-3
1511884876177922,1,1,-1,-1,-2,0,-1,-3
1511884876177922,-1,0,0,0,1,0,-3,-3
1511884876186072,0,-2,-1,0,-4,-5,0,-1
1511884876186072,-1,-1,0,1,-2,-1,0,1
1511884876200986,-1,-2,-2,-1,-1,-4,-1,1
1511884876200986,0,-1,-2,1,-2,2,1,-1
1511884876207998,2,-3,0,-1,1,-7,-1,0
1511884876207998,4,-2,0,-4,-3,-1,1,4
1511884876223224,1,0,1,3,1,1,2,-1
1511884876223224,0,-2,0,1,0,1,-2,-2
1511884876231061,-2,0,0,1,-1,1,-1,0
1511884876231061,-2,-2,-4,-2,-1,-1,6,1
1511884876238225,-1,-1,-2,-3,-1,-2,0,2
1511884876238225,-2,1,1,-1,-1,-2,-1,-2
1511884876246250,-5,1,-4,0,1,7,-3,-3
1511884876246250,-4,2,0,-4,-1,1,-6,-3
1511884876260294,-3,0,2,1,-1,-2,-4,-1
1511884876260294,-3,4,-1,-3,-2,-6,-2,-1
1511884876268401,-4,0,0,-1,1,-4,3,-1
1511884876268401,-2,0,0,-1,1,-4,-4,-2
1511884876283621,-1,3,0,-1,0,1,-1,-1
1511884876283621,-1,3,-1,-1,0,-9,-3,2
1511884876291638,3,-1,8,7,1,-4,-5,4
1511884876291638,-2,-2,-4,2,-1,-4,1,-2
1511884876298554,0,-1,-4,-15,-2,-2,1,2
1511884876298554,1,-5,2,14,7,-1,7,0
1511884876306008,-2,-4,9,50,4,1,-5,-2
1511884876306008,-2,-2,42,74,15,0,0,1
1511884876320995,-6,12,31,37,14,2,-7,5
1511884876320995,-3,-1,21,11,42,5,0,6
1511884876328014,3,0,-1,-35,11,-1,-2,13
1511884876328014,1,-4,-9,-48,-7,2,-7,-13
1511884876343228,2,-6,-41,-52,-42,-3,-1,-9
1511884876343228,4,-16,-60,-66,-62,-4,6,-9
1511884876351075,4,-24,-50,-46,-50,-4,2,-2
1511884876351075,1,-17,-46,-32,-46,-2,5,4
1511884876366120,2,-17,-25,-21,-33,-1,13,3
1511884876366120,0,1,-3,-4,-5,0,12,9
1511884876367117,0,1,9,9,12,-1,6,2
1511884876367117,4,7,27,1,33,2,-8,10
1511884876381155,0,12,34,18,30,-4,-31,-9
1511884876381155,-1,15,33,26,13,-1,-26,-8
1511884876388177,-4,9,24,19,25,4,-17,-7
1511884876388177,-1,5,18,21,16,2,-5,-19
1511884876403626,-5,-1,3,23,8,-1,0,-14
1511884876403626,-4,1,1,11,0,2,7,-7
1511884876411644,-3,1,-1,-2,-6,1,15,1
1511884876411644,0,2,-8,0,-9,2,3,10
1511884876426515,4,2,6,3,21,2,12,12
1511884876426515,-2,-1,2,18,-9,-2,2,4
1511884876427522,5,2,8,-5,18,1,6,4
1511884876427522,-5,-4,-19,-9,-10,-2,-1,4
1511884876440580,0,-8,-3,-3,-4,-1,7,2
1511884876440580,-1,-5,-8,-12,-5,3,-3,2
1511884876448577,-4,-2,-4,2,-3,-3,-1,-2
1511884876448577,2,4,7,12,-1,1,-1,-7
1511884876462964,-4,-1,6,10,10,0,-2,3
1511884876462964,0,-5,1,-23,-6,-2,-4,2
1511884876472009,-4,-1,-7,-9,-9,3,-4,-8
1511884876472009,0,4,-14,-19,-6,-4,3,3
1511884876487025,-5,-1,-2,5,3,1,1,-1
1511884876487025,2,3,4,0,7,2,1,-1
1511884876487025,2,6,12,2,-2,2,0,-7
1511884876487025,-3,4,-2,-4,-1,11,-1,7
1511884876501185,-3,4,6,12,2,5,-4,-6
1511884876501185,-4,0,-7,-8,4,10,-3,-5
1511884876508111,0,2,-2,4,-6,6,1,-5
1511884876508111,6,0,-16,-4,10,1,6,6
1511884876523165,0,1,2,-6,-5,2,4,-1
1511884876523165,-8,-13,9,11,2,-3,-4,-9
1511884876531185,5,-11,-8,-16,11,-6,-3,5
1511884876531185,-1,-6,-4,-24,-13,-6,-2,-11
1511884876546188,-6,-42,-9,-107,-10,-11,2,-2
1511884876546188,-6,-83,-55,-47,-13,-17,7,2
1511884876547190,4,-68,-34,-1,-18,-9,4,5
1511884876547190,-5,-126,-9,6,-26,-17,16,3
1511884876561223,-29,-86,32,108,-85,15,-1,12
1511884876561223,-87,106,41,64,-119,13,-11,-7
1511884876568283,-127,117,14,71,-128,26,-16,6
1511884876568283,-105,78,21,70,85,4,-3,-4
1511884876583304,-128,-84,16,38,115,-5,3,-7
1511884876583304,-103,-128,17,32,127,-16,-8,1
1511884876591429,-55,-112,20,-12,127,-11,-16,-1
1511884876591429,-46,-52,13,-35,100,1,-8,-4
1511884876606345,122,11,-17,-63,91,-19,2,0
1511884876606345,127,22,-4,-22,14,-5,20,10
1511884876607345,127,27,-32,-55,-58,-19,5,-1
1511884876607345,127,38,5,-35,-120,-15,1,4
1511884876620382,111,41,-13,-4,-86,-6,18,-8
1511884876620382,94,34,-14,1,-86,11,7,-2
1511884876628513,127,9,5,9,-63,18,21,-3
1511884876628513,127,0,-15,-37,-62,19,8,0
1511884876643631,127,16,-25,11,-52,8,11,8
1511884876643631,49,-7,-7,-49,-11,13,21,5
1511884876651553,-48,-18,17,-1,21,7,26,-8
1511884876651553,-50,-13,1,34,-8,1,-10,-3
1511884876666610,-128,4,8,12,-20,-4,-33,-7
1511884876666610,-41,-30,14,9,4,-36,-21,-8
1511884876667505,-103,-18,-3,5,18,-48,-18,-3
1511884876667505,-126,6,-5,-1,18,11,-22,6
1511884876680543,-128,22,-5,-4,27,13,-19,19
1511884876680543,-126,18,11,19,12,38,-1,6
1511884876696586,-100,20,-7,4,-15,11,1,9
1511884876696586,-113,11,7,2,-43,14,-11,5
1511884876703810,26,15,-4,-13,-32,19,-6,-20
1511884876703810,86,49,-8,17,2,12,29,-10
1511884876711622,127,3,20,0,5,15,2,-16
1511884876711622,42,-7,-11,-4,17,5,-14,-3
1511884876726665,-33,-84,-4,-6,4,11,5,-12
1511884876726665,4,-112,2,-9,10,-15,-15,-57
1511884876727667,7,-8,14,-3,31,-12,-100,27
1511884876727667,-44,46,0,-1,33,0,-106,-122
1511884876740745,-20,48,-8,-18,-9,-35,-93,-99
1511884876740745,-91,16,0,1,-10,-112,75,3
1511884876748841,-57,5,0,9,-10,-85,127,80
1511884876748841,5,-100,-9,16,-14,-46,127,73
1511884876762842,79,45,-1,20,5,20,46,127
1511884876762842,124,31,-6,-3,-31,127,-6,112
1511884876772056,6,2,-17,-1,-83,94,-6,-36
1511884876772056,19,6,4,3,-22,80,-22,99
1511884876786910,-46,5,0,-5,16,19,40,105
1511884876786910,-66,-17,12,-3,57,6,-1,51
1511884876786910,44,31,11,-9,73,15,-14,0
1511884876786910,117,19,-1,4,30,-40,-19,75
1511884876800947,71,26,-7,-2,20,-23,1,68
1511884876800947,18,8,-9,2,4,-5,-41,42
1511884876808286,23,-8,-1,-3,-5,-15,-14,12
1511884876808286,-5,-5,-7,-2,-19,7,18,0
1511884876817124,35,-14,-5,3,-13,-13,20,-58
1511884876817124,-43,-4,-2,0,-17,7,-1,-53
1511884876831165,-14,-32,-7,-7,-7,8,-38,-24
1511884876831165,7,5,13,2,0,-1,-44,-35
1511884876838180,-3,8,5,-6,-12,-3,-43,-26
1511884876838180,-17,16,10,-3,-11,-40,-40,-23
1511884876846205,-38,-16,6,-4,11,-26,-4,0
1511884876846205,-72,1,6,1,-1,-3,37,-44
1511884876862245,-5,-3,-9,0,-7,14,24,-53
1511884876862245,19,6,-19,-4,-8,14,17,-32
1511884876868264,21,5,-20,-6,5,3,22,-19
1511884876868264,21,10,-8,-5,-3,-9,7,-6
1511884876883484,-19,-7,4,-2,-6,4,-1,-6
1511884876883484,1,3,3,-4,-2,-10,-13,-9
1511884876891428,3,0,2,-2,2,0,0,4
1511884876891428,100,0,2,-5,-7,2,11,-49
1511884876898344,107,0,9,-2,-4,-3,-7,-17
1511884876898344,127,10,19,-6,-5,7,-37,-93
1511884876905681,-91,22,9,-8,-8,15,-47,25
1511884876905681,49,36,-10,-7,-9,-1,-9,82
1511884876920985,-44,114,-13,1,-3,-9,-55,-80
1511884876920985,13,-31,-6,8,-27,-6,-9,-44
1511884876928200,96,-100,-2,11,0,1,87,42
1511884876928200,42,-120,7,10,14,-15,72,64
1511884876943606,33,57,-1,12,16,-16,88,127
1511884876943606,-29,30,0,8,33,-5,18,91
1511884876950625,-17,4,4,4,17,-3,-6,-35
1511884876950625,-38,9,21,-2,2,-3,-35,26
1511884876959648,-31,-47,7,-2,-3,0,-29,11
1511884876959648,-69,27,-6,4,2,-3,-14,37
1511884876965668,-2,-1,-12,2,2,-10,19,45
1511884876965668,6,-6,-19,3,-1,-7,15,-15
1511884876980810,30,-47,-10,-3,-6,6,-12,-41
1511884876980810,51,-15,-31,-11,-7,4,-11,-13
1511884876987998,48,-53,-10,-4,-5,8,-35,-25
1511884876987998,16,23,1,-7,-6,2,-14,-42
1511884877003260,-15,-22,12,-12,-12,2,-7,-28
1511884877003260,-18,-13,9,-10,-5,-3,-43,4
1511884877010256,-1,51,23,3,1,-4,-39,-24
1511884877010256,-30,37,-5,-7,-5,-20,17,-42
1511884877019280,-24,-11,-17,34,4,-48,88,-6
1511884877019280,-4,3,-21,-53,-14,-40,107,10
1511884877025328,-29,28,9,21,-27,-32,100,-32
1511884877025328,6,13,13,-5,18,2,75,0
1511884877040338,-1,-8,15,2,0,21,26,32
1511884877040338,-12,-14,4,13,9,26,-59,49
1511884877048360,-10,2,4,-9,0,50,-123,13
1511884877048360,-7,2,12,2,-7,49,-116,2
1511884877063556,18,-24,-7,-2,-18,62,-58,-4
1511884877063556,5,-2,-3,19,4,28,-14,-19
1511884877070560,4,-4,-18,-1,11,9,1,-9
1511884877070560,-79,-3,-7,8,-1,2,14,-9
1511884877086694,-51,-18,34,0,51,-26,86,-10
1511884877086694,-22,-9,14,8,52,-26,127,-5
1511884877087605,3,-10,2,13,101,-70,127,-5
1511884877087605,-9,-7,-25,10,2,-73,118,-19
1511884877100675,-25,30,-20,-9,-61,37,-97,-52
1511884877100675,87,35,-22,-24,-115,36,-107,-6
1511884877108679,122,63,-14,-39,-128,127,-128,49
1511884877108679,102,29,0,-9,-116,-14,-124,30
1511884877123699,18,15,-15,-19,-97,-75,-71,25
1511884877123699,-28,-6,-1,21,53,-77,-52,15
1511884877130720,-38,-12,-20,-10,108,-49,-33,-4
1511884877130720,-39,-22,-4,5,127,6,3,8
1511884877139741,-20,-21,-4,22,66,-5,24,7
1511884877139741,-21,2,8,12,33,36,39,8
1511884877153964,-6,3,-2,-4,36,42,46,4
1511884877153964,2,-3,-5,-10,24,39,38,34
1511884877160797,17,-18,-10,-37,10,23,60,39
1511884877160797,12,-13,-1,11,19,-11,61,30
1511884877167819,-18,-11,7,-3,-48,-36,9,20
1511884877167819,-34,2,6,-5,-17,-18,-65,-101
1511884877183082,-72,-4,11,-9,9,-37,-63,-115
1511884877183082,-82,5,19,2,17,-39,-109,-126
1511884877191295,-27,-3,17,-1,5,-31,-44,-35
1511884877191295,10,-5,3,-3,-13,22,22,36
1511884877200129,57,-7,-5,18,17,40,77,92
1511884877200129,1,-21,-7,2,-42,25,60,40
1511884877214164,-4,45,-5,4,-42,-11,42,6
1511884877214164,12,-8,23,3,-26,-15,-3,22
1511884877221180,12,-49,0,-3,-6,-3,-20,18
1511884877221180,22,-62,-21,-2,-7,23,-31,22
1511884877228199,6,-38,-14,29,8,39,-35,-3
1511884877228199,-11,-1,-37,-26,-36,53,-11,-6
1511884877243345,-59,44,-2,-10,0,79,1,-5
1511884877243345,-80,34,7,-3,-75,-8,42,2
1511884877251356,-49,22,17,-7,-94,-107,34,-61
1511884877251356,-10,29,15,17,-40,-105,93,-45
1511884877259285,67,25,10,6,-16,-75,32,-45
1511884877259285,55,11,7,1,15,-20,-9,-4
1511884877274506,79,-46,-1,2,64,30,-89,24
1511884877274506,91,-50,2,1,95,26,-128,108
1511884877280340,-67,19,-5,-10,103,11,-90,97
1511884877280340,-81,48,6,-1,115,42,-27,48
1511884877288530,-17,63,-2,-1,75,19,25,-9
1511884877288530,78,34,-3,-1,28,16,55,-31
1511884877303691,127,-13,2,7,-19,4,50,-12
1511884877303691,65,0,4,3,-36,-1,31,-15
1511884877310714,-34,-33,-4,-6,-49,-7,34,-12
1511884877310714,-80,-18,-2,-2,-48,10,-6,-37
1511884877319621,-72,-15,2,-3,-54,5,-40,-39
1511884877319621,-50,3,-3,-11,-46,-4,-15,-23
1511884877333691,-24,-7,-3,-8,-32,6,-12,-12
1511884877333691,-36,2,3,0,-20,8,-10,-4
1511884877340715,-21,0,1,0,-13,-6,-17,-14
1511884877340715,17,-12,0,-1,-5,0,-10,-5
1511884877348821,7,-8,-1,-1,4,5,10,13
1511884877348821,-15,9,-2,-1,-1,-7,-14,-1
1511884877363854,1,-7,-2,3,3,-8,9,3
1511884877363854,28,-11,2,7,14,-1,6,7
1511884877370851,16,1,-3,-8,8,-3,4,14
1511884877370851,-12,3,-5,-8,6,5,14,2
1511884877379857,14,-5,-3,-2,2,-7,8,1
1511884877379857,20,1,8,11,13,1,11,7
1511884877393893,5,4,-1,4,8,-2,13,8
1511884877393893,-10,3,-2,-2,-2,-5,7,-4
1511884877400915,0,-12,-4,0,4,-3,9,6
1511884877400915,10,1,-9,-7,2,-2,9,-7
1511884877407933,0,1,4,0,-7,-2,19,6
1511884877407933,-1,7,2,0,2,0,20,-7
1511884877423167,-10,-18,-7,-5,-3,-3,8,-1
1511884877423167,-1,-10,0,-6,-2,-2,-13,-7
1511884877430995,0,-2,-10,-6,-5,-5,-8,-2
1511884877430995,-2,-12,4,7,3,-2,-24,-3
1511884877439353,10,17,10,5,0,-5,-25,0
1511884877439353,2,3,3,6,-3,-1,-11,-1
1511884877454282,1,5,-9,7,1,-2,-8,2
1511884877454282,-11,14,-7,-4,-12,-2,-12,-4
1511884877461300,3,-1,-8,-40,-17,-4,9,2
1511884877461300,4,7,0,-17,6,-18,7,7
1511884877468321,1,-4,8,14,-4,-4,-6,-3
1511884877468321,0,-3,8,1,6,-3,7,3
1511884877483358,-2,-12,-9,18,8,11,-1,2
1511884877483358,-1,-15,-5,5,-8,15,3,-3
1511884877490378,-1,-19,-21,-31,-9,4,26,-1
1511884877490378,-11,-15,-3,5,0,9,95,2
1511884877507423,-5,-3,2,-1,-1,-17,82,-3
1511884877507423,1,3,8,3,-1,-15,61,6
1511884877513462,4,13,13,15,4,-26,41,0
1511884877513462,3,-6,0,-3,-10,-17,-14,2
1511884877520458,8,4,0,0,-3,2,-9,6
1511884877520458,3,12,-8,2,5,22,0,-4
1511884877528479,5,13,10,-3,16,24,-67,-8
1511884877528479,-9,-1,-9,-5,13,42,-105,-7
1511884877543519,-6,3,4,6,10,25,-116,-8
1511884877543519,6,-2,-5,-9,-4,7,-113,-7
1511884877550536,2,-2,0,-2,0,-4,-50,3
1511884877550536,2,3,5,3,-5,-25,-12,-2
1511884877559562,-7,0,-3,0,0,-27,-6,-3
1511884877559562,-1,0,2,6,-9,-18,27,-3
1511884877573633,-4,-2,-5,-18,-5,-3,57,2
1511884877573633,-2,0,-3,-1,-3,-5,44,-1
1511884877580616,-5,-2,-1,0,-13,1,39,-3
1511884877580616,-1,0,5,4,11,4,29,-1
1511884877588686,-5,-3,-2,4,-1,3,25,-5
1511884877588686,-2,2,0,2,-5,-3,3,-4
1511884877603773,3,5,6,2,0,2,15,-2
1511884877603773,-2,-3,-4,-8,-5,0,7,-2
1511884877610702,-2,-6,4,8,3,1,-6,-1
1511884877610702,-1,7,-3,-5,-2,-2,-2,-1
1511884877619734,1,-2,8,4,4,3,6,2
1511884877619734,4,-2,-9,0,-3,-2,-8,-1
1511884877633801,-1,4,2,-1,2,1,-7,-3
1511884877633801,6,-7,3,6,2,-4,-1,0
1511884877640819,-10,-6,-13,-8,-1,4,1,1
1511884877640819,-1,-1,0,-6,-3,-5,-5,-1
1511884877648802,-6,-2,-4,-7,-8,2,-7,2
1511884877648802,-2,3,6,4,5,2,2,-5
1511884877662840,2,2,2,11,-1,-3,-6,3
1511884877662840,-1,-5,-5,-9,2,2,1,2
1511884877670857,-2,-4,4,9,3,-2,-1,2
1511884877670857,3,-1,-6,-7,-2,-1,2,6
1511884877679911,8,1,3,3,-5,-1,-3,-1
1511884877679911,-6,2,-3,-7,-10,-4,-2,-3
1511884877694038,-1,1,-5,2,14,-1,3,1
1511884877694038,-3,-4,-8,-12,-7,-3,-2,-1
1511884877700941,2,4,2,9,4,1,-7,-4
1511884877700941,2,-2,1,-1,1,2,4,0
1511884877708249,1,-2,0,1,-3,0,-1,-1
1511884877708249,-2,-3,3,8,2,2,-1,0
1511884877723206,-1,0,-1,-4,2,-2,2,-2
1511884877723206,4,-1,2,2,1,4,3,2
1511884877731234,-4,-5,-2,-4,-6,1,-3,-2
1511884877731234,-3,3,-1,-4,-1,0,-4,-3
1511884877746257,5,-1,0,-2,2,-3,4,2
1511884877746257,0,0,3,3,0,1,1,-1
1511884877754272,0,0,-4,-7,-6,0,-6,-6
1511884877754272,-4,0,-1,2,5,5,0,0
1511884877761279,1,0,-4,-7,-1,0,1,0
1511884877761279,-2,0,-1,-5,-3,-2,-2,2
1511884877768403,0,-1,1,3,-3,-1,-1,1
1511884877768403,1,-1,2,4,0,-3,1,0
1511884877783440,2,-2,0,2,0,1,-3,-2
1511884877783440,-3,-3,-2,-2,-4,-1,-2,-1
1511884877790462,1,-1,-2,-2,2,-3,-1,2
1511884877790462,-2,-3,-3,-9,-3,-1,0,-1
1511884877805482,-1,1,2,1,1,1,-3,0
1511884877805482,3,0,3,7,4,-2,-1,1
1511884877814517,2,-3,1,1,0,0,1,1
1511884877814517,-4,-2,-3,2,-1,1,2,-6
1511884877828614,-3,0,-3,-6,-1,-2,-2,-1
1511884877828614,1,0,-5,-2,0,0,0,1
1511884877829614,1,0,-3,-2,-2,1,3,3
1511884877829614,-1,-1,2,2,2,-2,-4,-1
1511884877843652,3,-2,2,-1,-1,-1,3,1
1511884877843652,-2,1,3,5,1,0,-2,-1
1511884877850786,2,-3,-1,0,-1,-1,2,1
1511884877850786,1,2,1,1,1,2,2,2
1511884877865886,1,-6,1,2,-2,0,-5,-1
1511884877865886,0,-1,0,-3,0,0,-3,-5
1511884877873948,0,0,-2,-2,-4,-2,-1,-1
1511884877873948,-1,2,2,1,-2,0,-2,2
1511884877888948,-4,-1,0,8,4,-3,1,-2
1511884877888948,-1,-3,1,4,1,-1,-2,0
1511884877889952,-3,-1,-1,-8,-6,3,-4,-3
1511884877889952,-6,-1,0,5,2,2,-6,-6
1511884877903126,-6,2,-1,-1,-3,1,-10,-6
1511884877903126,-1,0,5,8,1,1,-3,0
1511884877911097,1,3,-3,-9,-3,-3,0,-1
1511884877911097,-1,-5,-15,-14,-4,-4,0,0
1511884877926132,3,0,-4,-8,0,1,1,0
1511884877926132,2,2,8,4,-2,-2,3,2
1511884877934345,0,1,7,14,10,1,-1,0
1511884877934345,1,2,1,0,-5,0,-2,-1
1511884877949204,0,-1,-3,-5,0,-1,3,1
1511884877949204,1,1,1,-2,-2,1,-3,-4
1511884877950263,-1,1,2,4,-2,-1,1,0
1511884877950263,-2,-6,1,4,1,-3,-1,2
1511884877963552,-3,-2,-9,-12,-3,-1,-5,0
1511884877963552,-2,3,4,-2,2,-5,-6,-5
1511884877970505,-1,-3,5,9,-4,4,0,0
1511884877970505,-2,-3,-7,2,-3,0,1,-4
1511884877985434,-2,-3,-21,-33,-9,-1,0,-3
1511884877985434,1,-1,-1,-6,2,-2,-1,2
1511884877994459,1,-2,2,2,-3,-3,0,2
1511884877994459,1,2,9,16,2,-2,1,0
1511884878009548,-1,0,3,3,-1,0,-2,-2
1511884878009548,-2,-3,-7,-6,-5,1,1,0
1511884878009548,0,-1,-1,1,2,-1,3,3
1511884878009548,1,0,3,1,0,4,1,-3
1511884878023615,1,0,1,5,3,-5,2,0
1511884878023615,1,0,-6,-3,-3,0,-1,1
1511884878030555,-4,1,-3,0,-1,-1,-2,-4
1511884878030555,2,0,-2,-8,-2,1,-1,1
1511884878045735,0,-1,4,6,2,0,5,3
1511884878045735,-1,-5,-3,-1,0,-1,1,0
1511884878053795,0,1,-2,-4,1,1,-5,-5
1511884878053795,4,2,-1,-6,2,-1,-2,2
1511884878068826,0,1,3,6,-2,-1,4,3
1511884878068826,0,-3,-2,0,-3,2,-5,-3
1511884878076816,0,0,-4,-6,-3,-2,-1,-3
1511884878076816,-1,-1,-3,-4,-2,-3,0,-2
1511884878091860,-2,0,1,2,-2,0,2,-3
1511884878091860,-2,2,-1,-3,-1,-3,-2,3
1511884878092899,0,-4,-3,-4,-1,0,0,1
1511884878092899,1,-1,1,-1,-3,-1,-2,-1
1511884878105891,2,1,3,4,-1,3,1,-1
1511884878105891,0,-3,-3,-1,-2,4,-2,1
1511884878113911,-1,-1,-3,-2,1,7,-1,-3
1511884878113911,-2,3,0,0,-2,2,0,-1
1511884878127957,1,-1,-1,-1,-2,-3,0,1
1511884878127957,4,-1,-2,-1,0,-6,1,-2
1511884878136975,-1,0,-2,-1,0,0,-3,-2
1511884878136975,-1,1,1,-2,-1,-7,-2,1
1511884878152061,-1,-3,4,1,1,-4,-3,-1
1511884878152061,-1,-2,-5,-1,-1,7,2,-3
1511884878152061,0,-1,0,0,-1,3,-4,0
1511884878152061,2,2,-2,0,0,-1,-1,1
1511884878166103,0,10,3,1,3,2,0,-1
1511884878166103,-4,9,5,-1,-3,5,-1,-4
1511884878174198,1,8,6,-2,-2,-1,2,-1
1511884878174198,0,6,-4,-2,1,14,-1,-2
1511884878188114,-4,22,-6,4,1,22,1,-1
1511884878188114,-2,-9,-10,-1,0,28,10,-2
1511884878196197,-3,-2,-8,-2,-2,40,22,-3
1511884878196197,-1,-4,3,-2,1,34,14,-2
1511884878211170,1,-2,4,-5,-2,27,-1,-1
1511884878211170,9,-2,3,-1,1,-100,9,1
1511884878212173,14,-20,1,-1,1,-105,-5,3
1511884878212173,-2,-6,-1,0,1,-50,-9,15
1511884878226214,0,-25,-1,1,4,-13,-18,23
1511884878226214,-1,-14,6,1,-2,3,-12,-1
1511884878234234,-7,19,4,-1,0,11,2,4
1511884878234234,13,35,9,-1,4,-10,11,-7
1511884878248393,10,62,7,2,-3,-2,19,-9
1511884878248393,2,-24,7,1,12,26,1,3
1511884878256415,16,-108,3,-2,6,10,-9,-3
1511884878256415,27,-37,1,1,16,5,-29,3
1511884878271331,49,-34,4,-1,42,2,-15,5
1511884878271331,22,51,11,-3,64,28,-16,0
1511884878272334,18,62,7,-2,55,12,-11,-12
1511884878272334,19,-1,-15,-2,42,7,16,-17
1511884878285694,26,7,-9,-1,43,-29,40,-8
1511884878285694,102,26,-9,-2,21,-29,115,9
1511884878293509,98,1,-11,0,31,-35,65,17
1511884878293509,58,29,-1,-4,57,-46,119,8
1511884878308726,-77,3,10,-3,118,-30,27,9
1511884878308726,-112,-25,-24,5,-41,29,-105,-3
1511884878316582,-128,20,-11,-1,-89,32,-128,-37
1511884878316582,-103,16,-19,-27,-128,22,-128,-23
1511884878331622,-106,-19,-42,18,-128,19,-112,1
1511884878331622,-65,-39,-97,-7,-1,27,-67,8
1511884878332625,21,-18,-128,11,99,14,-67,22
1511884878332625,-20,-7,-128,63,127,15,7,9
1511884878347665,40,-63,-116,-52,127,2,28,0
1511884878347665,102,-106,98,-109,76,-33,68,3
1511884878353681,120,-11,-100,-125,49,17,54,-1
1511884878353681,61,86,127,-128,37,21,21,-13
1511884878368835,-92,126,99,-40,-108,3,5,-3
1511884878368835,-128,21,32,33,-127,-27,62,-20
1511884878376943,-128,-25,49,79,-127,-53,77,-29
1511884878376943,-128,-72,1,117,51,-67,27,-69
1511884878391786,-97,93,-47,88,67,-16,-25,-84
1511884878391786,-85,43,-77,41,76,12,-38,-55
1511884878391786,-5,-33,116,127,12,8,-9,-25
1511884878391786,27,-39,-85,16,-89,39,-43,31
1511884878406074,127,-52,-15,-90,-91,12,-33,50
1511884878406074,-80,16,87,97,2,12,-17,47
1511884878414004,-128,-4,-8,68,21,-8,12,43
1511884878414004,33,-7,75,81,7,8,8,38
1511884878428020,110,-44,100,124,19,10,54,42
1511884878428020,127,13,-45,116,15,11,40,12
1511884878437073,111,-15,49,85,-1,49,10,-11
1511884878437073,30,-38,32,127,-39,21,-1,1
1511884878451078,102,-15,-1,127,-30,31,19,-18
1511884878451078,127,13,1,102,-41,16,9,4
1511884878452081,101,20,-52,-22,-84,9,56,18
1511884878452081,59,-1,-128,-128,-40,-2,54,8
1511884878466118,-1,-11,-77,-128,18,-21,18,1
1511884878466118,-50,18,-61,-128,49,-18,-26,-4
1511884878474142,-48,29,-15,-128,69,-30,-14,0
1511884878474142,-36,19,24,-105,52,-16,-8,4
1511884878488187,-67,-14,5,-98,31,-15,-18,0
1511884878488187,-49,-12,19,-107,7,-9,-27,-4
1511884878496201,-20,21,13,-69,29,-1,-40,-6
1511884878496201,-31,-1,24,-39,-1,-2,-43,-5
1511884878511238,-49,-13,12,-15,-8,1,-31,-10
1511884878511238,-4,4,-9,-34,-4,-4,-24,-5
1511884878512241,-4,10,13,-14,-6,4,-15,5
1511884878512241,-28,-1,1,-7,-8,1,4,6
1511884878527281,-12,-8,-3,7,-12,-4,15,-5
1511884878527281,5,8,7,4,-11,0,19,3
1511884878534304,-9,8,2,-6,-3,-1,10,2
1511884878534304,-10,-15,8,9,-7,-1,11,3
1511884878548450,-5,-9,-4,15,1,0,11,-3
1511884878548450,-2,-9,1,-4,-6,2,5,0
1511884878556670,-4,9,7,3,1,-1,3,0
1511884878556670,0,9,-2,1,0,-1,3,2
1511884878563503,-1,-13,1,6,-4,3,6,0
1511884878563503,-5,6,-9,-3,-8,3,-5,-4
1511884878570707,-1,1,-2,-3,3,3,0,-3
1511884878570707,4,3,-2,-1,-5,2,-2,2
1511884878585889,-8,-6,3,4,-3,0,-2,-3
1511884878585889,-2,0,0,1,-2,1,1,-4
1511884878602044,-1,2,-3,-4,3,2,2,1
1511884878602044,-6,-7,2,2,-1,-1,-3,0
1511884878603937,-11,-5,-3,10,-2,-13,5,-2
1511884878603937,5,-5,-2,2,-3,-2,5,1
1511884878616995,15,-4,-1,-2,1,23,0,-2
1511884878616995,7,9,-3,6,1,10,0,0
1511884878623092,3,10,-5,4,-3,6,-1,-3
1511884878623092,-1,16,4,-5,-3,-9,-2,0
1511884878631032,-9,0,3,-4,-1,-10,-9,-2
1511884878631032,-9,-25,0,1,-2,0,-2,-4
1511884878646048,-8,-22,3,2,-1,-18,-3,-2
1511884878646048,-5,-20,-3,-5,-6,-3,-1,1
1511884878654070,-11,-11,9,2,0,-1,0,2
1511884878654070,-21,-6,2,-6,0,-2,3,-3
1511884878661114,-19,4,0,-5,-6,6,9,4
1511884878661114,-26,20,-3,-6,-2,8,4,-3
1511884878676128,-11,38,2,-6,-5,-2,18,-3
1511884878676128,-19,37,-5,7,4,10,4,4
1511884878683150,-11,29,-10,11,3,13,-7,-2
1511884878683150,-19,5,-12,-7,-10,14,-47,-7
1511884878691287,-16,-21,-12,-26,-13,13,-66,-9
1511884878691287,-23,-11,3,-21,-6,14,-40,-10
1511884878706217,-32,-20,7,7,8,-13,-1,-1
1511884878706217,42,-14,28,24,14,-18,33,11
1511884878714476,15,4,22,22,7,-18,41,13
1511884878714476,30,-12,13,22,9,-9,35,2
1511884878728591,122,-16,-2,0,3,0,2,-2
1511884878728591,-112,59,-13,-11,-3,0,-3,-3
1511884878736537,-96,19,-12,-5,-4,-15,-5,2
1511884878736537,-27,-17,-4,1,0,-46,11,3
1511884878743610,65,-12,-3,-1,-20,-28,22,1
1511884878743610,127,-11,-4,-8,-5,16,-4,-8
1511884878750524,127,18,-2,0,0,38,0,-9
1511884878750524,110,15,-4,-5,1,56,-9,3
1511884878765746,97,-6,-5,-12,-2,47,1,-3
1511884878765746,117,-27,4,-3,4,5,-3,-5
1511884878773840,63,-3,0,4,5,0,-31,-1
1511884878773840,19,-8,-1,-8,6,8,1,2
1511884878788776,-91,-3,-3,0,0,10,-24,-5
1511884878788776,-123,-5,-4,4,4,-2,-1,2
1511884878796784,-109,-30,-4,2,7,-9,31,3
1511884878796784,-78,17,-4,-2,-3,-13,-37,0
1511884878802839,-100,6,0,8,4,-25,-24,3
1511884878802839,-69,-10,3,7,-3,-6,-10,1
1511884878810859,-20,-9,-8,-8,-3,-16,-8,1
1511884878810859,-5,6,-4,-3,-6,-11,-2,6
1511884878825899,-29,27,-2,-1,-1,3,5,-3
1511884878825899,6,-20,-2,-8,-6,-1,-1,-1
1511884878833922,0,-22,5,5,2,-7,12,-8
1511884878833922,-12,8,3,11,-1,-4,20,-2
1511884878847959,-127,-13,3,-2,2,-2,8,2
1511884878847959,-107,-18,-8,-17,-8,-4,14,-2
1511884878857012,16,-13,-5,-8,-2,-3,14,-2
1511884878857012,71,-28,-1,-2,-4,0,11,-2
1511884878863031,127,-4,3,-1,-2,-9,3,5
1511884878863031,127,23,1,10,-2,-8,-3,15
1511884878871048,76,22,-1,3,-22,-3,-15,5
1511884878871048,44,33,3,-2,-22,-6,-20,-4
1511884878886202,3,36,1,-3,-21,2,-4,-7
1511884878886202,-71,26,4,1,18,5,4,-9
1511884878894233,-105,12,-1,-1,16,4,-19,-4
1511884878894233,-14,-86,-2,-3,42,2,-16,-7
1511884878909246,0,37,-4,-4,32,19,-16,-2
1511884878909246,33,79,-1,2,15,26,31,7
1511884878916395,37,108,6,6,11,1,37,12
1511884878916395,-32,61,3,5,-8,-9,33,3
1511884878923458,-18,-39,0,-2,-14,-8,13,1
1511884878923458,17,-57,0,-4,-19,-23,-3,2
1511884878931430,-28,-26,-4,-4,-15,-13,-11,-8
1511884878931430,-30,-18,-4,-3,-14,-12,-7,-3
1511884878945419,2,-16,-3,-5,-6,-14,-9,-2
1511884878945419,-17,-22,-5,-3,-45,-29,-19,-8
1511884878954536,-16,-24,-2,0,-80,-35,-17,-4
1511884878954536,-14,-2,-4,-3,-82,28,-10,-3
1511884878968612,1,-9,1,-1,-20,36,-10,0
1511884878968612,-40,-27,1,7,74,32,-6,-4
1511884878976634,-30,-11,3,3,126,20,-2,3
1511884878976634,39,14,-2,2,92,-25,-1,-2
1511884878983632,61,21,0,9,46,-3,11,-1
1511884878983632,74,-8,3,10,5,22,9,2
1511884878999673,31,-16,0,11,-47,8,9,-3
1511884878999673,-31,6,2,-1,-33,5,4,-2
1511884879005669,-13,0,1,-3,-15,2,3,0
1511884879005669,-14,1,-1,-6,0,0,4,0
1511884879020842,-7,-13,-3,-7,24,14,2,0
1511884879020842,-12,15,1,-6,35,-6,1,0
1511884879028733,-14,-6,2,-5,20,-19,5,1
1511884879028733,-2,-4,-3,-8,-12,-14,-2,1
1511884879036757,0,3,-1,-7,-7,-6,-4,1
1511884879036757,3,-3,0,-4,-16,-5,2,-2
1511884879043771,-11,-3,-3,-2,-24,-6,-1,2
1511884879043771,-5,2,-2,-1,-22,-6,-1,-5
1511884879059817,12,-2,1,0,-13,3,-1,0
1511884879059817,-3,0,-2,0,-9,1,1,-2
1511884879065871,-10,-4,0,-4,-5,0,-3,1
1511884879065871,3,8,0,-1,-5,-1,-4,-3
1511884879082033,5,-7,-1,0,-3,-1,-1,-3
1511884879082033,-6,-3,0,2,-1,5,-5,1
1511884879088121,-15,3,0,5,4,0,-6,-1
1511884879088121,4,-4,-3,3,0,0,-4,-4
1511884879097140,0,-4,-2,-3,0,2,-8,-1
1511884879097140,-4,3,-1,0,2,-1,-2,-1
1511884879103160,-1,-3,-1,-1,2,-2,-3,-1
1511884879103160,1,1,2,-2,1,-3,-4,1
1511884879120312,0,-1,-3,-1,0,1,0,2
1511884879120312,2,2,3,-1,1,-2,1,1
1511884879126306,3,1,0,1,-3,-3,4,4
1511884879126306,2,-1,-1,0,-6,0,3,2
1511884879142382,2,0,-1,-1,3,2,2,0
1511884879142382,6,1,0,0,0,-3,5,0
1511884879148372,0,0,1,-1,-4,1,3,0
1511884879148372,-2,-1,1,-2,-2,0,-2,1
1511884879157413,5,-7,1,-1,1,2,1,1
1511884879157413,-6,2,0,-2,2,2,-1,-3
1511884879163413,-6,0,-1,-2,0,-2,-4,-2
1511884879163413,-2,5,-2,-1,1,0,0,-1
1511884879179580,2,-7,-2,0,2,3,-3,1
1511884879179580,-6,-2,-3,-1,-1,2,-7,-1
1511884879185471,-3,4,-3,0,0,0,-7,-5
1511884879185471,3,-1,0,0,-2,-1,-1,0
1511884879202513,-2,-6,-1,2,-1,-1,-1,1
1511884879202513,2,0,0,-3,-1,2,-2,0
1511884879208533,6,-1,0,1,-3,-2,6,2
1511884879208533,2,-1,0,1,-3,-2,3,2
1511884879217558,2,4,0,-1,-1,-2,6,1
1511884879217558,4,-1,1,1,-1,-1,9,-9
1511884879223776,1,-3,1,1,-1,-2,7,-7
1511884879223776,-2,-1,-2,-1,1,-1,-1,4
1511884879239617,-1,7,0,-2,-2,-1,-1,-1
1511884879239617,-1,6,-3,-3,0,1,3,2
1511884879245632,-11,-2,-1,-2,-3,7,-8,6
1511884879245632,-5,-6,-1,0,-2,9,-9,-1
1511884879262695,-2,0,-3,0,1,2,-7,0
1511884879262695,-7,-3,-3,0,-1,0,-13,-1
1511884879268709,-6,-4,-2,-2,0,6,-10,-10
1511884879268709,-1,-4,-1,-2,4,-4,-12,-4
1511884879277715,-1,-2,-1,0,-1,1,-7,-7
1511884879277715,-3,-2,-1,0,-1,-5,-6,-5
1511884879283730,2,-1,1,1,2,-2,-3,-3
1511884879283730,3,1,1,0,1,-12,6,1
1511884879299775,1,-1,-1,0,-2,-5,4,-1
1511884879299775,1,-3,0,-1,1,-4,9,4
1511884879305817,4,-2,-3,0,-1,-4,13,1
1511884879305817,2,2,1,-1,-1,-2,9,1
1511884879322007,-1,5,1,0,0,1,3,-2
1511884879322007,4,2,-3,2,1,-3,5,3
1511884879327846,2,1,1,-2,1,-1,9,3
1511884879327846,0,-9,-1,0,-3,2,4,-3
1511884879337044,-1,-1,-3,-2,1,-5,5,1
1511884879337044,0,-6,1,0,2,5,3,1
1511884879343023,-1,-4,0,-1,9,3,-3,-2
1511884879343023,-3,-1,-3,0,3,5,-5,-2
1511884879360070,-4,-1,-1,-4,-5,3,-6,1
1511884879360070,-2,-2,-3,-2,0,-1,-5,-1
1511884879366213,-4,4,1,1,-11,-5,-10,-2
1511884879366213,-2,-1,0,1,1,-5,0,-6
1511884879382130,3,-7,3,1,-1,-2,3,1
1511884879382130,-1,-6,1,-1,-4,12,0,0
1511884879388282,-2,-11,-1,-1,2,0,-1,-1
1511884879388282,-2,5,-1,-1,0,6,-3,-3
1511884879397261,-4,12,-1,0,3,0,0,0
1511884879397261,-1,7,0,0,1,0,1,4
1511884879403318,4,6,0,0,0,-6,7,4
1511884879403318,0,9,-1,-2,0,-5,1,1
1511884879420323,-3,10,-1,-1,1,6,-6,-7
1511884879420323,0,1,-1,-1,-4,1,0,-1
1511884879425463,-3,0,-1,-3,-6,1,-3,-2
1511884879425463,-5,-7,-5,1,-4,-9,-5,1
1511884879442380,0,-11,1,0,-2,-13,1,-2
1511884879442380,-3,-5,1,1,-3,-9,-6,0
1511884879448398,-2,-4,-1,-3,-2,3,-9,-3
1511884879448398,-2,-9,-2,1,-1,3,-4,-3
1511884879457421,-2,-4,-3,-2,4,5,-7,-1
1511884879457421,0,6,-2,2,-1,3,-1,-3
1511884879463438,-1,4,-1,-1,1,2,-2,1
1511884879463438,-1,-5,2,-1,-1,7,0,1
1511884879487669,3,-27,-1,1,-1,4,1,1
1511884879487669,-1,5,-1,0,-2,1,-2,-1
1511884879488503,0,12,1,0,0,-1,3,0
1511884879488503,1,14,0,1,-2,0,9,1
1511884879502669,1,7,0,2,0,-1,3,-1
1511884879502669,-2,-1,-2,3,-3,-5,-3,-2
1511884879507707,0,1,-2,2,1,-3,-1,2
1511884879507707,2,-11,-1,0,-2,-2,0,0
1511884879517711,-2,0,0,-3,-1,-4,4,1
1511884879517711,3,-8,-1,-3,0,1,5,-2
1511884879530870,0,7,-1,-4,-2,0,6,-1
1511884879530870,-1,7,-1,-4,3,-2,-1,-1
1511884879545951,1,24,-2,-3,0,-3,-3,-2
1511884879545951,1,-22,1,-4,0,-1,-5,1
1511884879553186,-1,-32,-1,-1,-1,-4,-2,1
1511884879553186,2,-6,-1,-2,-3,1,-5,-3
1511884879562111,4,-9,3,0,-2,0,4,-1
1511884879562111,1,13,8,-2,-1,-3,-3,-2
1511884879568147,1,0,0,0,-1,-5,2,1
1511884879568147,-2,-26,-6,-1,0,1,-2,-3
1511884879577155,-2,7,-7,-2,-3,2,-9,-3
1511884879577155,-6,24,-7,-2,2,3,-8,-6
1511884879591187,-5,11,-1,0,1,0,-11,-7
1511884879591187,-2,14,1,0,-2,0,-7,-1
1511884879600189,1,-7,2,1,0,-1,3,-4
1511884879600189,3,-12,-2,1,-2,-3,7,8
1511884879613262,2,1,-2,0,-1,1,9,4
1511884879613262,0,3,-4,1,0,3,8,-2
1511884879622254,-2,-7,2,-1,-2,2,-3,-7
1511884879622254,-2,-4,0,-1,-1,-2,-6,-2
1511884879628264,1,-3,1,1,3,-1,-10,1
1511884879628264,-3,3,1,-3,-2,-1,-7,-2
1511884879637427,-1,-1,0,-3,0,0,-4,2
1511884879637427,1,1,1,-1,2,1,4,2
1511884879650738,-3,-2,-4,1,0,3,1,-1
1511884879650738,-2,2,3,-1,-1,-1,-1,-2
1511884879659877,2,-1,-1,2,-1,-3,4,2
1511884879659877,-3,-3,0,-1,-1,0,3,-1
1511884879673023,0,-4,-4,-1,-1,-1,0,-5
1511884879673023,-1,2,1,-1,0,2,2,-1
1511884879681940,-1,-1,-2,-2,1,-2,3,1
1511884879681940,-1,-2,1,-1,-1,-1,-3,-1
1511884879688086,-5,-3,-3,-2,-1,-1,-3,-1
1511884879688086,2,2,0,-1,-1,-3,3,0
1511884879697110,-1,0,-2,-1,-1,-2,-2,1
1511884879697110,-2,-3,-2,1,1,-1,-2,-1
1511884879711147,2,0,0,-2,-3,-2,-3,-1
1511884879711147,1,1,-2,0,-2,-5,5,3
1511884879720176,2,1,3,2,0,-3,5,-1
1511884879720176,-3,2,-2,-1,2,-1,-4,-2
1511884879733248,-5,2,0,-3,-1,1,-8,-3
1511884879733248,-4,-2,0,0,1,-2,-10,-1
1511884879742229,-5,-1,-3,-1,-1,1,-1,-1
1511884879742229,4,-4,0,-1,1,-3,0,-2
1511884879748245,-1,-3,2,-1,0,4,0,-2
1511884879748245,-1,2,-4,-5,-4,0,-3,-2
1511884879757271,-2,0,0,0,0,-3,-1,0
1511884879757271,0,-3,-1,0,-3,-2,-1,-3
1511884879770734,3,-1,3,1,-1,-2,2,1
1511884879770734,2,-1,0,2,-2,-2,3,3
1511884879779568,2,2,0,0,0,0,4,-2
1511884879779568,0,1,-2,1,-2,0,-1,0
1511884879793606,1,0,1,0,-1,-3,4,3
1511884879793606,-1,-1,1,0,2,-2,2,0
1511884879802668,-1,-1,-1,-2,-1,3,-6,0
1511884879802668,-2,-5,-2,-2,-2,-3,0,0
1511884879808764,-4,1,0,1,-1,0,-2,-3
1511884879808764,-2,-1,2,1,1,-1,-5,1
1511884879816884,-4,0,-2,-4,-3,1,-3,0
1511884879816884,-1,-1,-1,0,-1,-3,-1,-1
1511884879830919,1,-1,-2,-4,-1,-1,-2,0
1511884879830919,0,-3,-3,-1,0,3,-2,-1
1511884879845920,0,-1,1,2,-1,-2,0,-2
1511884879845920,1,1,1,1,0,5,3,2
1511884879852953,0,1,0,1,0,-1,2,-4
1511884879852953,-1,0,-2,3,0,0,1,-2
1511884879861974,3,-3,-1,0,0,-4,0,2
1511884879861974,1,-1,1,-1,0,-4,2,1
1511884879867977,2,2,-1,-4,-2,-1,0,1
1511884879867977,-1,-1,0,-2,-1,-1,2,-1
1511884879883142,-1,0,-1,0,-2,1,0,1
1511884879883142,0,2,0,-2,-3,3,0,-5
1511884879891147,-3,-4,0,1,1,-3,2,0
1511884879891147,1,2,-3,-2,-3,0,-4,-2
1511884879900062,-4,-1,-5,-3,-1,1,-6,-1
1511884879900062,-2,0,-3,-2,0,-3,0,2
1511884879913209,2,0,-1,-6,2,-1,1,-1
1511884879913209,-3,1,1,-3,1,1,0,-2
1511884879922118,-3,-2,2,3,1,-1,1,1
1511884879922118,2,-3,0,5,-2,-4,1,0
1511884879928137,-2,-1,-2,2,0,-1,3,2
1511884879928137,1,-1,0,1,-2,-2,-2,-1
1511884879937157,3,-2,1,-1,-3,0,0,1
1511884879937157,-1,1,0,0,-3,-3,3,0
1511884879951199,-2,-3,0,2,-2,2,-2,-1
1511884879951199,1,0,0,-3,-2,0,-1,0
1511884879960221,-3,-2,0,0,-3,0,6,0
1511884879960221,0,0,1,-2,-1,1,7,0
1511884879973450,0,1,-2,1,-1,-2,-6,-4
1511884879973450,1,-4,-1,0,0,-5,2,1
1511884879982278,3,0,-3,-2,2,0,-5,1
1511884879982278,0,-10,0,-4,1,-2,-3,0
1511884879988463,4,-1,0,-2,0,-3,3,-1
1511884879988463,0,0,1,-3,-2,1,4,0
1511884879997468,-5,2,0,-4,0,2,3,-2
1511884879997468,-3,2,-2,0,0,2,8,2
1511884880010765,-1,-1,-2,-2,0,-2,-2,6
1511884880010765,-4,-10,0,-4,-2,2,-9,-7
1511884880019664,-1,-2,2,1,-1,1,-5,-3
1511884880019664,-2,4,-2,3,-2,1,-4,-2
1511884880033705,-1,4,-2,3,-4,1,-4,-5
1511884880033705,-5,4,-3,-2,-2,-2,-5,3
1511884880041725,1,-3,-1,-3,-7,-3,-3,0
1511884880041725,-2,-3,0,-7,0,0,-9,-5
1511884880048744,-4,-4,-3,-2,-3,3,-3,-5
1511884880048744,1,4,-3,4,-3,0,-1,0
1511884880057783,-1,2,-2,5,3,-2,5,7
1511884880057783,2,5,2,5,-3,-5,-2,0
1511884880070846,1,0,-2,4,-1,0,-7,-2
1511884880070846,4,-4,-1,2,-8,-3,-2,-1
1511884880079824,0,0,-2,0,-7,-2,-9,-7
1511884880079824,-3,-1,-3,-3,-3,3,-15,-3
1511884880093064,-2,-15,2,-5,-4,-2,-3,5
1511884880093064,-1,11,2,-1,7,1,-1,-5
1511884880102048,-5,3,-1,-1,8,2,-5,-3
1511884880102048,-5,4,0,-2,19,3,-4,-1
1511884880108011,-2,1,2,1,17,0,3,-4
1511884880108011,-3,12,1,-3,12,1,-2,1
1511884880116988,1,-17,-2,0,3,-5,5,1
1511884880116988,2,-13,-1,-3,0,-4,11,6
1511884880131050,1,-6,0,0,-5,-1,5,0
1511884880131050,1,-4,0,-3,-7,-1,4,2
1511884880139985,2,7,2,-1,-4,2,4,-1
1511884880139985,0,4,-3,0,-9,-2,2,-2
1511884880153214,-3,1,-2,-3,-5,0,0,4
1511884880153214,0,0,-1,1,-1,-1,2,0
1511884880162042,0,-1,0,0,-1,-3,-2,-2
1511884880162042,2,-1,2,0,-6,-1,0,-1
1511884880177083,-2,6,-2,0,-4,-1,-2,1
1511884880177083,0,-5,-2,-1,-2,-3,-3,-2
1511884880179093,-1,-2,-1,-2,-3,-1,-3,0
1511884880179093,-2,2,0,-4,-3,1,0,-2
1511884880191329,0,5,0,-2,-2,0,1,-3
1511884880191329,-1,-5,1,0,-1,-1,5,-1
1511884880199434,-1,-1,0,0,-1,-2,-1,0
1511884880199434,1,1,-4,-1,-2,1,-2,-1
1511884880213524,3,-1,-1,-1,0,-3,2,0
1511884880213524,0,-3,-2,2,-1,0,1,-1
1511884880222548,0,0,3,-1,0,-2,-1,-1
1511884880222548,1,0,0,1,-3,-1,0,-1
1511884880237692,-2,-1,-2,-1,-2,1,-1,2
1511884880237692,-1,0,-2,-2,1,-3,-1,2
1511884880238589,1,3,1,1,-3,-3,0,-2
1511884880238589,0,-3,1,2,0,0,-1,-2
1511884880250624,-1,-1,0,2,-3,0,0,-4
1511884880250624,-4,1,-2,-1,-1,1,-4,-1
1511884880259644,-1,0,-4,-3,2,-1,4,1
1511884880259644,-2,-1,2,-2,-2,-1,-2,-3
1511884880273842,-1,1,-2,-1,1,1,-6,-1
1511884880273842,-2,-4,1,1,1,2,-8,-2
1511884880282742,-3,0,-1,-1,0,0,-3,-5
1511884880282742,-2,-1,-4,-2,1,2,-10,-1
1511884880296797,-2,-1,0,1,0,1,-2,-4
1511884880296797,0,-1,0,1,-1,1,-1,0
1511884880298799,1,0,0,1,1,1,-4,3
1511884880298799,-1,-2,1,2,0,0,-2,-1
1511884880310785,4,0,-2,-3,1,-1,3,0
1511884880310785,-1,-3,-2,-3,-3,3,0,-2
1511884880319893,-2,-1,-1,-3,0,2,-3,-2
1511884880319893,-1,0,-1,-1,1,-1,-1,0
1511884880332968,-1,-3,1,1,0,0,-2,0
1511884880332968,0,0,-1,2,-3,-2,1,0
1511884880341975,0,-1,-1,0,-1,1,0,-1
1511884880341975,1,-1,0,1,0,-3,2,2
1511884880356993,0,1,0,-1,0,1,2,-1
1511884880356993,1,-1,-1,-1,0,-2,1,1
1511884880358995,-1,0,-2,0,0,-1,2,2
1511884880358995,-1,1,-5,-1,-2,-3,3,-1
1511884880370299,0,-2,6,3,0,0,3,1
1511884880370299,0,-2,-9,-8,-4,-4,4,-1
1511884880380193,1,-2,2,0,0,-2,1,1
1511884880380193,-2,1,0,-3,-1,0,-2,0
1511884880393354,0,1,-4,-2,-2,-4,0,1
1511884880393354,0,0,2,1,3,4,-3,2
1511884880409315,-1,1,4,4,0,-2,-2,-4
1511884880409315,-6,-1,-5,-6,-4,0,-5,-2
1511884880417296,-2,3,-1,-9,-6,0,-4,-2
1511884880417296,2,0,3,-4,-1,-3,-1,0
1511884880418294,0,-1,-4,0,-1,-2,3,-2
1511884880418294,3,0,7,9,6,-1,4,2
1511884880431329,0,-3,-3,5,-1,0,-1,1
1511884880431329,-1,-2,0,1,-1,1,-5,-1
1511884880439532,-3,1,-2,1,-4,1,-3,1
1511884880439532,1,-2,-4,2,-1,1,-2,-4
1511884880453686,0,0,-3,0,-1,-2,-2,-2
1511884880453686,-1,0,-2,0,-2,-3,0,-2
1511884880469617,1,0,1,2,-2,-2,2,-1
1511884880469617,-1,-1,-4,-4,0,1,1,0
1511884880477633,0,1,-3,-3,2,-2,-1,-1
1511884880477633,0,-2,4,-1,1,-3,1,-2
1511884880478636,-2,-2,-3,-4,-1,0,0,0
1511884880478636,-1,0,1,-4,-4,-1,1,-1
1511884880490981,0,-3,0,-2,2,-4,0,1
1511884880490981,1,1,-1,1,1,0,-1,1
1511884880499960,1,-1,-3,-1,0,-4,-1,1
1511884880499960,-1,1,0,0,-2,-3,2,-3
1511884880512997,1,-2,1,2,-1,-2,2,-2
1511884880512997,-1,-2,-2,1,1,-2,3,-2
1511884880522019,4,-3,-4,-1,-3,-2,12,1
1511884880522019,3,2,1,1,1,-1,7,3
1511884880537061,-1,2,1,0,2,0,4,0
1511884880537061,-6,2,2,-3,-1,1,0,-3
1511884880539063,-5,-6,-13,-12,-5,2,-4,-2
1511884880539063,-1,-1,0,-5,-3,-2,0,-1
1511884880551308,-1,-1,1,1,-2,0,1,0
1511884880551308,0,-2,-1,2,0,1,1,-1
1511884880559521,0,2,5,2,0,3,-1,0
1511884880559521,1,-2,-2,-5,-1,0,6,-1
1511884880573551,0,0,-2,-2,0,1,1,0
1511884880573551,1,0,0,1,1,1,-2,3
1511884880582413,-3,0,-1,0,-1,-1,-8,-4
1511884880582413,-3,0,-1,-2,-2,3,-7,2
1511884880597454,-3,-1,0,-1,-3,0,-7,-3
1511884880597454,-4,-2,-3,-1,-1,-1,-9,-3
1511884880598454,-6,0,-1,-2,-2,0,-14,-2
1511884880598454,0,-1,-1,0,-1,1,-10,-5
1511884880610515,-4,0,-1,-2,-2,2,-5,-1
1511884880610515,-1,0,-2,-1,-2,0,-8,2
1511884880627556,-1,-2,0,2,2,-1,-4,-2
1511884880627556,1,0,1,2,0,1,-5,1
1511884880633691,-2,-1,0,1,-2,6,-8,0
1511884880633691,1,-3,0,-2,-1,2,-3,0
1511884880642779,-2,3,1,-2,0,-2,0,2
1511884880642779,-1,2,0,0,-2,2,-5,-1
1511884880656840,-2,-2,-3,-1,2,2,-4,-2
1511884880656840,2,-3,0,1,-1,-2,0,-1
1511884880658839,2,0,1,2,1,-1,-1,-1
1511884880658839,-1,-4,-1,1,-2,-1,-4,-1
1511884880670867,1,0,1,-2,-1,-2,1,-2
1511884880670867,3,-1,0,-1,-1,-5,2,1
1511884880680005,1,-2,0,0,2,1,-1,-1
1511884880680005,0,0,-3,2,3,-1,1,2
1511884880693028,1,3,0,2,-2,-4,8,2
1511884880693028,1,0,0,1,-1,-1,3,-2
1511884880702073,4,-1,1,0,-3,-2,4,-1
1511884880702073,0,0,0,2,0,-1,6,0
1511884880717094,2,-1,-1,-2,0,0,3,1
1511884880717094,-4,0,-2,0,-2,-2,1,0
1511884880719100,4,-1,-1,-4,-2,0,5,-2
1511884880719100,0,-2,3,-2,-1,0,7,2
1511884880731132,0,0,-4,0,2,-2,3,0
1511884880731132,-1,0,-1,-3,-1,3,4,-3
1511884880739577,0,0,-1,0,1,-3,1,2
1511884880739577,-2,1,-1,-4,1,1,-1,0
1511884880753542,-2,2,-1,-2,0,-4,0,3
1511884880753542,-4,-1,1,1,-1,-2,4,-1
1511884880769474,0,1,1,0,-3,3,0,1
1511884880769474,-3,-1,-1,0,-1,-2,-3,-5
1511884880777570,0,0,-1,-2,-2,0,-1,-1
1511884880777570,-1,3,-1,-1,-2,2,1,-4
1511884880778496,-1,-2,-1,-1,0,-3,-1,0
1511884880778496,-1,-2,1,0,0,-3,1,0
1511884880790766,0,-1,1,0,-2,-1,0,-5
1511884880790766,0,-1,-3,0,0,0,-2,-3
1511884880799676,-3,2,-1,-3,0,-1,-4,-1
1511884880799676,3,-2,0,0,-2,0,0,2
1511884880813788,-1,0,1,-1,0,-3,1,-1
1511884880813788,-1,-3,1,-1,-1,0,0,0
1511884880822761,-2,-2,0,3,-1,-3,5,-1
1511884880822761,1,-4,-2,-2,1,-2,3,-2
1511884880837780,0,1,-2,-1,0,3,-5,-3
1511884880837780,2,0,0,0,-1,-4,-2,0
1511884880838783,2,-1,2,-1,-2,1,3,-1
1511884880838783,-3,1,-2,-2,-1,-1,-1,1
1511884880859862,-1,-2,-3,-2,0,-1,3,-1
1511884880859862,0,1,0,-1,-2,0,3,4
1511884880860842,0,-4,2,-2,-2,0,-1,-3
1511884880860842,0,1,2,-3,-2,0,-5,-1
1511884880872871,-3,-1,0,0,-1,1,-1,-2
1511884880872871,-2,3,-3,-1,0,0,1,2
1511884880881919,-1,2,-1,1,-1,0,-3,-1
1511884880881919,-1,1,-2,1,-2,-1,1,-1
1511884880895955,4,-1,0,0,-1,-2,-2,1
1511884880895955,-2,-3,-1,-1,-1,2,-3,-2
1511884880902977,-1,1,0,-1,3,1,-2,0
1511884880902977,1,0,-4,0,-1,-3,-1,-1
1511884880910999,-3,-2,-1,1,-2,2,-1,-1
1511884880910999,0,2,1,0,-1,3,0,0
1511884880920019,-1,-3,-1,-1,0,-1,1,-1
1511884880920019,-2,-2,-2,1,-3,-2,-3,1
1511884880933054,-5,-2,1,-1,1,-3,-2,1
1511884880933054,1,-1,1,2,-2,0,-1,-3
1511884880942054,-1,0,-1,-1,-1,0,-1,1
1511884880942054,-1,1,1,-3,1,-1,-5,-3
1511884880956118,-4,-2,0,-1,1,0,-8,0
1511884880956118,3,-3,-2,-4,-2,1,0,1
1511884880963135,2,-2,0,0,-1,-1,-1,1
1511884880963135,-1,-2,1,1,0,1,2,-1
1511884880971132,4,1,0,4,-1,1,3,2
1511884880971132,0,0,-4,-2,0,-5,4,-1
1511884880980188,-3,2,0,0,-1,0,-3,0
1511884880980188,3,1,-1,0,-2,2,1,1
1511884880993190,4,-1,-2,0,-3,-5,1,1
1511884880993190,-2,-1,1,-3,1,-1,-4,-1
1511884881002215,0,-2,1,-1,0,-4,-4,-3
1511884881002215,2,1,0,0,0,1,1,-1
1511884881016279,-1,-1,0,1,1,1,-3,-4
1511884881016279,-2,-1,-1,2,0,-1,-2,-1
1511884881023294,1,-1,0,-1,-1,2,2,-3
1511884881023294,-1,-3,-3,0,-1,1,-1,-2
1511884881030289,-4,0,0,-3,-2,1,-2,-1
1511884881030289,1,0,0,0,-1,-3,-1,0
1511884881039336,-1,-1,0,-1,-1,-2,2,0
1511884881039336,-2,1,0,-1,-4,2,-2,-3
1511884881053379,-3,-7,0,-1,-2,0,-2,-1
1511884881053379,-1,0,-1,2,-1,-1,-4,0
1511884881062400,0,0,-2,1,1,2,-1,0
1511884881062400,-2,-1,0,-1,0,-2,-2,0
1511884881076441,1,2,0,1,-2,-2,0,0
1511884881076441,0,0,1,-3,-1,-2,-1,1
1511884881083458,-1,0,0,0,1,-3,-1,1
1511884881083458,0,-4,-1,-3,-2,-1,3,-1
1511884881099497,2,-1,2,-2,-1,-1,-1,-2
1511884881099497,-2,-2,0,-3,-4,1,-3,-2
1511884881101502,-1,0,-3,-2,1,-1,-3,-1
1511884881101502,3,-3,-3,1,1,-3,2,-1
1511884881113534,-2,0,-3,-2,-3,-3,-1,-3
1511884881113534,-2,0,1,2,2,-2,-2,-2
1511884881122534,-2,1,-3,-1,-2,0,-3,-3
1511884881122534,0,-4,-1,1,1,-1,-2,1
1511884881144593,1,2,-3,-1,3,1,-1,1
1511884881144593,0,1,-1,0,1,-2,3,-3
1511884881146598,1,-4,-1,0,-2,1,0,2
1511884881146598,-3,-1,-1,-4,1,0,-4,0
1511884881159633,-2,3,-1,-1,-1,0,-3,-2
1511884881159633,0,-2,1,1,1,-1,2,0
1511884881161638,-4,0,-2,-1,0,-2,-3,-4
1511884881161638,0,-1,1,0,-1,1,-2,0
1511884881173671,1,-3,0,1,-3,-1,1,-1
1511884881173671,0,-3,-2,-2,0,1,-2,-1
1511884881181691,1,-1,1,1,-3,3,2,-3
1511884881181691,-1,2,-2,1,1,-3,-2,1
1511884881196735,-1,0,-3,-2,0,-3,1,0
1511884881196735,0,-1,1,-3,-1,-1,-4,-4
1511884881202774,1,0,-2,-2,0,0,1,-1
1511884881202774,1,-4,0,-2,-4,-3,2,1
1511884881219804,0,-3,0,-1,0,0,-2,-2
1511884881219804,0,-2,-5,0,0,-1,0,4
1511884881220796,0,1,-2,0,0,-3,4,1
1511884881220796,-1,2,0,-2,-3,-1,2,-1
1511884881232827,-1,0,1,0,0,-1,0,-4
1511884881232827,-1,0,2,0,-1,2,-1,-1
1511884881241852,-4,0,-3,1,-1,0,-2,1
1511884881241852,2,-9,-2,1,-2,-1,0,0
1511884881255891,-2,-1,1,-1,1,2,0,0
1511884881255891,-2,3,-1,2,0,1,0,-2
1511884881262912,1,2,2,-1,0,-1,-1,2
1511884881262912,-3,1,0,-4,-1,-2,-3,-3
1511884881279978,0,-3,-1,-3,-2,0,0,2
1511884881279978,0,-2,0,-2,-2,0,0,-1
1511884881280960,-2,-1,0,-2,-2,1,1,-3
1511884881280960,1,3,-2,-1,0,-2,5,1
1511884881293010,-1,-2,-1,-1,-1,-2,-2,-1
1511884881293010,0,-2,0,-1,0,1,-4,-2
1511884881302046,-1,-4,1,-2,-3,1,0,6
1511884881302046,-2,2,0,2,1,0,4,-3
1511884881316052,-2,-3,-1,2,0,0,2,-2
1511884881316052,2,1,1,1,-2,-3,-1,1
1511884881323200,-2,0,0,0,-1,-3,-4,-1
1511884881323200,0,1,-1,0,3,-2,3,1
1511884881340136,1,2,0,0,0,-4,1,-1
1511884881340136,0,-3,0,-1,-1,-2,4,-1
1511884881341115,-1,-2,-3,-3,0,-3,-2,-1
1511884881341115,-1,2,-1,-1,2,-1,-4,1
1511884881353346,0,-1,-1,-1,-2,0,0,0
1511884881353346,1,-3,0,-1,-3,-3,3,-2
1511884881370253,1,0,-1,0,-1,-1,5,1
1511884881370253,-2,1,-1,-1,-1,0,0,0
1511884881376208,-1,0,-1,-2,-1,2,-2,-1
1511884881376208,-6,0,-2,-1,2,1,-5,-1
1511884881383231,-3,-1,-1,0,-2,0,-2,-4
1511884881383231,0,-4,1,-2,2,-2,-1,-2
1511884881399273,1,1,-2,-1,-1,1,1,2
1511884881399273,2,-1,-1,-1,1,-2,3,0
1511884881401275,1,-4,-1,1,-1,-1,6,-2
1511884881401275,-2,-1,2,1,-2,1,0,-1
1511884881422430,0,-1,0,-2,-2,-3,-4,2
1511884881422430,-3,-1,-3,-1,0,3,-4,-2
1511884881423416,0,2,0,2,-1,3,-10,-1
1511884881423416,-3,0,-1,-1,-2,-1,-2,-1
1511884881436368,-1,0,-1,3,2,-1,-2,-4
1511884881436368,1,-1,-1,0,-1,-1,-4,-1
1511884881443387,1,-4,0,-1,0,0,0,-2
1511884881443387,2,-1,1,-1,-1,2,0,3
1511884881459429,1,0,-2,1,-1,-1,0,1
1511884881459429,0,0,1,-1,-1,0,3,0
1511884881461439,1,-1,0,1,0,-1,4,0
1511884881461439,5,1,1,0,-1,0,-1,-2
1511884881473653,-2,-3,-1,-1,1,-5,7,2
1511884881473653,0,2,-2,0,-1,-1,2,2
1511884881482492,-1,0,-2,-3,0,-2,-4,0
1511884881482492,0,0,0,-3,-4,2,-3,-1
1511884881496532,-2,-1,-1,-2,0,1,2,-3
1511884881496532,-3,1,-1,1,2,-1,-8,-4
1511884881503810,-1,1,0,-3,-1,-2,-2,0
1511884881503810,0,0,-3,1,0,-1,-3,-4
1511884881519731,-2,0,0,-1,-3,-1,-2,0
1511884881519731,-2,-3,-2,-3,1,2,1,2
1511884881520739,0,-4,1,0,0,-1,-1,1
1511884881520739,0,-1,-3,1,0,1,-4,-3
1511884881533770,3,-1,-3,1,0,3,-3,0
1511884881533770,-1,-1,1,-1,-1,-2,-1,0
1511884881541833,-2,-2,-2,-4,-3,-3,-1,-2
1511884881541833,-1,0,1,-2,1,0,0,1
1511884881556871,0,0,-3,-1,2,-3,-1,-2
1511884881556871,-2,-2,-3,1,-2,-2,-1,0
1511884881562887,3,0,0,1,-1,3,-1,-3
1511884881562887,2,0,-2,1,-2,0,2,2
1511884881578889,-1,-2,1,1,-2,0,3,1
1511884881578889,1,1,-1,-2,-3,-2,3,-2
1511884881585926,-2,-1,-1,-3,2,-2,-1,0
1511884881585926,1,-1,0,-2,-1,0,1,-1
1511884881593050,1,2,-1,-2,0,0,-2,-1
1511884881593050,1,-2,0,-1,-3,-1,-1,0
1511884881601967,0,3,2,-2,1,1,3,-1
1511884881601967,2,-2,0,-1,1,-2,2,3
1511884881616142,0,-2,1,-3,0,-2,6,2
1511884881616142,3,3,-1,0,-1,-1,1,2
1511884881623262,1,0,-2,0,0,-3,2,-5
1511884881623262,-2,-2,-4,-2,-2,0,2,0
1511884881639204,0,0,1,-3,-1,-5,-1,2
1511884881639204,-4,-4,1,-2,-1,0,-1,-1
1511884881641208,0,1,-3,-1,0,2,2,2
1511884881641208,-3,-1,0,0,0,-1,-3,-2
1511884881653425,-4,1,0,-1,-2,1,-6,-1
1511884881653425,-5,-1,1,1,0,2,-4,0
1511884881662265,-2,-2,-1,0,-1,2,-8,-3
1511884881662265,-4,-2,-2,-3,1,0,-9,-3
1511884881676303,-3,-4,-1,0,0,1,-8,-6
1511884881676303,-3,-1,-1,-1,1,3,-7,-3
1511884881684327,0,0,-1,-1,-3,3,-5,-4
1511884881684327,-3,2,-1,0,-1,-1,-1,3
1511884881699676,1,-1,-2,6,-1,-1,1,3
1511884881699676,4,2,0,5,0,-3,3,0
1511884881701511,-1,0,-2,1,-2,2,-3,-2
1511884881701511,0,-3,1,0,-2,-3,3,-2
1511884881713545,3,-1,-1,-3,-1,2,-2,-4
1511884881713545,0,-3,-1,-1,-1,0,3,0
1511884881722567,2,-1,-2,1,-4,-5,4,4
1511884881722567,-1,1,0,0,-2,-1,-5,-3
1511884881736607,-2,-1,1,-3,0,3,0,0
1511884881736607,-1,-2,-1,-3,1,0,-4,-6
1511884881743622,0,0,0,0,1,-1,-3,-1
1511884881743622,-3,0,0,-2,-2,-2,0,4
1511884881759789,-1,0,-1,-1,-1,-2,0,1
1511884881759789,2,3,-2,-2,0,2,-5,0
1511884881761672,-5,-2,-1,-5,-1,1,-5,-2
1511884881761672,-1,-1,-3,0,1,-1,-2,-3
1511884881773703,-4,-1,0,0,-3,2,-4,-4
1511884881773703,-3,-2,-1,-3,0,-1,-4,0
1511884881782726,-3,-1,2,3,-2,2,-6,-2
1511884881782726,-4,-4,1,3,3,4,-15,-4
1511884881796767,4,2,-2,-4,-4,-2,-2,4
1511884881796767,1,-3,-4,-4,-5,-1,0,7
1511884881803787,-2,0,-4,2,0,0,0,1
1511884881803787,1,0,0,0,1,-1,0,0
1511884881826893,1,1,-1,3,2,2,-1,0
1511884881826893,2,-2,-1,0,-1,-2,-2,-1
1511884881828850,-1,1,2,-1,-1,-4,0,-1
1511884881828850,-1,1,-2,0,-4,-4,5,2
1511884881833869,1,-4,-2,0,-1,-4,5,-2
1511884881833869,1,1,1,-1,-2,1,4,-2
1511884881841966,-1,-1,1,-1,-1,-2,0,0
1511884881841966,1,-1,-2,2,-1,1,5,-3
1511884881856952,-1,-2,-1,1,-1,-3,1,1
1511884881856952,-3,1,-1,3,0,1,1,-3
1511884881862940,0,-2,-2,-2,-1,2,0,1
1511884881862940,1,1,-2,-4,-4,2,3,2
1511884881878986,-2,-3,-3,-5,-2,4,0,-1
1511884881878986,-2,-3,0,-3,0,2,1,-1
1511884881886046,1,0,0,1,0,-1,1,1
1511884881886046,0,-1,-2,-1,-1,-1,-3,0
1511884881893020,0,1,1,4,0,1,2,-3
1511884881893020,1,0,-1,1,-2,-2,1,0
1511884881902048,2,-4,-2,-2,2,-1,3,-3
1511884881902048,2,2,0,-2,0,-1,5,3
1511884881916123,2,-2,1,-1,0,-3,3,0
1511884881916123,-1,1,-2,1,0,0,1,-1
1511884881925195,-2,-1,-3,1,-2,0,2,0
1511884881925195,4,0,-3,-1,-2,0,5,0
1511884881939235,-1,1,0,-1,1,-2,1,1
1511884881939235,-1,-3,3,1,-1,-3,0,1
1511884881946283,-2,-1,-3,-2,2,-3,1,-3
1511884881946283,1,1,2,1,0,1,-2,1
1511884881953310,1,2,-1,-4,0,0,0,0
1511884881953310,0,-1,9,15,2,0,-2,-2
1511884881962330,-2,-3,-10,-16,-6,-2,1,1
1511884881962330,-1,-2,-7,-14,0,-4,-5,-5
1511884881975331,-3,1,-3,-1,2,-3,0,-1
1511884881975331,5,2,2,-8,-5,-4,2,-1
1511884881984354,0,-2,8,13,5,0,7,1
1511884881984354,3,-1,3,3,3,-2,2,2
1511884881999394,0,-3,-2,-6,-3,3,0,-2
1511884881999394,-3,1,-2,-3,-2,0,-5,-1
1511884882005673,-2,2,0,2,4,-1,-5,-2
1511884882005673,-4,0,0,0,-5,0,-3,0
1511884882013759,-3,-4,0,3,3,-1,-3,0
1511884882013759,0,0,-3,-2,0,-2,1,-1
1511884882021828,3,-4,1,3,3,-1,-4,0
1511884882021828,-1,1,3,1,-6,-3,-3,-1
1511884882035944,-2,-1,-5,-17,-12,-2,0,-3
1511884882035944,-2,-1,-4,-3,-3,-1,2,0
1511884882044842,0,1,-2,-4,2,0,-1,-1
1511884882044842,-2,-4,3,10,5,1,-3,-3
1511884882066942,0,-2,4,13,5,3,-3,1
1511884882066942,-4,-7,-10,-10,0,2,-1,-2
1511884882068906,1,0,3,-1,3,-4,-4,1
1511884882068906,-6,-1,-8,3,-2,2,-2,-3
1511884882081985,-3,-3,-6,-11,0,0,0,0
1511884882081985,-2,-1,-6,-9,1,-2,3,-2
1511884882083947,0,0,8,8,-4,0,-3,0
1511884882083947,3,-1,2,-2,-1,-2,-1,-1
1511884882095982,0,2,5,13,5,-2,-3,1
1511884882095982,0,0,-4,6,0,8,0,1
1511884882105001,0,1,-9,-18,-12,28,4,1
1511884882105001,0,0,5,9,4,-12,1,-2
1511884882119161,4,2,-5,-4,-3,-11,5,0
1511884882119161,1,-1,1,2,8,-21,7,1
1511884882133256,1,0,2,1,-2,-18,7,3
1511884882133256,2,-1,4,5,-6,7,0,-1
1511884882142453,-3,2,5,14,9,3,-7,-4
1511884882142453,-7,-2,-8,-13,-6,6,-12,-7
1511884882143451,-6,1,-2,-2,-2,9,-10,-7
1511884882143451,-5,-5,-8,-11,-1,9,-9,-1
1511884882155409,0,-1,3,-7,1,9,-7,1
1511884882155409,-4,2,5,8,-1,4,-9,-4
1511884882172359,7,-4,-4,-11,0,3,-3,5
1511884882172359,3,-11,4,8,6,-1,2,2
1511884882179379,0,-32,-12,-4,0,16,2,1
1511884882179379,1,-38,16,13,-9,-7,1,4
1511884882185394,4,-4,-5,-5,11,-27,9,8
1511884882185394,5,-14,4,2,8,-14,6,5
1511884882202701,5,26,4,-9,-9,-19,9,9
1511884882202701,-10,32,4,16,7,1,-1,-12
1511884882203668,1,40,5,4,-25,-8,5,2
1511884882203668,-2,45,-11,-15,-9,12,3,-8
1511884882215703,11,22,0,5,-8,27,-3,1
1511884882215703,5,-6,-1,-17,9,5,-1,2
1511884882224723,-3,13,-1,12,-2,17,-5,-3
1511884882224723,-1,4,-6,-1,5,-13,-8,10
1511884882239957,-9,-52,1,-14,-33,-25,6,-4
1511884882239957,9,4,-8,12,-12,-26,42,2
1511884882245922,-6,-22,-18,-2,-2,-25,1,-11
1511884882245922,-4,-20,1,2,-4,2,2,-4
1511884882262096,1,21,1,4,41,-2,-11,7
1511884882262096,6,-35,5,3,24,23,-26,3
1511884882264102,1,19,8,-4,-16,6,-16,-3
1511884882264102,-2,-24,3,1,-12,-48,10,-4
1511884882276253,-6,3,2,2,4,-99,-10,-4
1511884882276253,-6,39,-9,-27,19,-18,38,-5
1511884882291258,7,-12,4,11,31,35,23,6
1511884882291258,0,54,-2,-4,20,59,34,0
1511884882299195,-3,-35,-10,-11,5,83,26,6
1511884882299195,10,39,3,0,17,38,-2,4
1511884882305237,12,-30,-4,3,26,36,-17,-4
1511884882305237,42,28,5,5,11,24,7,3
1511884882322450,11,19,-4,0,-32,17,-21,-7
1511884882322450,-15,-54,-6,-8,-41,-5,-35,1
1511884882323438,-18,-42,6,5,-44,-14,-14,-7
1511884882323438,-12,-38,7,3,-43,-21,-30,-3
1511884882335291,25,21,-11,-4,-11,-27,-8,-2
1511884882335291,7,37,-10,-11,-26,-11,-11,-4
1511884882344316,-16,35,17,13,5,-26,-18,-3
1511884882344316,-34,-11,-4,-7,-1,-20,4,10
1511884882359530,1,-16,-16,-20,10,15,-8,-10
1511884882359530,25,-23,0,-8,-3,-12,-1,-1
1511884882365368,3,-16,-1,-1,20,-8,-20,-1
1511884882365368,-12,-26,4,4,57,4,-13,-3
1511884882382416,9,-13,9,16,116,5,23,-7
1511884882382416,-32,-13,-4,2,20,-6,34,0
1511884882383430,-16,4,-7,-6,-14,-6,29,-80
1511884882383430,-9,4,-3,0,-64,11,8,9
1511884882395624,-11,1,0,0,-62,8,50,36
1511884882395624,7,13,3,18,-36,-3,14,45
1511884882404471,-3,10,-6,-4,-35,-15,7,46
1511884882404471,-19,8,-12,-12,-47,4,-23,-12
1511884882419549,-22,30,3,-4,-37,-1,-38,-75
1511884882419549,-4,15,6,-1,1,-1,-16,-21
1511884882425627,-61,-19,2,-9,-8,-5,-16,15
1511884882425627,-48,-26,-3,1,24,-15,-71,-27
1511884882442630,9,7,4,10,6,12,-128,29
1511884882442630,61,34,9,5,26,34,90,-24
1511884882443577,114,35,12,3,83,-19,109,0
1511884882443577,100,5,8,5,127,-60,56,0
1511884882455777,38,-29,13,16,35,-25,-7,-1
1511884882455777,16,-66,-14,0,-32,-24,-69,62
1511884882464862,91,-59,-15,9,-88,55,-62,72
1511884882464862,-94,-39,-11,-5,-98,39,-7,58
1511884882479028,-115,-16,-19,-4,-57,17,14,26
1511884882479028,-125,16,-3,-7,-60,-16,-30,-7
1511884882486087,-107,18,-8,-13,-29,-6,21,-15
1511884882486087,-35,26,9,-2,-28,10,-21,-17
1511884882502085,-35,18,19,0,-25,13,22,-25
1511884882502085,-44,14,8,-2,2,10,-4,-24
1511884882504095,-7,13,0,-7,37,-16,1,-33
1511884882504095,-22,-8,-5,-8,47,3,60,-23
1511884882516122,-12,-32,2,-3,60,-5,104,8
1511884882516122,39,-27,-3,4,65,7,60,13
1511884882525146,39,-8,-2,-6,35,-6,3,-49
1511884882525146,86,19,-2,0,16,7,-56,-84
1511884882539414,63,17,-14,-1,-12,-6,-53,-119
1511884882539414,52,13,3,-1,1,-5,-73,-60
1511884882545360,103,10,0,-2,-5,6,-25,23
1511884882545360,70,11,0,3,-11,2,-4,-9
1511884882561496,80,7,2,1,-15,-4,-10,69
1511884882561496,16,-3,-6,-5,1,0,3,76
1511884882569429,11,4,-2,0,-6,-4,6,106
1511884882569429,-30,-2,-5,-12,-23,-7,-34,127
1511884882575535,-107,6,6,11,2,-4,-20,69
1511884882575535,-108,1,0,-7,2,0,-33,54
1511884882584460,-122,-7,-3,-7,-3,-5,-46,8
1511884882584460,-10,-2,0,6,-2,-4,-3,-20
1511884882598688,124,16,-3,-3,-9,-9,25,-33
1511884882598688,124,-1,-1,4,7,7,44,-44
1511884882607523,127,-1,2,1,2,-13,23,-48
1511884882607523,86,-17,-5,-2,-2,3,52,7
1511884882622561,22,-10,-1,-5,1,-9,89,30
1511884882622561,-5,3,0,0,1,-3,44,13
1511884882623564,-99,-3,-1,-1,-1,0,-7,-6
1511884882623564,-38,1,0,-3,-1,-2,-71,-39
1511884882635682,-34,1,0,0,-4,-3,-95,-19
1511884882635682,1,3,6,-3,-2,-5,-95,-33
1511884882644621,0,-1,-14,-4,-1,9,-36,-13
1511884882644621,-12,0,-2,-1,1,3,14,5
1511884882658849,-4,-2,2,1,0,1,33,-4
1511884882658849,-3,-1,7,0,-4,1,20,-12
1511884882665713,-18,6,10,2,4,4,17,-12
1511884882665713,-1,-1,3,1,0,1,32,-13
1511884882681853,1,1,8,0,-3,-2,3,-15
1511884882681853,32,-3,6,3,-1,2,-12,-40
1511884882683820,-40,18,1,3,0,0,-13,-87
1511884882683820,104,6,-8,-4,-2,0,-1,-24
1511884882695848,106,25,1,1,-1,6,-36,6
1511884882695848,-93,95,-4,-1,-3,5,-74,-33
1511884882710890,-32,117,2,1,-4,3,-48,-81
1511884882710890,60,14,6,8,1,-3,-119,-84
1511884882726931,84,-96,-14,4,2,-9,-73,-118
1511884882726931,127,-128,-6,7,1,-11,104,103
1511884882728939,127,38,9,1,7,-6,113,96
1511884882728939,41,127,-1,1,1,-6,127,127
1511884882741973,55,100,-4,2,5,-4,98,127
1511884882741973,31,28,-34,-8,-2,-3,11,11
1511884882743979,-1,-34,-15,0,-6,-7,-4,118
1511884882743979,-32,-41,-15,2,4,-4,-9,101
1511884882756202,-14,-5,1,-12,-2,2,-24,42
1511884882756202,-33,-12,2,1,-1,-5,50,-20
1511884882765031,-4,-23,26,11,13,3,-36,-87
1511884882765031,-12,-39,-22,-11,-9,9,-49,-89
1511884882779214,-50,-5,12,2,-12,-9,-106,-104
1511884882779214,-13,9,23,-11,2,0,-128,-73
1511884882810336,-3,-24,18,-6,9,-5,-98,-24
1511884882810336,-37,-9,3,-16,-16,1,21,-48
1511884882811300,-54,0,3,-5,-1,-8,68,3
1511884882811300,0,26,2,15,-10,-35,31,15
1511884882812300,-1,9,-2,-1,8,-26,68,22
1511884882812300,-22,-4,-17,2,-10,-4,2,-6
1511884882815309,-33,6,-23,-25,-4,-1,38,14
1511884882815309,22,20,14,-24,-29,21,29,23
1511884882832384,-6,-8,-15,21,11,8,-10,14
1511884882832384,-16,14,2,12,11,11,37,15
1511884882839372,-18,16,-3,0,-21,15,2,-13
1511884882839372,-19,-10,-5,-16,-23,8,-25,-24
1511884882845526,-22,-31,-8,-34,-8,22,-26,-12
1511884882845526,-4,-4,14,5,9,-7,-17,-15
1511884882853411,-29,1,12,25,28,-5,-15,-9
1511884882853411,11,13,5,11,20,-18,9,-5
1511884882868661,83,-7,-6,0,-8,44,12,7
1511884882868661,101,19,6,-2,22,18,-12,-1
1511884882875470,60,5,-11,3,24,8,-10,1
1511884882875470,8,-6,-35,-9,50,-9,-16,0
1511884882884506,-45,-13,-22,-2,42,-24,13,1
1511884882884506,-55,-38,-3,-7,25,15,-8,2
1511884882898637,-26,-28,-4,-10,8,-3,14,4
1511884882898637,-2,6,-6,12,40,13,-3,0
1511884882905647,-13,-7,-4,3,10,-44,29,-5
1511884882905647,-27,17,4,-3,-61,-53,51,-4
1511884882912789,-42,22,9,4,-99,-25,18,-5
1511884882912789,-2,7,10,1,-128,17,121,10
1511884882927826,4,4,14,-5,-116,1,121,-9
1511884882927826,-21,1,22,-2,-46,-16,68,-17
1511884882935892,-34,-7,19,-3,6,28,-67,14
1511884882935892,6,0,0,8,34,6,-123,6
1511884882944872,-16,-19,-18,3,41,31,-114,31
1511884882944872,-48,-11,-22,4,-32,-22,-40,7
1511884882958912,-54,0,-15,-6,-101,12,23,-101
1511884882958912,-24,1,6,4,-88,24,-110,44
1511884882965931,69,8,3,0,68,27,11,-121
1511884882965931,127,10,5,6,127,1,-43,-60
1511884882973133,127,31,3,7,127,-3,-88,-23
1511884882973133,26,-2,2,3,62,-36,-23,73
1511884882987986,-35,14,5,-2,-14,-32,-70,127
1511884882987986,-53,-17,-6,-2,-24,17,-37,127
1511884882996011,-57,-11,3,-2,-41,11,2,67
1511884882996011,-58,-15,-6,-5,-16,18,-17,-7
1511884883005045,-35,-5,3,-3,-39,6,-35,26
1511884883005045,-33,-16,4,-4,-11,14,4,-24
1511884883019113,15,3,0,-5,-11,-12,-45,2
1511884883019113,12,3,-1,-1,12,-5,-79,-45
1511884883035114,-6,3,-4,-2,-10,-5,-17,-32
1511884883035114,5,4,11,0,-18,-2,-14,-28
1511884883035114,8,-17,-3,1,9,-6,57,9
1511884883035114,6,-3,3,0,14,-6,104,-25
1511884883048150,4,1,0,4,-10,-9,39,-28
1511884883048150,-1,8,-1,-3,-7,5,36,-4
1511884883056168,0,2,-1,2,8,-6,41,16
1511884883056168,-7,6,1,1,11,1,35,-31
1511884883065192,2,1,0,-1,-13,2,19,1
1511884883065192,-4,5,1,2,4,8,-11,-4
1511884883079367,-7,-3,-1,1,6,2,14,10
1511884883079367,3,1,-3,-1,-1,-3,8,-12
1511884883085497,0,-3,1,-2,-3,-4,7,3
1511884883085497,1,-2,2,0,-1,1,-13,1
1511884883093404,-2,-1,-1,1,1,9,-8,2
1511884883093404,4,-1,-4,0,5,-4,4,-2
1511884883108630,-3,-2,2,2,-8,-3,4,1
1511884883108630,0,-3,-6,0,16,-12,0,-3
1511884883115577,0,-1,-2,-11,-11,-2,12,8
1511884883115577,1,-2,-1,-7,0,10,11,5
1511884883124488,0,-6,1,4,-5,2,0,-4
1511884883124488,-3,-1,4,4,-1,10,-9,-1
1511884883138525,2,-3,-9,-8,-7,-8,16,5
1511884883138525,2,-5,0,1,3,-13,31,0
1511884883145546,-4,-1,2,-3,-3,-9,-17,-5
1511884883145546,-8,1,0,5,-3,1,3,-1
1511884883153806,-3,-6,4,-4,-2,1,2,6
1511884883153806,-1,0,5,5,1,3,7,-8
1511884883168743,-3,2,-12,-7,-3,-5,-20,-6
1511884883168743,7,1,4,-1,-4,-19,-32,8
1511884883175792,-8,2,1,5,4,-30,-36,-9
1511884883175792,5,2,9,1,2,-29,-19,-3
1511884883184808,6,3,5,2,4,-31,43,-10
1511884883184808,11,-4,7,4,1,-6,76,-3
1511884883198827,0,-12,-7,-4,3,-7,110,-37
1511884883198827,0,-6,0,1,5,33,89,-44
1511884883205845,-10,-2,0,-1,9,39,19,-10
1511884883205845,-6,-4,5,16,15,43,54,8
1511884883212861,-1,8,-5,-33,-33,37,78,88
1511884883212861,21,8,-3,12,11,38,-54,89
1511884883228024,21,14,-2,-6,-22,32,-69,68
1511884883228024,16,17,-9,-7,3,21,-112,22
1511884883235964,-3,0,3,20,12,2,-110,-20
1511884883235964,-11,0,1,-7,-3,-8,-4,-38
1511884883244946,-18,-15,2,-2,-6,-26,28,-37
1511884883244946,-12,-32,-9,-19,-9,-37,-13,-30
1511884883259025,0,-32,-10,1,4,-35,-47,-21
1511884883259025,-7,-4,13,-2,1,-26,-49,-16
1511884883266005,-9,0,12,13,8,-21,-25,-9
1511884883266005,0,32,1,0,-8,-2,5,-4
1511884883273039,9,35,7,18,6,11,11,7
1511884883273039,-2,7,-18,1,-2,-4,7,-1
1511884883288085,1,7,-11,-25,-4,13,8,8
1511884883288085,-6,-7,-1,-3,-6,-5,14,1
1511884883296085,-4,-3,10,15,22,15,0,-9
1511884883296085,6,-11,-6,-15,-10,6,23,2
1511884883305106,-1,-13,3,6,0,7,19,-8
1511884883305106,-19,-28,-6,16,6,-1,1,2
1511884883319282,-1,-37,-4,-22,-18,-5,-21,2
1511884883319282,-11,12,-2,5,-1,10,-13,-4
1511884883325222,-1,20,-9,-8,0,-1,-4,-7
1511884883325222,14,37,7,-4,-6,9,-6,-3
1511884883341453,4,18,1,11,6,15,-19,-5
1511884883341453,-2,-5,-2,-4,-5,3,-5,-5
1511884883348275,0,-8,2,1,-2,-10,-13,-5
1511884883348275,-8,-10,-1,1,1,-32,-14,-8
1511884883355295,-4,-2,3,6,1,-41,18,4
1511884883355295,-1,12,-6,-15,-8,-34,6,8
1511884883365318,-31,-7,0,15,14,-9,9,8
1511884883365318,-34,-15,-2,-6,-9,8,15,12
1511884883387557,58,-10,-12,-17,2,13,46,25
1511884883387557,97,25,5,10,13,10,58,31
1511884883388380,48,0,0,9,8,7,16,11
1511884883388380,-14,7,1,-9,-5,21,-6,-22
1511884883393554,-57,-9,6,-2,-11,28,-101,-57
1511884883393554,-79,-15,-2,-7,-16,101,-109,-71
1511884883408534,-30,-6,3,-4,-13,122,-71,-41
1511884883408534,-14,-3,1,3,-2,-27,-21,-6
1511884883415454,-23,16,2,14,5,-96,31,-5
1511884883415454,-16,-7,0,7,-1,-115,56,-10
1511884883424509,0,0,-1,4,-10,21,7,14
1511884883424509,29,-2,-1,5,-32,127,-17,25
1511884883439515,43,8,-3,2,-21,127,-12,41
1511884883439515,19,48,-6,-1,1,49,-24,25
1511884883445531,3,-18,-2,-1,5,-1,-3,6
1511884883445531,9,-9,-1,-6,0,-12,-9,3
1511884883461579,10,-16,-4,-3,-1,-12,17,9
1511884883461579,4,-26,-1,1,2,1,24,0
1511884883468636,15,16,0,-2,13,-48,45,18
1511884883468636,21,11,-1,-4,46,-22,34,10
1511884883475738,-10,32,-8,-7,30,-30,12,4
1511884883475738,-12,-16,5,-2,35,-18,4,4
1511884883484683,-5,-25,-3,-5,9,-39,-3,-11
1511884883484683,-11,-45,-1,-2,6,-29,-5,-14
1511884883498721,-14,-30,-2,-2,-1,-5,20,-4
1511884883498721,1,1,4,4,-15,-3,7,3
1511884883505695,5,13,-8,-7,-13,-12,9,-18
1511884883505695,3,8,1,-4,-19,-4,11,-5
1511884883521741,-6,15,0,1,-6,7,-11,6
1511884883521741,-2,7,-1,-1,-10,6,-17,-22
1511884883528757,-7,12,1,0,-11,-8,-14,19
1511884883528757,1,-3,4,0,-4,0,-6,5
1511884883535925,0,0,4,0,-5,6,-3,1
1511884883535925,-1,-23,-4,2,-4,0,5,14
1511884883544894,2,-2,1,-1,-1,3,6,-7
1511884883544894,2,15,-4,-2,1,-1,3,-6
1511884883559075,3,1,1,0,2,0,4,-1
1511884883559075,-6,-4,-2,-3,1,-1,2,5
1511884883566214,5,0,1,3,6,-3,10,-2
1511884883566214,4,6,5,3,-4,-4,2,2
1511884883581254,-5,-2,-11,-9,-2,3,3,-6
1511884883581254,-1,-3,-8,-11,-3,2,0,1
1511884883588272,-3,1,4,-3,0,-2,-3,-1
1511884883588272,-1,4,2,5,0,-1,0,-2
1511884883595584,-7,2,8,12,3,6,-5,-8
1511884883595584,-6,-4,-6,-6,-4,3,-13,0
1511884883604488,-7,-6,-6,-10,-3,3,-11,-2
1511884883604488,-5,2,-1,-1,-3,0,-14,-8
1511884883618702,-2,3,8,7,1,2,-11,-3
1511884883618702,-1,-5,-1,1,3,-1,-8,5
1511884883633736,1,-2,1,7,-2,-2,1,2
1511884883633736,7,1,-6,-3,2,0,6,3
1511884883641761,3,2,-3,-3,1,-1,4,1
1511884883641761,1,-3,3,3,2,-4,3,5
1511884883648746,0,-2,5,-4,-2,1,-1,-2
1511884883648746,-3,3,-1,-6,-1,0,-8,-6
1511884883655888,-3,1,-1,-2,-1,2,-3,-3
1511884883655888,-3,3,7,9,2,2,-7,-2
1511884883664912,-6,13,-10,4,-1,3,-7,-5
1511884883664912,-3,28,-14,-17,-2,-2,-7,-2
1511884883678956,-3,1,-6,-7,-4,2,-5,-2
1511884883678956,-3,-11,2,-1,-1,-2,0,-1
1511884883686090,3,-11,2,9,3,-5,21,3
1511884883686090,4,-14,6,6,2,-3,14,3
1511884883701027,5,-17,1,5,2,-1,4,2
1511884883701027,4,-15,-1,-4,2,-3,7,5
1511884883708030,1,-13,1,0,-1,-5,5,4
1511884883708030,0,10,10,-4,1,-7,2,5
1511884883716048,-3,24,19,-4,-1,-2,5,1
1511884883716048,-1,27,-4,1,0,3,5,0
1511884883725120,1,-1,-19,-1,-3,-2,9,4
1511884883725120,-1,-25,-14,-1,-1,4,6,1
1511884883739115,-7,-20,-10,0,0,5,-4,2
1511884883739115,16,-16,1,-8,-1,1,5,-1
1511884883746141,31,6,11,-5,-1,-1,2,0
1511884883746141,1,9,8,3,11,4,-7,-7
1511884883761173,0,29,-4,-5,8,7,-10,-2
1511884883761173,-7,30,1,-4,16,12,-14,7
1511884883768191,4,9,2,0,25,7,-15,-1
1511884883768191,3,-16,-3,1,31,10,-3,8
1511884883784480,-14,-8,7,4,29,2,-11,-3
1511884883784480,14,13,3,4,0,-11,-10,-2
1511884883790533,24,46,-5,1,-29,-12,-5,-1
1511884883790533,15,-18,-1,2,-48,-9,2,8
1511884883807631,2,-45,-12,-3,-42,-19,11,-2
1511884883807631,6,-41,-11,0,-11,-5,19,5
1511884883808634,16,-43,1,-2,-8,-16,11,1
1511884883808634,-32,33,5,0,-4,-11,4,0
1511884883821713,-11,12,-4,-2,-2,-11,5,-9
1511884883821713,-52,-10,2,1,-5,0,-7,-3
1511884883828705,-51,-11,-3,-2,-4,1,-6,-8
1511884883828705,-65,0,-4,-3,-3,9,-9,-9
1511884883843748,14,-5,-4,-1,-12,8,-9,-4
1511884883843748,0,22,0,1,-4,4,-9,-11
1511884883850886,-18,9,-4,-2,3,11,-8,-3
1511884883850886,0,-18,-1,0,-2,7,-1,-14
1511884883867022,-3,-41,-3,2,11,10,-3,-12
1511884883867022,39,-27,-7,0,10,10,-3,-11
1511884883868987,17,-13,0,-1,25,20,-5,-3
1511884883868987,27,-8,-3,0,24,21,5,13
1511884883881038,19,19,5,-2,8,3,13,21
1511884883881038,9,4,3,0,-3,-2,25,4
1511884883888056,-5,2,6,0,0,-2,29,1
1511884883888056,8,13,3,1,-13,-13,32,-9
1511884883904188,12,17,1,1,-4,-19,27,-3
1511884883904188,-2,9,2,-1,0,-9,10,0
1511884883911235,-4,9,4,-1,-8,-16,-2,10
1511884883911235,18,6,5,-2,-7,-8,-1,7
1511884883927283,-9,14,7,-2,-5,-20,-25,-1
1511884883927283,-13,5,15,0,-26,-20,-54,-3
1511884883928287,-3,4,15,-2,-28,-14,-65,-4
1511884883928287,9,-1,-3,-1,-45,-20,-62,2
1511884883949586,-6,6,-16,-1,-30,3,-24,5
1511884883949586,-6,9,-24,2,-4,15,3,5
1511884883951485,3,12,-28,2,6,18,20,0
1511884883951485,5,-13,-18,1,18,13,22,0
1511884883963540,-3,-40,-5,-1,25,22,26,0
1511884883963540,2,-46,4,-1,24,9,24,-1
1511884883970536,-4,-32,9,-1,21,4,19,4
1511884883970536,1,-10,10,-1,17,-2,16,-1
1511884883987708,2,10,7,-3,4,-1,11,1
1511884883987708,-2,10,6,-2,-10,0,14,1
1511884883989595,-6,2,2,-1,2,11,5,1
1511884883989595,0,16,4,0,6,3,-1,-4
1511884884001641,1,17,-2,-1,0,-3,-4,-1
1511884884001641,-6,13,-1,-4,-1,-9,-5,-1
1511884884008638,-5,8,0,-2,3,-16,-4,-6
1511884884008638,2,5,-1,-1,8,-3,-5,-5
1511884884031699,-7,8,-3,0,7,2,-8,-6
1511884884031699,-2,2,-1,2,4,2,-6,0
1511884884033704,-3,0,0,-3,1,2,-8,-5
1511884884033704,-1,0,-2,-1,4,0,-6,-1
1511884884046742,-5,-3,2,1,0,0,-7,0
1511884884046742,-2,0,1,-1,-3,2,-3,1
1511884884048743,3,-5,-2,-1,-4,3,1,-1
1511884884048743,0,-2,-1,1,0,1,-4,-1
1511884884070125,-1,2,0,0,-5,30,0,1
1511884884070125,-2,-1,-1,0,-2,23,4,-2
1511884884070974,-3,1,-3,2,-3,2,14,0
1511884884070974,-4,-1,0,-1,-5,-4,5,-3
1511884884084127,2,0,-2,0,-4,-24,-9,-1
1511884884084127,-4,-1,-2,0,0,-10,-20,-2
1511884884091147,-5,-4,0,-1,-5,-13,-23,-3
1511884884091147,-2,-3,-3,0,-3,-12,-17,-4
1511884884107361,1,0,0,0,-2,-14,-7,0
1511884884107361,3,-2,2,1,-3,-20,2,-1
1511884884108292,1,0,-2,0,-1,-7,4,2
1511884884108292,5,-3,0,1,-2,5,11,5
1511884884120223,3,-3,-1,-1,0,7,12,4
1511884884120223,2,0,-2,0,-1,3,6,4
1511884884130247,5,-4,-2,-1,-3,3,9,3
1511884884130247,1,0,0,-1,-1,4,10,1
1511884884144285,-2,4,-1,0,3,7,5,-2
1511884884144285,-1,-3,-2,-5,0,5,3,1
1511884884150303,-3,0,-1,-1,-2,5,-4,-5
1511884884150303,-2,0,-1,-2,-2,4,-10,-6
1511884884167581,2,-1,1,0,0,-1,3,0
1511884884167581,-6,1,0,-1,1,1,-5,-5
1511884884168588,3,-2,-1,-1,0,1,0,4
1511884884168588,-2,-1,1,-3,-1,1,-1,-1
1511884884180906,-2,-1,0,-1,-2,-2,-3,-1
1511884884180906,-3,-3,-2,0,-2,-1,-6,-5
1511884884189810,2,-4,0,-1,-3,1,2,5
1511884884189810,0,1,-1,-1,-4,1,-2,0
1511884884204852,5,-1,0,0,1,-5,8,7
1511884884204852,-2,1,0,-4,-2,1,-4,10
1511884884211916,-7,-1,0,-1,-3,3,-5,5
1511884884211916,7,-1,-1,1,2,-8,8,14
1511884884226942,-4,1,-1,1,-3,0,-5,9
1511884884226942,5,1,-1,0,-2,-1,0,7
1511884884228948,6,0,-2,1,2,-1,3,-2
1511884884228948,-1,-5,2,-2,2,-1,2,28
1511884884241010,-3,1,-2,-3,-1,-2,-3,-29
1511884884241010,-4,-4,-1,0,-1,-8,7,-47
1511884884250020,-2,-1,-2,-1,-1,-2,0,-45
1511884884250020,2,0,-3,1,-4,0,4,-27
1511884884264081,0,-2,-1,0,1,-1,2,3
1511884884264081,3,0,-3,-1,2,-1,10,18
1511884884271145,2,0,-2,0,0,-1,6,14
1511884884271145,-1,0,0,-1,1,-3,1,9
1511884884287223,1,-1,1,1,2,1,5,13
1511884884287223,2,1,0,1,6,-2,4,6
1511884884288187,-3,-4,2,-3,6,0,1,7
1511884884288187,-1,-1,-1,-1,-3,1,3,4
1511884884301259,2,0,1,-4,-5,1,-2,-3
1511884884301259,-3,-1,0,-2,-4,26,-3,3
1511884884310247,-5,1,-1,-3,-12,2,-5,9
1511884884310247,1,-2,-3,2,-3,-6,5,6
1511884884324310,1,-6,-4,1,-5,-17,1,10
1511884884324310,-2,2,1,0,-3,-14,-9,15
1511884884331315,-7,10,1,-3,-2,-1,-13,24
1511884884331315,-3,6,-1,-2,-2,-2,-9,-13
1511884884347509,0,6,-2,0,-2,0,-6,-35
1511884884347509,3,-2,-1,0,3,-5,4,-46
1511884884348512,2,-8,0,4,4,-5,3,-34
1511884884348512,-1,-5,-2,-1,-1,0,0,-13
1511884884360670,1,-4,-1,2,3,6,6,13
1511884884360670,3,-4,0,-1,0,-1,6,18
1511884884369567,3,1,-2,1,1,2,8,13
1511884884369567,1,-1,0,-2,0,0,3,9
1511884884383607,5,-6,0,-2,-1,2,4,11
1511884884383607,2,-3,-1,0,1,0,3,8
1511884884390803,1,1,-3,-1,0,0,3,4
1511884884390803,-1,-1,0,1,4,20,-1,-1
1511884884414832,-6,1,-2,-3,34,12,-8,-6
1511884884414832,-5,0,1,-3,109,-9,-9,-2
1511884884415835,-4,1,0,-1,60,-6,-8,0
1511884884415835,-5,1,-1,0,-2,-4,-12,-8
1511884884420847,-5,2,2,-1,-70,4,-8,-2
1511884884420847,-1,-1,-1,-1,-89,-18,-2,6
1511884884429869,0,0,1,2,-57,-23,1,-5
1511884884429869,3,-1,-2,0,-46,-25,2,-2
1511884884443922,1,4,-3,2,-14,-14,9,0
1511884884443922,4,6,-2,-1,-13,-2,4,4
1511884884450924,3,-3,-4,1,9,7,7,1
1511884884450924,4,-12,-1,0,4,9,2,-3
1511884884466970,-2,-10,0,-1,-13,10,3,2
1511884884466970,-2,-5,0,0,-31,11,-5,-3
1511884884469120,-2,-2,-1,-3,-36,1,-8,-1
1511884884469120,-2,4,0,-2,-10,-1,-4,-6
1511884884481008,-2,0,0,-1,14,-5,-3,-1
1511884884481008,0,-2,-1,0,12,4,-1,-5
1511884884490258,0,-1,0,-3,19,3,-3,0
1511884884490258,2,0,-2,-2,29,-3,3,1
1511884884504342,-2,1,-1,-3,28,3,-7,-5
1511884884504342,-15,0,-1,-4,12,10,-30,-9
1511884884511231,-6,1,1,-2,12,1,-15,-7
1511884884511231,2,6,1,-1,15,-2,-1,4
1511884884527351,13,-5,-1,4,8,-7,25,11
1511884884527351,23,-2,-1,3,2,-9,45,19
1511884884528359,5,-6,-1,0,-1,-4,-9,2
1511884884528359,-3,-1,-5,-1,3,-3,15,1
1511884884540502,-1,5,0,-2,3,0,14,-1
1511884884540502,-3,1,-1,-4,-6,-2,5,-1
1511884884549482,-4,-1,-2,-3,-5,2,-1,-9
1511884884549482,-7,-1,0,-2,-2,3,-17,-5
1511884884563522,-7,0,-1,-4,0,0,-21,-7
1511884884563522,-5,0,-4,-1,-3,1,-10,-3
1511884884570580,-4,-2,2,0,-6,3,-4,-2
1511884884570580,0,-1,-2,-1,-2,-5,-5,-2
1511884884587589,-1,-2,-1,0,1,-3,1,-2
1511884884587589,0,0,1,1,-3,-4,0,-2
1511884884588591,0,-2,-2,-1,-4,2,3,0
1511884884588591,-1,-2,0,-2,-2,1,-4,0
1511884884600955,-1,-2,0,-1,0,2,-10,0
1511884884600955,-2,0,-2,-2,-3,0,-3,-1
1511884884609852,7,-1,-1,2,1,-6,16,5
1511884884609852,-1,0,1,-2,-1,1,8,-1
1511884884623989,3,-1,-2,0,2,-4,7,2
1511884884623989,2,-2,0,-2,0,-1,2,-1
1511884884630908,-5,1,0,-1,-2,0,-1,-4
1511884884630908,-4,-1,1,-1,-3,2,-6,-4
1511884884646953,-4,-1,-3,-3,0,2,-11,-4
1511884884646953,-5,0,0,0,-1,1,-9,-5
1511884884648956,-3,3,-3,-1,-2,1,-7,-4
1511884884648956,-5,-1,0,-1,-2,2,-13,-3
1511884884670155,-6,0,0,-2,-5,1,-16,-4
1511884884670155,-1,-2,-1,0,-4,-1,-6,-2
1511884884671158,-1,-1,-1,-1,1,1,4,1
1511884884671158,5,1,1,1,7,0,3,2
1511884884684232,2,-2,1,0,5,-2,8,2
1511884884684232,4,-1,0,0,2,-1,4,4
1511884884691422,0,0,-1,-2,2,0,3,3
1511884884691422,0,-3,0,2,-2,-2,1,-1
1511884884706542,1,-1,-1,-1,-1,-4,-1,0
1511884884706542,0,1,-1,1,-4,-1,-3,1
1511884884713486,3,-1,-1,0,-2,-1,0,-1
1511884884713486,0,0,-1,1,0,-2,4,4
1511884884720469,2,1,2,-1,-4,-1,3,0
1511884884720469,0,-1,-1,-2,3,-1,7,0
1511884884729503,5,-4,-1,1,-2,-4,14,4
1511884884729503,2,0,-2,-2,2,-1,9,3
1511884884743530,-1,4,0,0,1,-1,6,1
1511884884743530,1,-1,0,-2,-2,-4,7,1
1511884884750658,0,0,2,-2,-1,1,-1,-2
1511884884750658,-4,2,-1,0,0,2,-5,-2
1511884884774785,-5,-1,0,-1,-1,2,-3,0
1511884884774785,-6,-2,0,-1,-2,3,-7,0
1511884884776752,-2,1,-1,-2,-2,0,-8,-2
1511884884776752,-2,0,-2,-2,-2,1,-8,-2
1511884884789826,-1,-1,-1,-2,-1,0,-10,-3
1511884884789826,-1,-2,-1,0,-1,1,0,2
1511884884790813,-1,-1,0,1,1,0,-1,-1
1511884884790813,0,-1,-2,-2,-2,0,-1,2
1511884884803840,0,0,0,0,-1,1,2,-1
1511884884803840,1,-1,-1,-2,-1,0,0,-2
1511884884810858,-2,0,1,-1,0,-1,2,2
1511884884810858,1,-1,-3,0,1,-6,0,-1
1511884884826897,0,1,-1,-2,0,-1,1,0
1511884884826897,-3,-1,0,-1,-2,-3,3,-1
1511884884832898,-2,-8,0,-2,-2,1,4,1
1511884884832898,1,0,1,0,-2,1,-2,-3
1511884884850050,0,2,-1,-1,0,-3,-4,0
1511884884850050,1,0,-3,2,1,0,-4,-1
1511884884850943,1,3,-3,-3,-1,-1,0,2
1511884884850943,-5,-4,0,0,-1,1,0,0
1511884884863980,2,-2,0,-1,-2,-1,-2,-1
1511884884863980,0,-1,0,-1,-1,1,0,-3
1511884884871000,0,1,-2,-1,-1,-2,-7,-2
1511884884871000,2,-2,-1,-2,-1,-1,1,1
1511884884886039,1,-2,0,2,1,-2,4,2
1511884884886039,-2,-2,-1,-1,0,-3,-1,-2
1511884884893055,-4,-2,1,1,-1,3,-4,0
1511884884893055,-3,1,-1,-1,0,-1,-5,-2
1511884884909280,-1,-2,-1,-2,-4,-1,-2,0
1511884884909280,-1,1,-1,1,0,-4,-4,1
1511884884911105,0,2,-1,0,0,0,1,-3
1511884884911105,2,-1,0,-2,0,0,-3,2
1511884884925144,-3,-1,1,0,-1,0,-1,-1
1511884884925144,0,-1,-1,-2,0,-2,-4,-3
1511884884931159,0,0,-1,0,-3,-2,-5,0
1511884884931159,-4,-2,0,-1,-2,-1,-1,-5
1511884884947205,-2,-1,1,1,0,-1,2,-3
1511884884947205,1,1,-1,0,-1,2,-1,2
1511884884953233,-2,0,0,-2,0,-3,-2,-5
1511884884953233,0,-3,1,-2,0,-3,-2,-2
1511884884969355,1,-2,-3,-1,-2,-1,-2,-3
1511884884969355,-3,1,1,-2,-2,-2,0,0
1511884884969355,2,-2,-1,1,-3,0,-1,-3
1511884884969355,-1,0,-1,1,2,1,-1,-1
1511884884985329,0,3,-2,-2,2,1,1,0
1511884884985329,0,-1,0,0,-2,-2,4,2
1511884884991316,-1,-2,-1,-1,-2,-1,1,1
1511884884991316,-1,0,2,-1,-2,1,1,1
1511884885007360,-4,-1,-1,1,-2,1,-6,-1
1511884885007360,-4,-1,0,0,-1,1,-5,-4
1511884885013378,-4,-2,0,-2,0,2,-3,0
1511884885013378,-2,0,-1,-2,0,-4,1,1
1511884885028521,-1,-2,0,-1,1,-1,-2,-1
1511884885028521,0,0,-2,0,1,-1,0,0
1511884885029417,-4,0,0,0,-2,-2,-2,1
1511884885029417,1,1,-3,1,-3,0,0,-2
1511884885044459,-2,-2,1,0,0,-3,2,1
1511884885044459,1,-1,1,0,-1,-2,2,0
1511884885050477,-1,-1,-1,-2,2,0,3,-3
1511884885050477,-3,1,-1,-2,0,2,2,0
1511884885067519,-2,-1,-2,1,1,0,-1,-1
1511884885067519,-2,-3,0,-2,0,0,-4,-2
1511884885073538,1,0,-1,-2,-1,1,0,-1
1511884885073538,-2,-1,-1,-2,-1,-1,-7,-4
1511884885088582,-2,-1,2,-3,0,1,-4,-2
1511884885088582,-2,2,1,0,-1,11,-5,1
1511884885089579,-2,-1,-1,4,-3,1,-3,-1
1511884885089579,0,-2,-1,0,-1,-1,-3,-1
1511884885104623,0,0,0,-1,0,-5,-2,0
1511884885104623,0,-2,-1,1,-1,-7,-4,-3
1511884885110644,-4,0,0,-1,-1,-7,-5,-2
1511884885110644,-1,-1,-2,-1,-1,-2,-4,-1
1511884885127680,0,-2,-1,0,0,2,-4,0
1511884885127680,0,0,-1,-3,0,2,2,0
1511884885132806,3,1,-1,0,-1,-1,5,2
1511884885132806,4,-2,1,2,1,-3,7,1
1511884885148811,7,-1,0,3,-1,-4,14,7
1511884885148811,6,2,-2,-1,1,-5,14,3
1511884885149810,5,-3,0,-2,1,-1,10,1
1511884885149810,2,1,0,-2,0,-4,10,3
1511884885171906,1,0,-3,-1,-1,1,8,1
1511884885171906,-1,0,0,0,-1,-2,3,1
1511884885172877,-2,0,0,-1,0,-1,-1,-2
1511884885172877,-9,-1,-1,-2,-4,4,-20,-12
1511884885186995,-12,1,1,-3,-2,5,-19,-9
1511884885186995,-7,-2,-3,-3,-2,1,-15,-6
1511884885192927,-5,-1,-1,0,0,3,-12,-2
1511884885192927,-2,-1,0,-3,0,2,-3,-1
1511884885209014,1,0,2,-1,-1,-4,-1,0
1511884885209014,3,1,-1,2,0,-2,0,3
1511884885209974,2,-2,-1,1,0,-4,3,4
1511884885209974,3,-4,-2,-2,0,0,5,2
1511884885231028,-2,0,-3,-1,-1,2,-1,-1
1511884885231028,-4,-2,0,-2,0,2,-1,-1
1511884885232027,-5,0,-1,-1,-1,3,-8,-2
1511884885232027,-4,1,0,2,-3,-1,-10,-7
1511884885247068,-3,-3,-3,-1,-3,1,-11,-6
1511884885247068,-6,-2,0,-1,-2,3,-17,-4
1511884885253088,-6,0,-2,-1,-2,1,-14,-8
1511884885253088,2,-1,-1,2,0,-2,-2,1
1511884885269280,4,-2,-2,3,0,-4,7,4
1511884885269280,5,-1,1,2,1,-4,11,2
1511884885270283,5,-2,0,-1,0,0,8,4
1511884885270283,5,2,0,-3,1,-1,7,2
1511884885291444,3,2,-3,-1,-1,-2,6,5
1511884885291444,0,-1,-2,-2,-3,0,4,-1
1511884885292341,1,1,0,-1,1,0,3,1
1511884885292341,0,0,-1,-4,2,-3,6,2
1511884885307381,-2,1,-1,-2,0,1,3,-1
1511884885307381,-3,-1,0,-3,0,1,-1,-3
1511884885313400,-3,-1,-1,0,-4,-2,-5,1
1511884885313400,-5,-1,-1,1,-2,3,-4,-2
1511884885337665,-2,-2,0,0,-2,-1,-3,-2
1511884885337665,0,1,0,-3,0,0,-3,-2
1511884885338619,4,-1,0,1,1,-1,3,0
1511884885338619,2,-2,0,0,0,-4,3,2
1511884885351778,2,-1,0,-1,1,-5,5,-1
1511884885351778,2,-3,-1,-3,-1,-3,4,3
1511884885352658,3,-2,1,-2,-2,-3,5,1
1511884885352658,-1,-2,-1,-1,0,2,2,-2
1511884885367702,0,-1,-1,0,-2,1,1,-2
1511884885367702,-4,-2,-2,0,0,-3,-2,1
1511884885373849,-3,1,1,-1,2,-1,-5,-3
1511884885373849,-1,1,1,1,-2,1,-2,1
1511884885388874,0,0,-1,-1,-1,1,-4,-1
1511884885388874,-1,2,-2,1,-2,-2,-3,-2
1511884885389858,-2,-1,-2,-1,-1,-6,3,-2
1511884885389858,0,-2,-1,-1,-1,-3,1,-2
1511884885410913,0,0,0,-1,2,0,-2,0
1511884885410913,-1,0,-1,-1,-2,1,-1,-1
1511884885411912,0,3,-1,-2,1,-3,2,0
1511884885411912,1,-1,-1,0,-1,2,-2,3
1511884885426953,0,-2,-1,0,-3,0,-4,0
1511884885426953,3,0,0,2,-1,-4,3,1
1511884885432970,-1,-2,0,0,-1,1,-2,-1
1511884885432970,-1,0,-1,-1,-1,1,-1,-2
1511884885449013,-2,1,-1,-1,-2,3,1,3
1511884885449013,-2,-3,-1,2,-2,-3,0,1
1511884885450016,1,0,-1,1,0,-1,-3,-2
1511884885450016,-1,0,1,-2,-2,-3,0,-2
1511884885471172,1,-1,-2,-1,0,-2,-1,0
1511884885471172,-1,-1,-1,0,-1,2,0,1
1511884885472100,-2,0,-2,-2,1,1,0,-2
1511884885472100,0,-1,-1,1,0,0,-4,0
1511884885487112,-1,-2,-1,-2,0,0,0,-1
1511884885487112,3,0,-1,-1,-1,-3,0,-3
1511884885493128,-2,1,-1,-3,-1,5,-3,0
1511884885493128,-1,-3,-2,-1,-1,0,-1,3
1511884885509439,-3,-1,-1,-1,0,1,-3,0
1511884885509439,0,3,0,1,1,-3,0,-3
1511884885509439,-2,-2,-1,-2,1,0,0,0
1511884885509439,2,0,-1,-1,0,2,0,-2
1511884885531455,0,-2,0,0,1,-3,2,0
1511884885531455,-1,-1,-1,-2,-1,5,-3,-2
1511884885532458,3,-1,-3,-1,-2,-1,0,-1
1511884885532458,-2,-3,-2,-2,-2,2,-2,-2
1511884885547522,-1,1,0,-2,-2,-1,-4,1
1511884885547522,-1,-2,-1,0,2,1,-3,-3
1511884885553611,-3,0,-1,0,1,-1,-4,-1
1511884885553611,1,-1,-1,-1,0,-7,-2,-3
1511884885568550,-2,0,0,-3,-1,2,0,-3
1511884885568550,-3,1,1,-2,1,0,-3,-2
1511884885569553,1,-2,1,-1,-2,0,-3,2
1511884885569553,-3,-1,-1,1,1,-2,0,0
1511884885591649,0,2,0,-1,-3,-4,0,0
1511884885591649,2,0,-2,0,-2,-3,-4,0
1511884885592615,0,-4,-2,-1,-2,-1,2,2
1511884885592615,-2,0,1,-1,0,1,-4,-2
1511884885607711,-3,-4,-1,0,1,-2,-4,-2
1511884885607711,-3,-2,1,0,1,0,2,-3
1511884885612875,-3,1,0,1,0,0,-8,-4
1511884885612875,1,1,-1,2,-3,3,-11,-5
1511884885627952,9,0,1,2,0,-5,15,5
1511884885627952,3,-2,-2,-1,2,-4,11,5
1511884885636055,-2,-1,-3,-1,-1,1,-2,-3
1511884885636055,0,1,0,-1,-2,2,-1,-1
1511884885651088,-5,-1,1,0,-1,3,-7,-5
1511884885651088,-3,2,-1,-1,1,-1,-6,-3
1511884885651974,0,0,0,-1,-1,-6,0,-1
1511884885651974,-5,-3,0,1,-1,0,-3,1
1511884885667014,0,-2,-5,-1,-2,-3,-3,1
1511884885667014,1,5,0,0,-2,-1,-2,4
1511884885673033,0,8,-2,0,-1,-1,3,1
1511884885673033,4,4,-1,0,0,-4,7,4
1511884885688119,1,-7,-1,-1,1,0,-1,-1
1511884885688119,-4,-13,1,-2,-1,2,-3,-4
1511884885696100,0,-9,1,-1,0,1,2,-3
1511884885696100,-1,-3,0,-3,-1,1,2,0
1511884885711139,-1,3,-2,-2,-2,2,-1,-3
1511884885711139,-2,1,-2,-3,-2,-1,-3,0
1511884885712134,1,0,0,0,-2,-2,-2,0
1511884885712134,-1,-1,-1,1,1,1,2,-2
1511884885727174,-2,0,1,-2,-3,0,0,-3
1511884885727174,1,2,-2,1,1,-2,4,-1
1511884885733395,0,0,-1,0,-2,0,0,0
1511884885733395,2,1,-4,0,-1,-3,2,1
1511884885748493,1,1,0,-2,0,-2,4,1
1511884885748493,4,-1,1,0,1,-1,4,1
1511884885755494,1,-2,-1,-1,1,0,6,1
1511884885755494,2,-2,0,-1,0,-2,7,1
1511884885771592,-6,-1,-1,-1,-1,2,-5,-2
1511884885771592,-3,-1,-2,-2,-3,0,-3,0
1511884885772594,-5,-1,2,-1,0,4,-10,-5
1511884885772594,-1,-1,-2,-3,1,-3,-7,-4
1511884885787640,-3,1,0,-1,0,1,-2,-2
1511884885787640,0,3,0,-1,-3,-1,-3,0
1511884885793654,0,-2,-1,-1,0,2,-2,-2
1511884885793654,0,-1,0,-2,-2,0,-5,-2
1511884885808762,-2,-1,-1,-1,-1,1,-4,0
1511884885808762,-2,0,-3,-1,-1,2,-11,-4
1511884885815821,-1,-2,-1,0,-1,1,-4,-2
1511884885815821,-4,-2,2,0,0,1,-4,1
1511884885830902,4,-1,-1,0,-2,-3,0,0
1511884885830902,2,-1,0,-3,0,-1,2,-1
1511884885831902,6,-1,1,1,0,-4,14,5
1511884885831902,10,-1,-4,1,0,-5,23,8
1511884885847011,1,-2,0,1,0,3,5,1
1511884885847011,-2,0,-1,0,-3,0,-2,-4
1511884885853031,-10,-2,-2,-2,-1,1,-17,-11
1511884885853031,-14,1,0,-4,-2,4,-24,-13
1511884885868212,0,2,1,0,-2,0,-8,-2
1511884885868212,-2,-4,-2,1,0,1,-1,-1
1511884885884401,5,2,-2,0,0,-3,5,5
1511884885884401,8,0,1,1,0,-4,15,7
1511884885891423,5,1,1,0,3,-4,16,5
1511884885891423,1,-1,-1,-1,1,1,6,4
1511884885892426,-1,-2,0,-1,-1,-3,2,1
1511884885892426,-5,-1,0,-1,-3,2,-13,-8
1511884885907561,-7,0,-1,-1,1,-1,-14,-7
1511884885907561,-6,3,0,-1,-1,2,-11,-5
1511884885913552,-5,0,0,-1,-2,0,-12,-5
1511884885913552,-7,2,-1,-2,-2,3,-9,-3
1511884885929733,-2,-3,-1,1,-1,4,-13,-4
1511884885929733,-4,-4,-3,0,-2,2,-12,-2
1511884885935953,-2,0,-3,-2,0,0,-8,-2
1511884885935953,-2,0,1,1,0,0,-11,-4
1511884885951914,1,-1,2,1,-3,1,-9,-2
1511884885951914,0,-1,0,0,0,1,-5,2
1511884885951914,3,-2,0,0,0,1,1,4
1511884885951914,2,-2,-2,3,1,-5,7,5
1511884885966835,3,-2,-4,0,0,-4,12,3
1511884885966835,10,-1,1,0,0,-6,10,6
1511884885980872,6,2,0,0,1,-1,14,5
1511884885980872,4,0,1,0,1,-4,13,4
1511884885987888,1,0,0,0,0,-1,10,0
1511884885987888,1,2,-1,-1,2,0,6,1
1511884885995909,4,-2,-3,-3,1,-4,6,-1
1511884885995909,1,0,-3,-3,0,-2,2,0
1511884886010952,-1,-1,0,-1,0,-3,0,1
1511884886010952,-1,-3,0,-2,0,0,4,-1
1511884886011952,-5,-2,1,-2,-1,0,-2,-4
1511884886011952,-3,0,-1,-1,-2,0,0,-1
1511884886027033,3,-2,-2,-3,-1,-2,2,-2
1511884886027033,2,-2,0,-2,-1,-2,3,0
1511884886033011,-1,-3,1,0,3,1,1,0
1511884886033011,0,-2,-1,-1,-1,-4,8,4
1511884886048051,-2,0,0,0,0,-4,4,-1
1511884886048051,2,2,0,-1,-1,1,6,2
1511884886056247,1,0,-3,0,0,-3,4,0
1511884886056247,0,-1,-1,-1,0,3,1,-3
1511884886071155,-5,0,-1,-3,0,-1,-3,-1
1511884886071155,-3,0,-1,-2,-1,-1,-7,-5
1511884886072114,-3,-1,-2,-2,-3,-1,-6,-1
1511884886072114,-3,0,-1,-1,-1,1,-9,-3
1511884886087310,-3,0,0,-2,-2,0,-7,-1
1511884886087310,-4,0,-3,-2,-2,1,-4,-3
1511884886093327,0,0,-1,0,-2,-1,-6,-2
1511884886093327,1,-2,1,-1,-1,0,-1,0
1511884886108553,0,-3,-3,1,1,2,-6,-3
1511884886108553,-3,-2,0,2,-2,-1,2,1
1511884886115489,-1,2,-1,1,-2,-1,-2,1
1511884886115489,1,1,0,-1,-3,-2,-1,-2
1511884886131553,-2,-1,0,0,-1,-2,-1,-1
1511884886131553,1,0,0,-2,-1,-2,-3,1
1511884886132556,-3,0,-1,1,-1,3,-2,-1
1511884886132556,-2,-1,-2,-1,-1,1,-3,2
1511884886147590,-1,1,-3,-3,-2,-1,-5,0
1511884886147590,-4,-2,-2,0,0,1,-5,-4
1511884886153571,-2,-3,0,1,-2,0,-2,-3
1511884886153571,-2,1,3,1,2,2,-1,-1
1511884886168654,0,-1,-1,-1,0,3,-3,-1
1511884886168654,0,-3,-1,-1,-1,-1,-4,-1
1511884886175671,0,1,0,-3,0,-2,-3,-4
1511884886175671,0,-2,-3,-2,-2,-1,-5,0
1511884886191592,1,-1,-1,1,-1,-1,0,-2
1511884886191592,2,-3,0,0,-2,-4,1,-1
1511884886192596,4,-1,-2,0,-1,-2,14,5
1511884886192596,3,-2,-1,0,0,-6,8,0
1511884886207641,1,0,1,-2,3,-3,0,-1
1511884886207641,-3,2,0,0,0,3,-4,-4
1511884886213689,-5,-1,1,-2,-1,3,-11,-4
1511884886213689,-5,2,-3,-1,-1,2,-8,-5
1511884886228754,-6,-2,-1,-2,-1,0,-5,0
1511884886228754,2,-3,-2,0,2,-2,7,1
1511884886235859,4,-2,-1,0,0,-5,9,5
1511884886235859,2,-4,-2,-2,0,-1,0,0
1511884886251890,-1,-1,0,2,-1,4,0,-1
1511884886251890,-1,-3,-1,-1,-2,1,-3,-1
1511884886251890,-2,-1,1,-2,-2,0,-7,-3
1511884886251890,-1,-1,1,1,1,-4,-3,-1
1511884886266855,-1,0,0,0,-5,3,-1,-1
1511884886266855,1,1,-1,-1,0,0,-4,0
1511884886272843,-1,-1,1,-2,1,1,-1,-1
1511884886272843,-1,1,-1,-1,-1,-1,0,0
1511884886287891,5,1,-4,0,1,-4,4,1
1511884886287891,-3,1,1,0,-1,-3,-4,-3
1511884886295907,2,0,-4,0,0,-2,-2,0
1511884886295907,-1,1,0,0,-2,0,0,-3
1511884886311162,0,-3,-1,-2,0,0,0,3
1511884886311162,-4,-1,-1,-2,-1,2,-4,-3
1511884886312161,-5,3,-1,-1,-2,-2,-10,-4
1511884886312161,-1,-3,0,-4,-3,2,-4,-2
1511884886327206,-5,-3,-1,0,-1,3,-16,-6
1511884886327206,-4,0,-1,-2,-2,2,-16,-7
1511884886333258,-6,-4,0,-3,-4,2,-14,-5
1511884886333258,-2,0,0,2,-2,0,-5,1
1511884886348300,2,2,0,-2,0,0,2,6
1511884886348300,10,2,2,4,2,-6,17,9
1511884886364322,12,-1,-1,1,1,-4,25,11
1511884886364322,11,-2,-3,2,3,-6,23,12
1511884886371317,4,1,2,-2,2,-1,16,3
1511884886371317,-5,17,-1,-2,-3,-2,-1,-3
1511884886372320,4,6,0,-3,0,-2,-4,-5
1511884886372320,-7,-13,-1,-3,1,2,-13,-8
1511884886387360,-8,-11,0,-1,-2,1,-11,-8
1511884886387360,-7,-13,-1,-2,-2,3,-14,-4
1511884886393380,-5,1,1,1,-1,9,-3,-1
1511884886393380,0,1,0,0,0,5,-3,-2
1511884886408595,-4,5,0,-1,0,6,-7,-4
1511884886408595,1,-1,-1,-2,1,-4,4,4
1511884886415438,-1,-1,-2,-1,-2,1,-7,-4
1511884886415438,-4,0,0,-1,-1,-1,-9,-4
1511884886431723,-2,2,-3,1,-3,4,-3,-3
1511884886431723,4,-3,-1,0,-2,15,2,-3
1511884886432624,0,-2,0,2,0,0,2,1
1511884886432624,3,-3,-1,2,1,28,6,2
1511884886447663,-1,1,0,-2,0,14,7,3
1511884886447663,-2,2,1,1,1,-1,0,3
1511884886453809,0,-1,-1,0,1,-34,7,2
1511884886453809,-4,0,-1,-2,-3,-61,2,-3
1511884886468833,2,1,-1,0,-2,-56,2,1
1511884886468833,5,0,-1,-1,0,-22,7,-2
1511884886475877,-3,-2,0,-3,-1,1,5,1
1511884886475877,2,1,0,1,1,-3,1,-2
1511884886490951,2,-2,-1,-1,-1,12,0,-1
1511884886490951,0,-1,0,-3,0,8,4,-3
1511884886491959,-2,-1,-2,-2,-1,15,-3,-4
1511884886491959,0,0,-1,-4,-1,17,-2,0
1511884886507024,-1,-1,-1,1,2,14,4,0
1511884886507024,-2,-3,-2,-1,0,8,6,0
1511884886513054,1,-1,-1,0,-1,6,0,0
1511884886513054,1,-1,0,-1,0,6,5,3
1511884886528055,1,-2,0,-1,-2,2,6,1
1511884886528055,-3,-1,-3,0,0,-4,-3,-1
1511884886536113,0,0,-1,0,-2,4,0,0
1511884886536113,-1,0,3,-4,-1,2,-3,-3
1511884886551153,-2,1,-2,-1,0,0,-8,-3
1511884886551153,-4,1,0,0,-1,-3,-8,-3
1511884886552117,-9,-2,-2,-2,-3,1,-12,-9
1511884886552117,-6,0,-1,0,-3,5,-16,-7
1511884886567157,-2,-1,1,1,-2,-4,-11,-2
1511884886567157,-1,-2,-2,0,-2,-2,-6,-4
1511884886573194,-1,0,0,-2,0,-1,-4,1
1511884886573194,2,0,-2,-1,0,-5,1,2
1511884886588210,1,0,-3,0,-2,-1,5,0
1511884886588210,2,-2,0,2,0,-3,1,1
1511884886595229,0,0,-1,0,1,-2,1,0
1511884886595229,0,3,-3,0,-3,0,3,-1
1511884886610405,1,-1,0,1,0,-1,-1,3
1511884886610405,3,-4,-1,0,0,-3,9,2
1511884886618420,4,-2,0,2,0,-3,6,1
1511884886618420,2,1,-1,0,1,0,4,3
1511884886627404,2,-2,-2,-2,-2,1,7,1
1511884886627404,1,-4,-1,-2,2,-4,5,1
1511884886633546,-2,1,-2,-3,-1,-2,3,0
1511884886633546,1,-2,-1,-2,0,1,3,1
1511884886648462,0,1,-1,-1,-2,-2,1,1
1511884886648462,0,0,1,0,-3,-2,-1,0
1511884886655513,1,0,-2,1,0,-2,3,-1
1511884886655513,-3,3,-2,1,-1,-1,-5,-4
1511884886670562,-2,-1,0,0,2,0,-3,-1
1511884886670562,-1,2,-1,-1,-1,-2,-1,-1
1511884886687563,-1,-3,2,-2,0,-2,1,2
1511884886687563,0,-2,-1,2,-1,-1,-1,0
1511884886688573,-2,1,1,-3,-1,-2,-3,-3
1511884886688573,-2,0,-2,-5,-2,2,-3,0
1511884886693633,-5,-3,-1,-4,1,4,-2,-1
1511884886693633,-2,-2,2,5,-3,-1,-6,-5
1511884886716823,-1,-3,-5,-7,-5,1,-1,2
1511884886716823,1,2,-1,7,4,-1,0,-1
1511884886716823,1,4,1,-4,-3,-1,-4,0
1511884886716823,-1,-3,0,4,0,-3,3,3
1511884886730769,-1,0,-6,-11,-7,-1,-3,-4
1511884886730769,1,-2,5,2,7,1,2,0
1511884886738754,1,-2,-1,8,2,-3,-1,-3
1511884886738754,-2,1,4,6,7,1,0,1
1511884886746814,1,0,-4,-7,-11,-4,1,2
1511884886746814,0,1,-3,-11,-5,3,-4,0
1511884886752918,6,3,-2,-1,3,-1,6,4
1511884886752918,-5,-2,2,4,1,2,4,-8
1511884886767911,0,1,3,9,3,0,0,10
1511884886767911,-2,0,-1,1,4,-1,-3,-3
1511884886776041,-4,-3,-2,-1,-5,-2,-8,-6
1511884886776041,-5,-1,-4,-5,-3,1,-3,-7
1511884886791087,-2,-2,0,8,18,4,-3,1
1511884886791087,-5,-1,-1,3,10,-1,-5,-7
1511884886797990,3,-2,7,7,-9,1,-1,3
1511884886797990,-2,-3,-4,-8,-16,0,-2,-6
1511884886814029,1,2,-7,-19,-2,-3,5,-2
1511884886814029,2,-2,4,7,14,2,6,3
1511884886815033,-2,2,-1,-7,-10,-5,-10,-3
1511884886815033,-1,-6,-7,1,16,0,0,2
1511884886828183,-5,-1,3,20,1,-2,-3,-8
1511884886828183,3,0,-3,-19,-19,0,2,1
1511884886836111,-6,1,-4,-16,1,-4,-1,-4
1511884886836111,2,1,4,15,12,2,0,1
1511884886859148,-2,-5,-2,-7,-16,-5,1,-4
1511884886859148,-4,-6,-6,5,-14,-1,-10,-3
1511884886860155,2,-4,-5,-3,2,11,3,6
1511884886860155,5,4,8,-4,11,-3,0,7
1511884886875228,0,1,4,8,3,0,-1,-2
1511884886875228,3,-2,9,17,9,-4,5,1
1511884886876206,-5,-9,-18,-29,-16,1,9,-3
1511884886876206,0,-5,-22,-21,-8,7,1,-1
1511884886898276,2,7,11,-9,0,1,-4,-3
1511884886898276,-3,-4,-6,-15,-14,-4,0,3
1511884886898276,3,4,13,-20,5,1,-9,-3
1511884886898276,-1,4,-1,19,-9,0,-7,-1
1511884886912383,6,-9,-7,29,-5,1,-7,2
1511884886912383,-4,3,-4,36,9,-3,-9,0
1511884886918450,0,1,5,34,18,-1,-5,-9
1511884886918450,-9,1,-8,-14,-17,-3,-18,-5
1511884886933484,-2,3,7,-2,-10,2,-15,-3
1511884886933484,-3,2,8,-18,-10,-1,-51,-7
1511884886934443,-6,-2,-1,1,1,3,-28,-3
1511884886934443,4,7,13,-2,11,0,11,3
1511884886948479,-2,-1,1,-2,-5,-1,26,5
1511884886948479,4,-6,5,3,14,1,82,5
1511884886955665,3,-10,2,2,-3,4,16,-2
1511884886955665,4,-6,-5,-3,1,0,1,9
1511884886970721,-2,1,0,-13,-4,-1,-1,2
1511884886970721,-2,-9,-12,-60,-36,3,20,1
1511884886978560,1,20,0,4,7,0,-1,8
1511884886978560,-5,9,8,14,6,-1,7,0
1511884887001863,-9,-3,1,16,32,-15,5,3
1511884887001863,0,8,-2,8,15,-3,-11,1
1511884887002790,-1,-21,-12,4,5,-9,-6,-1
1511884887002790,-1,9,-3,-5,-1,0,-13,-5
1511884887008764,3,-5,-3,-5,-14,2,-8,6
1511884887008764,1,5,-3,7,-9,-9,-10,-1
1511884887023969,7,-16,6,7,-10,-8,10,4
1511884887023969,26,3,1,-4,-15,-27,7,-7
1511884887030959,20,11,-5,-9,-1,-17,4,-8
1511884887030959,13,34,-1,-1,-1,-7,21,17
1511884887037885,0,47,-5,2,-3,7,12,-6
1511884887037885,-11,-11,-7,-10,-5,18,6,6
1511884887054104,-6,-23,-1,-2,2,27,18,-5
1511884887054104,-1,-12,1,7,10,40,6,-1
1511884887054990,-5,24,-1,2,-3,42,6,-1
1511884887054990,1,33,-1,-6,-5,-5,4,5
1511884887068159,-5,-5,0,-1,8,-33,5,-5
1511884887068159,-19,-11,-4,6,-3,-40,-13,-2
1511884887076218,-17,-41,3,0,1,-25,2,-1
1511884887076218,-8,-67,0,-5,-2,-1,-1,-3
1511884887091191,2,-29,2,0,0,6,-17,6
1511884887091191,1,-25,3,2,6,5,-18,-11
1511884887098229,12,-5,-4,-10,-5,-2,-4,0
1511884887098229,-1,13,2,4,3,7,-3,-6
1511884887114337,-4,19,-1,-9,-5,7,-21,-4
1511884887114337,-2,14,-3,2,-1,17,-11,6
1511884887114337,1,13,0,2,3,19,-19,15
1511884887114337,-5,6,-1,2,1,27,2,-6
1511884887136290,3,11,-4,-2,-1,-10,-6,-22
1511884887136290,15,17,-1,-2,-7,-31,-22,-13
1511884887137292,-13,-11,2,4,0,-37,-16,-16
1511884887137292,1,-2,-9,-5,-4,-16,-15,7
1511884887150340,-20,15,0,1,6,14,-7,4
1511884887150340,-5,-4,0,-4,-4,9,15,10
1511884887166370,9,-4,2,2,4,7,18,-12
1511884887166370,6,-5,4,-2,-4,-2,-4,-16
1511884887174416,0,-1,-2,1,3,8,9,-8
1511884887174416,11,-1,-2,2,-1,-1,13,4
1511884887174416,4,-4,-1,0,-2,1,6,15
1511884887174416,-4,3,0,0,0,-3,2,2
1511884887188426,2,1,-1,-1,-2,5,5,12
1511884887188426,-4,-6,-1,1,3,3,5,1
1511884887195866,4,-4,-2,-1,-1,-5,6,8
1511884887195866,-2,1,0,0,0,-9,3,-3
1511884887210729,1,-1,4,3,-4,-1,5,7
1511884887210729,-5,-3,-4,-8,4,4,0,-5
1511884887218011,-4,3,-2,2,-2,0,2,7
1511884887218011,-1,1,-1,-1,2,-2,6,12
1511884887233931,-1,-1,-3,1,0,-1,2,-26
1511884887233931,-8,-2,4,8,7,-1,-15,-29
1511884887234935,-1,-3,-9,-9,-7,-3,-7,-10
1511884887234935,-3,1,0,1,0,-1,-4,2
1511884887248152,5,2,1,2,-1,-2,-4,12
1511884887248152,-5,-4,3,3,1,-3,8,-7
1511884887256135,-3,6,8,-1,0,1,13,5
1511884887256135,0,0,-11,-4,-4,1,6,1
1511884887271194,3,3,4,0,-1,0,-9,7
1511884887271194,-1,-11,-6,-1,-4,-3,-30,4
1511884887278229,-1,5,5,3,2,-3,-16,-6
1511884887278229,-8,-3,1,-4,-2,0,-4,0
1511884887294232,-3,-2,-2,-3,-1,0,0,3
1511884887294232,0,4,0,-3,-4,3,4,7
1511884887294232,-2,-3,-5,1,-1,-1,-3,-8
1511884887294232,0,-1,-1,0,2,0,1,-1
1511884887308311,1,2,0,1,2,3,6,1
1511884887308311,2,0,2,0,-3,3,6,3
1511884887315289,0,-5,-3,-1,0,-2,5,-1
1511884887315289,2,-1,-2,2,-1,-1,1,-4
1511884887330329,-1,-3,-3,-2,1,1,2,-1
1511884887330329,-1,1,4,0,1,2,1,-2
1511884887338359,3,2,1,0,-2,1,7,4
1511884887338359,2,-1,3,-1,1,-2,-7,-2
1511884887353391,-1,3,-3,-6,-6,-6,-1,-5
1511884887353391,-2,-2,-4,-6,-5,1,1,7
1511884887354404,0,-2,2,0,2,0,-5,-7
1511884887354404,0,-3,3,1,1,0,-2,5
1511884887368431,0,3,3,8,7,-3,-2,1
1511884887368431,-1,-7,-8,-15,-14,-1,3,-6
1511884887375449,6,3,8,0,0,1,2,8
1511884887375449,4,-9,-16,2,-1,-1,-2,-1
1511884887390662,0,1,2,4,3,1,-5,-1
1511884887390662,-12,4,-5,0,0,-3,-3,-3
1511884887398511,-4,-4,-5,-4,-1,-2,1,0
1511884887398511,1,3,9,8,0,-4,2,-2
1511884887413701,0,-2,-1,-7,-4,0,5,0
1511884887413701,-2,-3,-8,-2,0,-1,5,0
1511884887414682,1,-1,-5,-6,-6,-2,-30,-4
1511884887414682,-5,5,6,-10,-12,-3,-13,-8
1511884887429724,4,-4,-6,0,22,1,-2,8
1511884887429724,-1,6,12,22,-4,-4,-28,-4
1511884887435778,1,-7,-13,-30,-4,3,17,9
1511884887435778,6,2,42,31,25,-1,13,4
1511884887450821,3,0,14,-5,-1,-1,8,-4
1511884887450821,-3,-15,-2,8,35,0,19,-3
1511884887458799,0,5,-12,2,-28,1,15,-3
1511884887458799,1,5,-30,5,2,-2,18,-1
1511884887473880,5,-3,-21,-6,-21,4,14,5
1511884887473880,3,3,-9,-8,0,0,-10,-4
1511884887474839,-12,-3,-8,7,10,3,-11,-6
1511884887474839,-1,-4,-5,-30,-24,-11,-46,-1
1511884887489996,-5,3,6,0,9,-1,-29,-7
1511884887489996,1,12,12,6,-5,3,-10,4
1511884887495989,0,4,15,25,14,-5,-6,1
1511884887495989,-3,4,7,-5,9,3,18,1
1511884887511029,-4,0,-2,1,-22,-9,-23,-2
1511884887511029,0,-4,-3,-27,-18,1,0,4
1511884887518226,-5,-14,1,5,19,1,11,-2
1511884887518226,-5,5,-2,1,2,6,7,-2
1511884887533331,3,-7,1,4,1,-6,18,5
1511884887533331,3,-9,0,-1,2,3,20,6
1511884887541310,3,2,3,1,-7,-6,-4,1
1511884887541310,3,-1,-8,-6,-8,0,-9,-6
1511884887549321,-13,3,-2,-2,-4,0,0,6
1511884887549321,3,6,0,4,-1,-5,-11,1
1511884887555341,0,-6,-1,-5,2,-7,-16,5
1511884887555341,-3,-10,-5,-5,-1,13,-12,-4
1511884887571386,-2,-2,-1,6,4,1,1,-4
1511884887571386,-2,8,7,-1,-6,-6,-8,0
1511884887578521,-18,-9,-9,-5,-3,0,9,-2
1511884887578521,8,0,8,12,4,-11,-8,3
1511884887593624,3,-16,-12,-9,-3,3,13,-3
1511884887593624,18,6,6,-1,-1,0,10,9
1511884887600573,6,5,2,3,-5,-1,-6,-2
1511884887600573,-5,5,2,1,0,0,4,-4
1511884887609646,-6,-7,-3,-7,-3,-1,-17,-2
1511884887609646,-1,-6,-6,0,-2,-1,16,9
1511884887615665,1,5,3,8,3,-2,13,0
1511884887615665,-3,-6,-2,1,-3,-2,18,10
1511884887630704,2,2,1,-3,-3,1,-1,0
1511884887630704,-7,2,-3,-6,-4,5,-17,0
1511884887638730,0,0,6,-8,-11,0,-27,-28
1511884887638730,-2,-4,-4,-7,0,3,-22,-24
1511884887653859,1,5,5,10,6,0,-16,-10
1511884887653859,-3,1,1,8,9,0,-4,-7
1511884887660972,-3,-5,-3,-7,-1,-7,-10,12
1511884887660972,0,0,-8,-5,-5,0,15,11
1511884887676030,-4,2,-4,-1,-8,-6,-1,0
1511884887676030,-5,-7,-3,-2,10,-5,5,1
1511884887676918,1,-3,-9,-24,-8,2,20,5
1511884887676918,2,0,7,7,4,5,-10,3
1511884887691087,3,7,2,2,-3,0,10,3
1511884887691087,0,-11,-4,2,12,-10,-24,-7
1511884887697977,0,-2,-5,-2,-6,2,8,-4
