timestamp,emg1,emg2,emg3,emg4,emg5,emg6,emg7,emg8
1511883865138074,-2,-2,0,1,-6,2,-1,-3
1511883865138074,1,-1,1,3,7,0,0,0
1511883865139077,-1,1,-1,1,-8,-4,0,-1
1511883865139077,0,1,-5,-5,6,4,2,-1
1511883865140079,2,0,0,-9,-9,-2,-1,0
1511883865140079,-3,-3,2,-2,25,0,-1,0
1511883865141087,-2,-3,-1,-5,-5,2,-2,-4
1511883865141087,0,-3,-1,-10,-6,0,1,0
1511883865151109,-1,-1,-1,5,1,2,1,-1
1511883865151109,-3,0,-3,-7,-22,-3,-3,1
1511883865160134,2,-2,-3,1,7,-3,2,2
1511883865160134,-2,0,0,7,-2,-1,-3,-1
1511883865168156,1,-1,-5,-7,1,3,2,-2
1511883865168156,0,-3,-2,-1,-3,3,3,-2
1511883865182252,-3,1,2,9,6,-5,-3,1
1511883865182252,-2,1,-1,11,1,2,0,2
1511883865190232,2,1,1,4,-5,-2,-2,-1
1511883865190232,-1,1,-1,1,5,-5,-5,-1
1511883865196794,-1,1,0,0,-8,0,2,-1
1511883865196794,0,-1,1,0,3,0,-2,-3
1511883865211918,0,-2,-1,2,3,2,0,-2
1511883865211918,0,1,-3,-16,-4,-1,-1,0
1511883865219899,-1,-3,-3,-3,3,2,0,-1
1511883865219899,-1,-1,-4,-1,1,0,0,-2
1511883865260006,1,2,1,3,6,-5,-3,-1
1511883865260006,-4,-2,1,0,-5,-2,-2,0
1511883865260006,0,-1,-2,-3,-2,2,1,-1
1511883865260006,0,0,-2,6,-2,0,2,0
1511883865261003,-1,0,1,-1,12,3,2,-1
1511883865261003,0,-3,-4,3,-16,-7,-6,-2
1511883865264014,1,-2,0,3,6,0,-3,-2
1511883865264014,1,3,-1,0,1,-5,-3,2
1511883865271029,-1,-4,-2,-1,2,1,-2,0
1511883865271029,-1,2,0,-3,-15,0,0,2
1511883865279241,0,-1,3,6,6,2,2,-1
1511883865279241,0,1,3,4,-5,3,6,-2
1511883865288102,1,0,-7,-30,-10,-6,-4,3
1511883865288102,0,0,1,-2,5,1,-3,-2
1511883865301925,0,0,0,0,3,4,1,-1
1511883865301925,-2,-2,0,-10,3,-4,-5,0
1511883865308829,-3,-1,-1,7,-9,2,2,1
1511883865308829,1,-2,0,-6,23,0,-1,-4
1511883865315851,0,2,2,-3,-7,-5,-5,-1
1511883865315851,-1,-4,-1,-4,-3,2,3,-2
1511883865331012,0,1,1,3,2,-1,-2,-1
1511883865331012,1,-5,-4,-6,-6,1,3,3
1511883865338911,-3,-1,5,8,-29,-8,-2,-3
1511883865338911,-1,0,-3,-14,1,3,-3,-1
1511883865347938,0,-1,0,11,14,1,-3,-3
1511883865347938,0,-1,2,5,-1,2,3,1
1511883865362023,-1,-1,-2,-1,2,-1,0,1
1511883865362023,-1,1,-1,-1,-1,-6,-5,-3
1511883865369027,-1,1,-1,-4,-26,0,2,0
1511883865369027,-1,-1,-3,-6,8,3,-3,-2
1511883865376009,4,-4,-5,0,24,2,2,1
1511883865376009,0,1,2,-5,-14,-4,-1,1
1511883865391551,1,1,1,-1,8,5,3,0
1511883865391551,-1,-1,0,-8,-1,3,9,-3
1511883865398570,-2,0,2,7,6,-8,-10,0
1511883865398570,-1,-2,2,15,-9,1,0,0
1511883865407633,1,-1,-2,-17,9,1,-4,-4
1511883865407633,-1,4,4,12,-13,5,5,4
1511883865421672,-3,-5,-5,-12,3,2,3,0
1511883865421672,0,2,-3,15,5,0,-1,-2
1511883865428690,-1,1,4,9,-2,-4,-3,0
1511883865428690,0,0,-1,-7,1,1,1,-1
1511883865435709,0,5,-4,-5,-8,-2,-2,-1
1511883865435709,-1,0,3,-5,5,0,-1,1
1511883865450749,-2,2,-1,-12,-9,-2,1,0
1511883865450749,0,-2,-6,-11,1,0,-3,-5
1511883865458771,3,2,0,6,-5,-5,5,3
1511883865458771,0,-1,-1,-3,8,2,-3,-3
1511883865467794,-1,-4,-3,-2,-5,-1,-2,2
1511883865467794,-2,4,3,5,0,-5,-3,2
1511883865481831,-2,-3,0,-3,3,0,-3,-1
1511883865481831,0,-4,-2,-10,-11,2,1,-2
1511883865488868,-3,-8,-9,-2,22,2,-1,-1
1511883865488868,-2,-14,-4,1,18,1,1,-3
1511883865496374,-3,5,-7,-20,-19,-1,-2,-1
1511883865496374,1,4,2,-5,-2,-1,1,5
1511883865511416,5,10,10,7,-3,1,-1,-1
1511883865511416,-4,-4,-1,-7,-4,-3,3,-1
1511883865518434,1,11,-3,-3,6,-3,-9,-6
1511883865518434,-1,-11,1,3,-4,7,11,1
1511883865527459,2,9,-4,-1,3,-3,-1,0
1511883865527459,5,8,6,7,-2,2,5,1
1511883865541497,-7,-24,-9,-5,-5,-10,-8,-1
1511883865541497,-2,-8,-5,8,4,1,0,-1
1511883865548515,-1,0,-4,-10,8,5,-1,-3
1511883865548515,1,10,7,-1,-2,-1,-4,2
1511883865556562,2,16,8,5,-7,6,7,2
1511883865556562,2,10,8,-8,-1,-9,-7,-1
1511883865571576,-22,-71,-48,-25,-7,-3,1,-3
1511883865571576,2,15,-1,4,-3,-5,-6,0
1511883865578621,-4,-5,2,-1,0,-4,-1,0
1511883865578621,4,30,11,4,-4,3,0,1
1511883865587648,-1,-6,10,13,-2,-3,2,2
1511883865587648,6,8,6,-15,-17,2,3,2
1511883865601700,-1,-7,2,0,1,-9,-5,-3
1511883865601700,-10,-36,-18,-4,8,6,4,-3
1511883865608745,10,34,30,13,-14,-9,-5,3
1511883865608745,-15,-38,-30,18,9,-4,-6,-5
1511883865624761,9,35,8,-51,-11,1,7,1
1511883865624761,1,-9,0,1,5,-2,-4,0
1511883865630778,4,14,4,-3,-5,8,12,0
1511883865630778,4,21,23,13,-10,-11,-15,0
1511883865638799,-9,-8,-15,-2,1,4,-3,-4
1511883865638799,-5,-41,-14,2,9,-6,0,1
1511883865647823,0,11,4,7,-18,-6,0,-3
1511883865647823,7,16,4,-8,-4,7,4,1
1511883865661860,-2,-5,-3,8,10,5,3,-2
1511883865661860,4,12,2,-7,-2,-8,-6,0
1511883865668879,1,12,12,16,24,5,-3,-4
1511883865668879,-3,-9,-6,-17,1,-3,-1,-2
1511883865684424,-3,-31,-17,-2,9,3,-3,2
1511883865684424,1,20,11,15,-10,-8,-1,1
1511883865691442,2,13,3,-15,-1,7,3,1
1511883865691442,-2,4,-8,-1,28,-19,-14,-4
1511883865698962,3,7,5,13,-3,9,3,1
1511883865698962,0,-15,-8,-6,-5,0,0,0
1511883865707988,0,6,-7,-18,13,2,-1,0
1511883865707988,-6,-11,-3,-8,-40,-11,-3,-5
1511883865722025,2,6,10,11,-6,4,-1,3
1511883865722025,1,19,6,4,10,1,3,-1
1511883865729044,-9,-14,-10,-7,-9,-1,-5,-3
1511883865729044,6,12,7,1,4,-1,1,3
1511883865744083,-6,-26,-10,12,-1,-2,7,-4
1511883865744083,1,19,4,-4,-9,-3,-11,-5
1511883865751128,-1,-14,-6,-2,-14,-1,6,7
1511883865751128,5,18,9,7,16,7,-3,-1
1511883865759124,-6,-24,-2,3,-4,-6,2,-3
1511883865759124,-4,-12,-8,-21,0,4,3,0
1511883865767145,1,0,0,16,-6,-5,-1,-2
1511883865767145,0,0,-4,-4,2,5,2,3
1511883865782185,2,-11,2,6,-4,-2,-1,1
1511883865782185,-4,-2,-7,-10,13,0,-2,-1
1511883865788706,-1,-5,1,5,-7,-6,-5,-2
1511883865788706,3,8,1,-3,-2,-2,-2,0
1511883865804276,1,17,6,-14,12,1,-2,-2
1511883865804276,-7,-15,-5,3,-16,-1,2,-3
1511883865811267,2,9,8,-8,8,-2,-1,-1
1511883865811267,-5,-6,-15,-31,-5,3,3,-3
1511883865850372,-1,-5,2,8,3,-3,-4,1
1511883865850372,2,10,2,3,3,-2,-1,-5
1511883865853380,-1,-7,-2,19,-19,-5,-13,-2
1511883865853380,-2,-5,3,8,16,7,7,3
1511883865864417,3,-1,0,-19,1,2,-3,-2
1511883865864417,-2,-3,-3,-7,5,5,8,3
1511883865865438,2,-6,0,5,-4,-8,-8,-3
1511883865865438,-5,2,3,9,17,1,1,-5
1511883865872442,1,14,4,12,-28,-6,-4,1
1511883865872442,0,2,-7,7,17,13,7,-2
1511883865874437,0,3,-2,0,5,-8,-5,0
1511883865874437,-3,-18,-3,22,-6,4,2,-1
1511883865886471,-1,6,-3,-8,3,1,1,-2
1511883865886471,4,3,-1,7,-20,-6,-7,-2
1511883865895496,-5,0,-7,5,8,8,9,0
1511883865895496,-2,-3,-3,8,-8,-8,-5,1
1511883865910051,-2,-2,-2,1,2,2,-2,-5
1511883865910051,-1,-8,3,9,-10,0,0,-1
1511883865912057,1,-2,-7,-13,-3,4,4,0
1511883865912057,-4,-11,-3,23,-5,-2,0,-3
1511883865932110,-2,-4,-8,-7,-5,0,-1,0
1511883865932110,4,13,6,4,21,-4,-5,2
1511883865934114,-4,-4,2,13,-18,0,3,0
1511883865934114,1,-2,-6,-3,-12,8,6,2
1511883865946148,-2,-8,-4,11,7,-3,0,1
1511883865946148,-3,-4,-3,-4,16,9,-1,-4
1511883865955172,2,0,6,10,8,-7,-3,2
1511883865955172,2,7,4,-7,9,5,-4,1
1511883865961188,3,7,4,22,11,8,9,3
1511883865961188,1,-2,0,9,-1,-7,-2,0
1511883865970211,4,2,1,-7,4,9,9,-1
1511883865970211,-1,-7,3,15,-10,-18,-10,-2
1511883865984751,1,-1,-2,1,27,2,-3,1
1511883865984751,2,8,9,24,5,5,4,7
1511883865991269,-4,-8,-7,17,-2,1,-3,-2
1511883865991269,2,-3,3,3,13,-4,10,7
1511883865998789,-1,4,9,15,0,-15,-19,-3
1511883865998789,0,5,-1,1,-4,1,1,0
1511883866013831,-1,5,2,-6,8,1,-5,-2
1511883866013831,0,-15,-6,-15,-6,6,5,1
1511883866020849,0,2,-5,-6,-13,2,7,3
1511883866020849,3,8,-1,-13,9,4,0,0
1511883866029873,0,0,5,17,-2,-14,-12,-6
1511883866029873,-1,-2,-4,-8,4,2,-3,0
1511883866059954,-1,6,-1,0,22,8,7,0
1511883866059954,-5,-7,-2,4,-13,-7,-10,-2
1511883866061959,2,-1,-1,-20,-27,-1,6,5
1511883866061959,0,4,-1,-7,1,3,-1,-2
1511883866066972,0,-2,5,3,-4,-3,1,0
1511883866066972,-3,-5,-4,-4,-3,1,3,2
1511883866073991,-2,-4,2,5,9,0,-7,-1
1511883866073991,1,-4,-2,7,-17,-12,-2,-2
1511883866097056,-1,5,0,-4,-17,-1,-3,-1
1511883866097056,-3,-5,-1,-7,4,-4,-4,1
1511883866103637,-1,-6,1,-5,0,4,3,2
1511883866103637,-2,0,-3,-3,3,8,-1,-4
1511883866125699,1,1,3,5,-13,-2,2,2
1511883866125699,4,1,6,5,-10,-7,-3,2
1511883866136731,-3,-3,-6,-12,9,1,-4,-5
1511883866136731,1,1,1,-5,-8,5,4,3
1511883866140737,-4,2,-1,5,9,-3,-2,-2
1511883866140737,-3,-9,-5,-1,-18,-3,-3,-4
1511883866149762,-1,0,-3,5,6,3,5,-1
1511883866149762,-1,4,2,-16,-3,-3,-3,-1
1511883866156782,2,-2,-3,-1,2,1,3,1
1511883866156782,-1,-2,-2,4,0,2,-1,-3
1511883866157787,-2,-3,-3,-5,6,-1,-2,-3
1511883866157787,-3,-3,-7,-9,-5,0,1,-3
1511883866172822,-4,4,0,1,-3,1,-10,-7
1511883866172822,-1,-6,-6,-2,-5,-2,6,0
1511883866173828,-2,0,-9,-59,-1,2,4,-1
1511883866173828,-4,-4,-5,1,-6,-6,-12,-4
1511883866195452,0,-3,0,17,-20,-6,1,-4
1511883866195452,-2,3,-3,-2,-2,-1,-4,-4
1511883866196954,-1,-1,1,46,-10,-5,-1,2
1511883866196954,-3,-9,-6,-1,9,7,-1,-5
1511883866208990,1,-1,-7,7,-14,2,1,-1
1511883866208990,-3,1,-4,-4,7,-4,-5,-3
1511883866216009,1,0,-2,2,-2,4,8,2
1511883866216009,-1,2,-6,-10,-13,-4,-4,-3
1511883866231106,-3,-6,-7,11,3,-2,-2,-6
1511883866231106,-1,-5,-6,-9,-4,4,0,-3
1511883866240073,-2,-4,-8,-9,1,-1,0,1
1511883866240073,2,6,0,13,-5,10,12,1
1511883866255243,-1,2,5,-11,-10,-8,-10,-4
1511883866255243,-1,-1,-5,3,6,0,-3,-1
1511883866257117,0,-2,-7,-8,-4,3,-3,-2
1511883866257117,-5,-2,1,21,0,-5,0,-3
1511883866277220,-1,-2,-6,-16,-1,-5,0,5
1511883866277220,-2,0,-2,6,-5,2,3,-3
1511883866279177,-1,5,2,20,-8,-1,-4,-5
1511883866279177,-5,-22,-12,2,5,4,0,-2
1511883866291295,-2,-2,-3,-6,-10,2,0,-2
1511883866291295,-2,-1,1,8,-5,-2,-1,-2
1511883866300285,0,-2,-2,7,4,2,2,2
1511883866300285,1,4,-1,4,-13,-6,-5,0
1511883866314327,-2,-3,1,7,-1,1,2,-2
1511883866314327,0,-1,-7,-5,7,-3,-10,-4
1511883866321346,0,2,0,-5,-7,3,3,-4
1511883866321346,2,-1,2,14,5,-3,-3,0
1511883866337391,-3,0,-2,-1,9,6,2,-1
1511883866337391,-3,1,-3,-11,-7,-3,4,-1
1511883866339397,0,-5,-2,12,-4,-7,-4,-2
1511883866339397,-1,2,-3,-1,4,2,0,-2
1511883866351457,1,-5,-4,-7,2,15,10,-1
1511883866351457,-1,-3,1,4,-14,-20,-15,-1
1511883866360450,-3,-4,1,13,3,6,3,-3
1511883866360450,-2,0,-8,-14,2,3,1,1
1511883866374513,2,-2,7,9,3,-7,0,6
1511883866374513,1,1,1,1,4,12,15,5
1511883866376493,-1,-2,3,22,-9,-2,-1,3
1511883866376493,1,-1,3,6,-6,1,5,6
1511883866397579,-3,4,5,-8,20,6,3,1
1511883866397579,1,3,0,9,-1,-7,-9,-2
1511883866399585,0,7,1,5,-8,7,11,1
1511883866399585,2,-6,-4,-27,-2,-2,0,-3
1511883866419639,3,3,1,5,-2,-18,-12,1
1511883866419639,0,4,10,13,-2,2,-2,-2
1511883866421645,-1,5,1,-14,14,9,1,-1
1511883866421645,1,-2,6,11,11,-2,-1,1
1511883866434679,1,-1,-3,-23,0,-2,-3,2
1511883866434679,2,-1,6,18,-7,-2,4,5
1511883866440696,-4,-1,2,-5,13,-4,-3,2
1511883866440696,0,0,6,6,12,0,2,0
1511883866457740,-1,-4,-2,6,29,3,1,0
1511883866457740,2,7,10,22,0,3,2,2
1511883866458744,3,1,5,9,16,-6,-6,-1
1511883866458744,-2,1,2,5,-10,-8,-6,-2
1511883866502865,-3,-1,0,-9,1,-2,-1,-2
1511883866502865,-2,-1,-5,-31,6,4,5,3
1511883866505873,0,3,8,12,5,-15,-11,-3
1511883866505873,-3,-4,-1,14,2,-1,-3,0
1511883866508881,1,0,-3,10,-3,8,1,-3
1511883866508881,1,-2,-2,-20,5,0,8,5
1511883866517904,1,0,2,-22,-11,1,0,0
1511883866517904,-1,5,9,13,8,-10,-4,0
1511883866532952,1,1,0,11,-14,8,3,1
1511883866532952,0,-5,-3,-4,-2,-3,-1,-4
1511883866533957,0,-1,-8,18,30,7,-2,-2
1511883866533957,-1,-6,-8,-40,-31,5,6,-1
1511883866546981,-1,-9,-4,-2,-8,2,-2,-4
1511883866546981,-3,0,-11,-28,-5,0,-6,-5
1511883866548987,-2,-4,-5,-12,-14,-6,-1,-2
1511883866548987,-4,-1,-8,1,0,0,-1,-4
1511883866561019,1,3,3,1,-6,-2,-3,-5
1511883866561019,-3,-17,-11,15,1,8,1,-2
1511883866570044,-2,-6,-8,-26,-9,2,-2,0
1511883866570044,1,5,0,2,2,-2,-5,-3
1511883866584079,-4,-3,-4,8,-16,-7,-1,-2
1511883866584079,0,0,2,15,6,-3,-2,1
1511883866585082,0,-10,-7,-16,-25,-8,-8,-3
1511883866585082,0,0,0,-7,-6,1,2,0
1511883866600126,-1,-3,-5,6,12,-3,0,2
1511883866600126,1,3,-3,5,-14,-1,-4,-1
1511883866601643,-6,-7,-8,-4,-9,-4,3,-3
1511883866601643,0,0,2,15,-5,5,8,2
1511883866614166,-3,2,-3,-1,0,-16,-19,-4
1511883866614166,-3,-4,-2,0,-4,2,0,-5
1511883866621184,1,5,3,14,-5,1,2,3
1511883866621184,-4,-17,-19,-16,-4,3,-3,-5
1511883866637227,-1,2,-2,-3,-6,6,9,-1
1511883866637227,0,-2,-2,10,-2,-3,-6,-4
1511883866639232,0,2,-2,-17,0,-1,0,-3
1511883866639232,-1,1,6,26,10,2,1,-3
1511883866660288,0,-6,-4,-13,-11,-3,3,1
1511883866660288,-4,0,-5,-1,4,-3,-8,-8
1511883866661290,-2,-1,0,16,-10,-12,-6,0
1511883866661290,3,6,3,2,2,0,-1,-1
1511883866674326,-4,-13,-10,-16,-6,9,7,-1
1511883866674326,-2,-1,-1,8,-1,-5,-1,1
1511883866681344,0,-4,1,14,10,0,-3,-3
1511883866681344,1,1,-1,-8,-23,-3,-2,2
1511883866697892,-1,3,4,13,4,-2,-2,-1
1511883866697892,-2,-8,-8,-2,-10,7,8,-4
1511883866699394,-2,-4,-4,-6,2,-1,-6,-6
1511883866699394,-4,-1,-1,-3,-1,-6,-6,-2
1511883866719450,1,-1,-2,14,-5,8,7,1
1511883866719450,-1,-5,-4,0,0,-7,-5,-1
1511883866721456,-1,3,-3,-23,-5,2,2,-1
1511883866721456,1,-10,-6,14,10,2,-1,-1
1511883866734490,-2,4,3,11,-4,-6,-4,-2
1511883866734490,-3,2,-5,-8,0,3,-1,-1
1511883866741509,-1,-2,0,3,-1,5,5,1
1511883866741509,-4,4,4,17,11,-3,4,3
1511883866757552,0,-11,-10,-1,-3,-5,-10,-3
1511883866757552,1,10,1,-17,-6,-7,-3,0
1511883866758555,1,-10,-4,-8,1,2,3,6
1511883866758555,-3,3,2,12,5,5,5,-2
1511883866779610,0,-1,1,5,17,-7,-5,2
1511883866779610,-2,-1,-1,-5,3,1,0,0
1511883866781616,-2,0,-1,2,-6,0,0,0
1511883866781616,1,2,6,13,6,4,0,-1
1511883866794654,2,5,-2,-1,1,4,4,0
1511883866794654,-1,1,2,-3,10,-2,0,3
1511883866801171,3,4,1,10,9,4,8,4
1511883866801171,4,-1,6,10,2,-7,-18,0
1511883866817717,2,3,4,4,-10,-6,6,3
1511883866817717,-2,-3,-1,2,7,0,6,3
1511883866818719,-2,2,5,3,-1,-3,-4,-3
1511883866818719,2,3,2,-12,3,3,5,0
1511883866839775,-3,5,8,1,15,-5,-3,1
1511883866839775,0,-5,3,21,-4,-12,-11,-2
1511883866841781,1,0,-3,-9,2,1,0,1
1511883866841781,-3,0,2,-10,4,0,-5,-4
1511883866853812,0,0,3,-7,10,8,11,3
1511883866853812,1,-1,2,-8,-23,-3,1,2
1511883866860831,-1,4,5,33,5,-2,-5,-2
1511883866860831,-4,2,-8,-17,-4,-3,2,0
1511883866877877,-4,0,-3,-22,-6,-2,-2,1
1511883866877877,2,-4,6,-4,2,-2,-2,-1
1511883866878880,1,4,5,-2,-4,-3,3,1
1511883866878880,-2,-1,-5,-8,0,5,11,2
1511883866899950,1,0,-1,11,-1,-5,-11,-3
1511883866899950,1,2,-2,-1,2,1,-3,-1
1511883866901942,-3,-2,-5,-20,-9,-1,-1,-3
1511883866901942,0,-4,0,-2,3,-3,-1,4
1511883866913589,-2,0,2,2,-17,-8,-6,-7
1511883866913589,0,-2,0,-11,-1,-3,0,0
1511883866922579,0,2,0,8,14,-1,-6,-3
1511883866922579,-2,-9,-5,-5,-26,-1,1,0
1511883866937620,1,4,1,-12,-6,-3,-1,2
1511883866937620,-1,-1,0,-27,3,3,4,2
1511883866938623,-2,-5,1,-1,-16,-9,-9,0
1511883866938623,2,5,6,-11,22,-1,-2,-2
1511883866959679,-1,-13,-6,-7,-1,5,8,4
1511883866959679,3,8,7,23,4,-1,-1,1
1511883866961684,-2,-1,-4,13,-1,-1,-1,-3
1511883866961684,1,5,3,16,2,-3,-2,-2
1511883866973715,1,-2,-2,-3,10,2,1,-4
1511883866973715,-4,-4,-1,-1,6,0,-2,0
1511883866982740,0,4,3,-9,-17,-7,1,3
1511883866982740,-1,11,2,-9,-6,-1,-2,2
1511883866997783,-3,-8,-1,-16,-2,-1,-2,-2
1511883866997783,-1,-1,-4,4,-7,-4,-4,-4
1511883866999286,1,-2,-5,-7,12,10,11,3
1511883866999286,-3,-5,-1,3,-3,-14,-12,-3
1511883867012331,4,6,2,11,-8,2,-2,2
1511883867012331,-1,-1,-2,25,32,5,0,0
1511883867014336,-2,-4,2,0,0,6,0,-1
1511883867014336,3,3,1,22,-1,8,10,2
1511883867026368,-1,6,7,29,9,-14,-13,-2
1511883867026368,-3,0,-1,0,0,9,9,1
1511883867033388,-1,-1,-3,17,1,-7,-3,-1
1511883867033388,0,-4,-8,-21,20,6,6,-1
1511883867049430,0,6,-4,-47,-4,4,3,0
1511883867049430,-1,-2,0,-18,-12,-10,-8,-3
1511883867056449,1,-2,-2,-37,-3,-1,0,0
1511883867056449,-2,-3,-4,-23,0,-4,-4,-2
1511883867072491,0,-4,2,8,-21,9,5,0
1511883867072491,2,3,4,40,-6,-5,-5,2
1511883867074497,0,-1,2,-7,5,4,1,-3
1511883867074497,0,-2,0,4,-3,-8,0,2
1511883867087034,-3,0,2,14,-9,-5,-3,-4
1511883867087034,-3,-4,-6,-12,-10,4,5,-1
1511883867094052,0,1,1,15,10,0,-1,0
1511883867094052,1,-1,-1,-4,-14,1,-1,-1
1511883867109649,3,9,6,9,10,1,3,0
1511883867109649,-1,-4,-3,-19,-8,-3,1,0
1511883867115668,-1,-4,-3,-8,0,0,-2,-4
1511883867115668,-2,-3,-1,-8,-10,1,2,2
1511883867132712,-1,3,1,12,9,-9,-10,-3
1511883867132712,1,-1,5,-8,-1,2,5,2
1511883867133714,1,2,-2,7,-4,1,3,1
1511883867133714,0,0,4,11,-1,-8,-10,-2
1511883867145746,-2,-1,2,8,9,8,6,3
1511883867145746,-1,6,-2,3,7,7,2,-1
1511883867154769,-1,-7,1,13,3,-12,-9,2
1511883867154769,-3,-1,0,-2,-8,-1,-1,-4
1511883867169809,0,-5,-9,-20,7,7,4,-1
1511883867169809,0,2,3,1,3,-5,-9,-2
1511883867175904,1,-4,-3,-4,-1,0,2,-1
1511883867175904,-1,-4,-2,-6,9,-1,-3,0
1511883867192966,-4,-1,-2,1,13,1,0,1
1511883867192966,-1,-2,-1,-8,7,8,7,-1
1511883867194459,-1,3,-1,-3,-4,2,0,-2
1511883867194459,2,2,2,20,-1,-2,-5,0
1511883867205704,-1,-2,-4,-12,25,1,2,-3
1511883867205704,0,0,-3,-1,5,3,0,-1
1511883867215660,-3,-3,1,-14,10,7,4,0
1511883867215660,3,3,1,2,2,-10,-3,1
1511883867229892,-3,-2,-5,1,-9,6,2,0
1511883867229892,-1,-3,0,-4,-11,-6,-4,-2
1511883867236775,3,7,5,3,24,0,0,0
1511883867236775,0,-5,-4,-26,-14,6,1,-3
1511883867252871,0,-1,1,4,6,-6,-1,-5
1511883867252871,0,2,2,-3,12,-1,-1,2
1511883867253819,-3,1,0,6,-7,1,0,-3
1511883867253819,0,9,4,0,7,-1,-1,3
1511883867265840,-3,-13,-8,-10,-18,-4,0,2
1511883867265840,1,3,1,2,-2,6,3,-3
1511883867274816,2,-16,-1,2,-2,-9,-6,0
1511883867274816,-2,2,0,21,6,2,-1,-3
1511883867311654,1,3,1,-2,-27,-3,1,-1
1511883867311654,-3,-2,-1,-1,4,-3,-1,-2
1511883867321653,0,5,3,-3,-23,-6,-6,-1
1511883867321653,-3,-8,-3,17,12,6,3,1
1511883867334770,-1,-1,-2,-7,-2,-1,2,1
1511883867334770,2,-5,2,3,-13,-6,0,1
1511883867336693,-2,8,0,-6,12,1,-2,-1
1511883867336693,-1,-4,-6,2,-11,0,1,2
1511883867348829,-1,4,6,9,9,-3,-9,-2
1511883867348829,0,-2,0,-8,-4,3,6,0
1511883867357753,0,-3,-2,20,-13,-2,-3,-1
1511883867357753,0,-5,-9,-19,-8,-1,-4,3
1511883867372792,-1,-4,-3,0,-4,1,0,-1
1511883867372792,-3,-1,-6,-5,-13,-5,-4,-4
1511883867373797,-2,-2,-5,5,20,5,1,-3
1511883867373797,-2,2,-3,-2,0,-2,-1,-2
1511883867387370,0,0,-4,4,-15,4,2,-2
1511883867387370,-2,-2,-4,3,4,-6,-6,-3
1511883867393881,0,-4,-4,2,-23,1,5,-3
1511883867393881,1,-1,-2,4,-1,-1,-3,-5
1511883867401401,-2,5,1,-3,-2,-2,-3,-2
1511883867401401,-2,-6,-10,26,17,10,3,-2
1511883867409925,-5,-1,-2,5,-17,-9,-5,-3
1511883867409925,-1,-2,-3,1,8,1,0,1
1511883867423963,-2,-2,0,5,-9,-6,-5,-2
1511883867423963,-2,-2,-3,4,-16,-4,-3,-3
1511883867424966,-1,-2,-8,-8,3,3,5,1
1511883867424966,-1,0,2,19,7,-1,-3,-3
1511883867440006,3,0,-5,6,10,0,-6,-3
1511883867440006,0,0,1,1,-20,-5,-2,4
1511883867442011,-5,-4,-9,-6,10,7,0,0
1511883867442011,-5,-1,-4,-5,-6,1,1,-6
1511883867462094,0,-5,-2,8,-6,-1,0,1
1511883867462094,-2,-2,3,-1,-2,-2,1,-3
1511883867464070,-2,1,-4,-7,5,0,-2,-1
1511883867464070,-2,-1,3,-1,-11,0,4,1
1511883867477105,1,-6,-4,-3,-6,3,6,3
1511883867477105,1,5,2,3,26,6,1,2
1511883867483121,1,-5,5,17,-26,-3,2,3
1511883867483121,-1,7,-1,-14,1,0,-2,-3
1511883867500169,-1,-2,5,10,17,2,1,0
1511883867500169,1,3,4,9,-18,-2,1,2
1511883867501672,1,-6,-2,4,15,-3,1,4
1511883867501672,0,-1,9,26,21,7,-1,-4
1511883867522788,0,2,2,30,15,6,5,0
1511883867522788,2,7,-3,-32,2,-2,-3,-1
1511883867523790,-3,-9,2,-12,4,-2,-2,-1
1511883867523790,-1,-2,2,2,-13,-10,-3,2
1511883867535822,-1,2,2,11,6,-2,-1,1
1511883867535822,-1,1,-2,-7,8,10,10,2
1511883867544845,1,6,7,15,21,-2,-5,3
1511883867544845,2,1,-4,-1,14,-6,-4,3
1511883867559885,-4,-2,2,-22,-10,0,1,4
1511883867559885,2,-5,2,-1,7,-5,-6,2
1511883867561890,-1,6,6,22,-16,0,3,3
1511883867561890,0,2,0,-12,13,-2,2,3
1511883867581945,3,4,1,-13,7,-2,-1,2
1511883867581945,-2,-2,2,11,3,-2,0,-1
1511883867583964,0,4,7,8,14,-3,-5,-1
1511883867583964,0,4,5,2,0,-4,-4,0
1511883867596487,-4,-2,3,-5,-5,-6,-4,1
1511883867596487,-3,-2,3,2,-9,-7,-2,0
1511883867605513,2,9,3,3,9,-2,-2,0
1511883867605513,-1,-4,3,3,-10,-3,1,0
1511883867619549,3,7,4,-14,-8,-1,0,-3
1511883867619549,-2,-8,2,36,9,0,-1,-1
1511883867621554,2,-2,1,3,-9,-2,-2,1
1511883867621554,-3,-2,-2,-17,-8,3,1,-1
1511883867642611,-3,1,0,-13,3,0,-1,-1
1511883867642611,2,2,7,-6,-6,1,0,0
1511883867643613,-5,0,-2,-5,0,-1,-2,-3
1511883867643613,0,0,-3,-10,-5,-7,-5,3
1511883867655645,-10,-1,-1,-7,13,1,0,-1
1511883867655645,1,3,0,-18,-15,-1,-1,-2
1511883867664669,23,3,4,1,8,6,4,-1
1511883867664669,15,-6,-3,-5,-6,-5,-2,-2
1511883867679710,12,3,-1,2,-8,-6,-2,2
1511883867679710,5,-9,-2,-7,2,1,-2,2
1511883867681715,-9,0,2,-6,-14,-2,1,-2
1511883867681715,-12,-1,-1,-3,-1,-1,1,-4
1511883867702775,-10,-3,-1,11,-22,-2,-1,-2
1511883867702775,-12,-2,-6,-23,18,-1,-5,-2
1511883867703778,-6,1,2,-18,5,-3,2,-2
1511883867703778,-10,-7,-4,2,6,6,2,-5
1511883867715810,-1,4,6,13,-6,1,0,-5
1511883867715810,0,0,-3,14,-10,-2,2,-1
1511883867724835,-2,1,-7,-6,11,0,-2,-1
1511883867724835,-3,-7,-4,-5,-2,2,0,-2
1511883867739875,1,-1,0,-8,4,-1,2,-1
1511883867739875,-1,7,1,7,6,1,1,0
1511883867741880,-3,0,-5,3,-11,1,0,-2
1511883867741880,1,-1,2,21,-10,-4,3,4
1511883867762936,1,1,-3,-10,-2,-4,-7,1
1511883867762936,0,-1,1,-12,-3,-1,5,-1
1511883867763943,-41,4,0,-13,-3,-1,1,1
1511883867763943,-10,-1,-4,-20,-3,1,3,-4
1511883867768952,0,-9,5,22,7,-8,-12,-1
1511883867768952,48,4,-3,20,-3,1,1,1
1511883867775970,47,2,1,-5,11,2,1,4
1511883867775970,43,4,5,7,2,4,5,5
1511883867792517,13,-3,0,-5,-37,-5,3,3
1511883867792517,-26,-1,4,-9,16,-4,-3,-1
1511883867794523,-18,-5,-4,-8,-16,-2,1,-2
1511883867794523,-27,3,2,0,9,0,2,-4
1511883867805602,-20,-2,-2,0,7,4,2,-5
1511883867805602,-14,2,-4,2,-4,-5,-5,-5
1511883867814626,-3,-1,-5,-18,-17,-5,-3,-3
1511883867814626,-5,-2,1,-2,-1,4,3,0
1511883867829666,2,4,-3,-10,12,-9,-8,-3
1511883867829666,-2,-3,1,-7,-7,-2,-1,-1
1511883867835683,1,-4,1,4,6,-3,-3,1
1511883867835683,-2,-3,3,1,-4,-1,-3,-3
1511883867851725,4,4,-10,-7,6,9,8,2
1511883867851725,-2,0,1,7,-12,0,1,0
1511883867858744,4,-2,-3,2,6,-6,-8,-1
1511883867858744,1,4,4,9,-1,0,2,1
1511883867865762,-24,-1,-6,-9,-4,-3,-2,0
1511883867865762,-40,-4,-2,-5,5,4,2,0
1511883867874786,-23,12,8,-10,-8,-2,1,-2
1511883867874786,27,-41,-19,-40,-26,-7,-2,6
1511883867889827,75,15,6,-5,-5,-1,0,8
1511883867889827,79,8,0,13,2,-3,-1,5
1511883867896345,49,-4,3,11,9,-3,2,1
1511883867896345,-4,10,7,-2,5,-7,-11,-2
1511883867911397,-39,-10,-1,9,-2,1,2,-5
1511883867911397,-44,-8,-5,-20,-2,0,1,-4
1511883867918416,-32,-2,1,-2,0,3,-2,-7
1511883867918416,-22,3,-3,-5,1,0,-1,-6
1511883867934460,-17,-3,2,5,11,4,2,-3
1511883867934460,-13,6,5,7,8,-1,-1,-3
1511883867936478,-2,-4,-5,-12,-5,0,0,0
1511883867936478,-2,9,5,14,14,3,-2,3
1511883867949499,-2,-5,0,6,9,-2,-3,-1
1511883867949499,5,-1,1,-4,-2,0,2,1
1511883867956518,4,-8,-2,13,6,0,0,-1
1511883867956518,1,5,1,8,4,2,2,1
1511883867971558,2,2,1,-11,-24,0,3,-1
1511883867971558,10,2,-7,-9,28,1,-5,-3
1511883867978577,2,-1,-3,-1,0,0,-1,0
1511883867978577,-2,2,-4,9,8,19,18,1
1511883867995124,0,4,4,6,4,-32,-34,-6
1511883867995124,0,-23,-4,14,16,11,7,1
1511883867996628,1,18,2,-5,1,1,5,2
1511883867996628,-3,7,1,-2,3,3,3,-1
1511883868009678,-3,3,0,1,-1,5,6,0
1511883868009678,-3,-2,5,-4,-17,-8,-3,0
1511883868015694,-2,-9,0,0,4,1,-6,-2
1511883868015694,0,-1,-2,3,-3,-4,0,-1
1511883868031737,3,6,4,-4,-21,1,4,1
1511883868031737,-5,-5,-1,-19,-10,-8,-6,-2
1511883868038756,1,-2,1,2,-6,2,3,1
1511883868038756,1,5,0,24,5,-5,-1,0
1511883868054799,-1,-7,-1,4,3,0,-1,-3
1511883868054799,1,4,2,-6,1,-4,-3,0
1511883868056804,0,-3,2,21,2,2,1,0
1511883868056804,0,-1,4,-10,-6,-7,-9,2
1511883868068836,-1,6,-1,-11,8,10,11,2
1511883868068836,-2,-4,2,17,-4,-1,-3,-3
1511883868075854,0,-2,-3,-11,4,-3,-2,-1
1511883868075854,1,13,6,5,4,-2,-6,-3
1511883868091898,-2,-8,-4,-5,22,8,7,1
1511883868091898,-2,9,-2,-2,-1,2,-1,0
1511883868098917,0,-1,-1,-18,-13,-6,-3,-2
1511883868098917,2,-5,-5,-22,6,1,-4,-2
1511883868115015,-2,3,5,12,-17,1,1,1
1511883868115015,-3,-3,-6,7,17,-6,-8,-2
1511883868117021,-3,-5,-3,-10,-17,-4,-2,-1
1511883868117021,2,-3,-5,-3,-1,2,2,1
1511883868129057,1,1,1,2,-9,1,0,-2
1511883868129057,-1,-6,-2,13,-1,0,-1,2
1511883868138079,3,3,-1,1,-2,0,1,1
1511883868138079,-3,-6,-2,-4,4,-3,-3,-2
1511883868152245,-5,-3,-3,5,19,6,-3,0
1511883868152245,1,5,-5,-21,-40,-7,5,4
1511883868159143,-3,-3,-1,11,5,3,1,-3
1511883868159143,-1,1,-1,-9,-13,-8,-5,-1
1511883868175203,2,-10,-2,-5,9,-1,1,-1
1511883868175203,0,10,-4,-23,-9,-1,-2,-4
1511883868176290,-3,-12,-2,17,-3,-5,-2,-1
1511883868176290,-2,-2,-2,13,8,8,6,3
1511883868188805,0,-2,-3,-10,0,-3,-1,1
1511883868188805,3,6,5,6,6,4,1,-1
1511883868197780,0,-1,-2,-9,3,-3,0,0
1511883868197780,0,9,6,-23,-4,-2,-4,-1
1511883868212043,1,-6,-8,3,16,2,1,-1
1511883868212043,-2,-3,-4,-2,-15,-2,3,-1
1511883868219122,0,4,-1,5,-4,-2,-3,-2
1511883868219122,-2,-3,7,12,-6,-3,-1,-1
1511883868235247,2,3,-4,-12,4,6,4,-4
1511883868235247,0,-1,4,12,-2,-5,-1,3
1511883868237057,-3,-1,4,11,12,-6,-5,-4
1511883868237057,-2,-5,-1,-16,-32,-3,-4,-4
1511883868249113,-1,0,-4,5,11,3,5,0
1511883868249113,1,0,8,3,5,0,1,2
1511883868257113,1,3,-5,-11,7,5,1,-1
1511883868257113,-1,-1,-5,-9,4,-8,-1,1
1511883868272149,1,-3,2,10,-5,-3,-2,1
1511883868272149,-2,0,-2,-22,-12,-1,-2,-2
1511883868279177,4,0,2,9,8,-2,-1,3
1511883868279177,-1,-4,-9,-27,-12,-4,-2,-3
1511883868294787,-3,0,2,-2,-12,-7,-4,1
1511883868294787,0,2,3,26,18,-1,-2,-1
1511883868295272,-5,2,0,-16,-3,1,0,-5
1511883868295272,0,-4,-10,-4,0,2,3,1
1511883868317014,1,0,9,1,4,1,-3,0
1511883868317014,-3,-2,1,-1,-6,-1,0,-2
1511883868318015,1,-2,-1,-8,-13,1,-2,1
1511883868318015,-1,6,8,28,6,3,3,2
1511883868333064,0,-6,0,13,-13,-5,-3,-2
1511883868333064,-1,-3,-6,-27,3,-1,1,-1
1511883868339076,1,1,-3,-18,-12,0,-1,1
1511883868339076,-1,-5,-3,-5,-4,-3,-2,-1
1511883868354150,-1,3,0,-4,7,1,1,-2
1511883868354150,-1,4,4,7,-6,2,-1,-1
1511883868355119,-4,-11,-5,-5,-5,0,3,-3
1511883868355119,0,12,2,-10,-6,-9,-8,-4
1511883868377171,-3,-6,-2,8,35,5,2,2
1511883868377171,-5,-5,-3,7,14,1,-3,-7
1511883868377171,-2,0,-3,1,1,-3,-3,1
1511883868377171,0,3,0,10,-2,4,4,-4
1511883868392716,-3,-2,-3,-17,-17,-3,4,0
1511883868392716,-2,1,2,1,-2,-5,-4,-3
1511883868398732,3,5,-3,2,5,3,-1,1
1511883868398732,0,-8,-1,3,2,1,-1,-1
1511883868413773,1,1,-2,2,-8,0,1,-2
1511883868413773,2,1,1,6,5,3,2,2
1511883868414777,0,-8,-2,1,-6,0,3,0
1511883868414777,0,1,-2,4,-16,-6,-7,2
1511883868436836,-2,0,-2,9,17,-10,-9,-4
1511883868436836,2,-3,-2,-19,-14,1,0,0
1511883868443854,0,4,0,-26,7,5,6,1
1511883868443854,1,0,4,12,7,3,4,2
1511883868452879,-1,-2,1,2,8,6,5,-1
1511883868452879,-1,5,3,6,-10,-5,-2,4
1511883868458894,-3,-12,-5,-5,-2,-9,-6,-6
1511883868458894,0,-6,-6,-36,9,0,-4,-3
1511883868473958,-2,-1,-12,-49,-38,-9,-4,-2
1511883868473958,1,-4,1,-5,-20,1,8,1
1511883868474937,0,1,3,11,3,-2,-6,-3
1511883868474937,-2,-1,1,-2,-5,9,4,2
1511883868496999,1,-1,3,14,37,-12,-8,0
1511883868496999,-1,-7,-9,-15,-15,1,-2,0
1511883868498002,0,-1,1,2,-3,-2,-1,2
1511883868498002,1,0,2,-1,0,3,4,2
1511883868542121,-3,-6,-1,-21,-5,-4,-1,-2
1511883868542121,2,1,4,15,13,1,3,-1
1511883868544126,1,5,5,33,12,1,1,1
1511883868544126,-3,-2,-1,9,13,14,10,-3
1511883868557159,-1,-2,-5,-25,-6,-19,-17,-1
1511883868557159,-4,-1,-3,3,4,3,2,-2
1511883868559165,1,-2,1,54,6,5,-4,-2
1511883868559165,-2,1,4,14,5,-3,-1,-2
1511883868571198,1,4,3,23,-23,6,3,-1
1511883868571198,1,0,-1,-2,7,1,-4,-4
1511883868580222,2,11,1,-22,7,3,4,4
1511883868580222,0,10,2,4,4,5,10,2
1511883868595265,-2,-13,1,12,-7,-13,-15,-2
1511883868595265,0,0,-4,-4,11,-1,1,0
1511883868596769,-1,0,1,-2,-15,0,7,2
1511883868596769,2,-4,-10,-45,-17,-18,-6,0
1511883868610306,3,-1,5,16,-7,8,6,3
1511883868610306,4,4,3,17,0,0,3,0
1511883868611309,-2,-5,-3,-9,-6,-22,-16,-1
1511883868611309,-4,-1,6,10,0,-3,-4,0
1511883868623342,1,7,10,27,24,21,15,6
1511883868623342,-1,1,6,3,1,-10,-9,3
1511883868632367,-1,4,-3,-19,-12,-1,-4,-2
1511883868632367,0,-1,7,23,13,-2,-4,2
1511883868647405,0,5,2,-2,-8,1,4,0
1511883868647405,1,2,7,5,30,11,8,3
1511883868648407,-2,3,-2,-2,14,1,3,0
1511883868648407,2,-2,1,7,3,-13,-13,0
1511883868661442,2,3,2,-14,-22,7,7,1
1511883868661442,1,-4,2,0,24,-4,2,7
1511883868662444,-1,-1,0,-18,10,-9,-9,-2
1511883868662444,-2,-9,2,-5,-9,-4,2,0
1511883868684504,0,5,3,-2,16,0,-2,1
1511883868684504,0,5,0,3,-1,6,5,0
1511883868685506,1,0,5,9,-5,16,24,9
1511883868685506,2,2,8,7,20,-20,-24,-2
1511883868699045,6,7,5,-1,8,5,6,3
1511883868699045,2,6,3,-7,-12,-6,-2,1
1511883868707160,0,-3,2,-12,3,2,-2,-1
1511883868707160,3,8,8,17,3,7,6,1
1511883868722200,-3,1,-5,-29,1,-4,-1,-1
1511883868722200,2,4,4,-1,-7,-3,-5,-2
1511883868722200,2,1,5,4,17,-4,-5,0
1511883868722200,-1,-2,-3,-31,-11,1,4,-2
1511883868744285,-2,2,4,-9,-3,-6,-7,-3
1511883868744285,-4,-2,4,16,6,5,3,1
1511883868745261,1,1,6,-11,-21,-13,-9,-3
1511883868745261,-1,9,1,-3,6,7,2,0
1511883868758296,3,2,6,25,16,-7,-4,2
1511883868758296,-3,-7,-9,-27,2,2,3,-5
1511883868766343,3,0,0,24,-25,8,6,0
1511883868766343,5,8,4,21,8,-7,-9,2
1511883868781358,0,-2,0,12,-7,-4,-6,-2
1511883868781358,-1,-3,-4,-24,10,0,-3,-3
1511883868782360,0,1,-1,-11,-11,-2,-5,-2
1511883868782360,0,-4,-6,8,0,-3,4,-1
1511883868804448,-5,2,-8,-2,-5,2,-7,-7
1511883868804448,-2,-2,0,-3,-7,-11,2,4
1511883868804924,-5,-6,-2,-6,-3,-15,-20,-7
1511883868804924,0,-3,-4,1,5,4,4,1
1511883868818252,-4,-5,-9,-37,-25,9,6,0
1511883868818252,0,-2,-3,-4,-9,-3,2,1
1511883868826274,-1,-2,0,10,-8,5,8,2
1511883868826274,0,-7,-6,-2,5,5,-1,-2
1511883868841314,-1,-8,0,-12,-6,-9,0,-1
1511883868841314,-2,-3,-2,-6,12,-1,-8,-4
1511883868842316,4,6,-1,6,7,8,7,0
1511883868842316,-4,-11,-5,2,5,12,7,-4
1511883868864375,2,1,2,3,0,-8,-2,-1
1511883868864375,3,5,-3,6,-2,-1,-4,1
1511883868865378,-4,-5,-2,-3,9,-4,-4,-3
1511883868865378,-5,-5,-5,5,7,2,2,-4
1511883868887436,-1,1,-6,-3,4,3,1,-2
1511883868887436,-3,-9,-1,-8,-11,0,5,0
1511883868888446,-3,5,5,12,-4,-14,-15,0
1511883868888446,1,-2,-4,-9,-8,5,2,2
1511883868901978,1,11,2,-4,-7,-5,2,3
1511883868901978,-1,-2,-4,-5,-4,0,-4,-3
1511883868902981,2,-3,-3,-28,22,4,6,-1
1511883868902981,0,-3,1,4,-7,5,4,0
1511883868924114,-2,-6,-7,11,22,-3,-5,-4
1511883868924114,4,7,-2,5,-14,-4,-5,1
1511883868925117,-3,-5,-5,-12,1,1,4,-4
1511883868925117,2,4,3,-14,-3,-7,-9,0
1511883868947177,0,-2,4,10,7,6,2,1
1511883868947177,-2,-7,0,11,6,8,1,-4
1511883868948179,1,-3,1,23,-8,-1,0,-1
1511883868948179,-1,-1,-8,-37,-13,-5,-2,-3
1511883868962216,-2,-4,-1,-18,-10,9,11,-3
1511883868962216,1,-2,1,6,6,-5,-11,-1
1511883868962216,1,2,2,8,2,-9,-3,-1
1511883868962216,0,-2,2,26,-10,-3,1,-1
1511883868984275,2,-1,-1,16,6,5,2,2
1511883868984275,-5,0,-2,-4,-6,2,2,-2
1511883868985278,-2,0,-5,-9,3,6,8,1
1511883868985278,-3,1,6,-11,5,-5,-4,1
1511883869007888,-2,-5,-5,-25,-14,-14,-7,-3
1511883869007888,0,2,9,31,-1,-6,-4,0
1511883869007888,-3,-13,-5,3,-4,3,-1,1
1511883869007888,-1,1,2,24,-7,-3,-1,1
1511883869021925,-2,1,1,5,-10,2,3,-3
1511883869021925,-2,-2,-8,-19,-5,-3,-1,-3
1511883869022928,0,1,-2,-7,2,-5,-6,-1
1511883869022928,1,1,5,-17,9,2,4,1
1511883869043984,-1,-12,0,8,0,-8,-5,3
1511883869043984,3,9,3,2,4,1,2,-1
1511883869044987,-1,1,-1,1,-2,6,3,0
1511883869044987,1,-1,1,14,17,8,8,2
1511883869067045,2,4,0,13,1,-6,-7,-1
1511883869067045,-3,-4,-5,0,1,4,1,-4
1511883869068048,1,-3,-1,-7,0,-4,1,3
1511883869068048,-5,-1,-3,-4,-14,-5,-4,-7
1511883869082085,1,2,1,-1,1,4,6,2
1511883869082085,0,-1,0,2,7,4,2,-1
1511883869082085,-1,2,-4,-26,-13,-16,-9,-3
1511883869082085,-3,-5,-7,-32,-20,-7,-6,-4
1511883869104661,-3,1,-4,-20,10,3,0,0
1511883869104661,-5,-9,-6,-22,-12,-2,-6,-4
1511883869104661,1,-1,-1,-22,2,3,0,-2
1511883869104661,-1,-6,-4,-22,-7,-2,1,0
1511883869127758,-3,3,0,0,-7,-3,-5,-5
1511883869127758,4,-1,-3,-18,0,8,10,-2
1511883869128758,-5,-4,-4,9,-13,-7,-8,0
1511883869128758,-3,-7,-5,21,-11,-4,-6,-9
1511883869141794,-5,-2,2,31,1,7,3,-4
1511883869141794,-2,-2,-6,22,-13,-2,1,-1
1511883869142797,1,-6,-9,22,-14,7,6,1
1511883869142797,1,-1,-4,25,12,-8,-12,-2
1511883869163849,-1,-11,-9,13,-12,1,-3,1
1511883869163849,1,4,-9,-2,-8,5,9,2
1511883869164852,-4,-3,-2,-6,-6,0,5,0
1511883869164852,-4,-9,-7,17,33,1,-5,-5
1511883869178892,3,0,-1,2,-18,-4,0,1
1511883869178892,-5,-3,-4,14,1,-1,-3,-2
1511883869179892,-1,-3,-3,20,7,-1,-5,-5
1511883869179892,-4,2,-3,19,-16,5,3,-2
1511883869193933,0,-2,-4,9,6,-1,1,0
1511883869193933,-1,1,0,23,-3,-2,-3,1
1511883869201454,-3,-11,-11,-9,-3,2,6,1
1511883869201454,-3,-2,-4,7,-21,-8,-2,-1
1511883869217054,3,-9,-4,13,-1,-2,-5,-3
1511883869217054,-4,0,3,25,3,-1,-1,-1
1511883869218028,4,9,6,20,3,9,6,2
1511883869218028,0,1,-3,-19,-21,-20,0,6
1511883869233068,0,5,3,7,1,9,6,-3
1511883869233068,-3,-3,-1,-18,1,-8,-11,-1
1511883869238080,1,-1,-2,-35,-35,-1,-5,-3
1511883869238080,1,10,12,20,23,19,11,-1
1511883869253147,-1,-1,-1,-15,9,-2,-2,-1
1511883869253147,0,-3,2,0,-6,-12,-6,2
1511883869261168,1,4,5,-1,11,3,-2,1
1511883869261168,-5,-4,-8,-20,-15,-7,-11,-6
1511883869277212,4,0,-2,-13,-10,-2,0,3
1511883869277212,1,-1,3,19,12,1,-8,-8
1511883869277212,-2,1,-2,-7,15,5,5,-1
1511883869277212,2,1,2,0,-5,-7,-2,2
1511883869292755,-2,0,2,0,24,12,8,0
1511883869292755,1,-1,-3,-9,23,4,8,2
1511883869298770,-2,5,2,4,1,-4,-4,0
1511883869298770,0,3,-2,1,6,6,4,0
1511883869313310,-2,-2,2,-10,-4,-17,-11,-1
1511883869313310,3,2,0,-25,-6,1,0,-4
1511883869321332,-2,-1,3,22,36,7,2,-2
1511883869321332,2,2,1,-15,8,6,4,2
1511883869337379,2,-1,-8,-28,-2,3,5,1
1511883869337379,0,2,0,-2,-8,-2,-8,-3
1511883869337379,1,-4,-3,-6,-14,-2,11,6
1511883869337379,0,0,1,8,7,-3,-6,-1
1511883869352416,-3,1,-1,-11,-5,-8,-11,-6
1511883869352416,-2,2,-1,-6,-3,-1,3,-1
1511883869358510,-4,2,2,-5,22,4,-3,-2
1511883869358510,1,-4,-2,-9,8,3,5,3
1511883869373474,1,3,-5,13,9,6,8,0
1511883869373474,1,-6,-2,-2,-3,-1,4,7
1511883869381494,-3,-1,-3,-12,-14,-2,2,-3
1511883869381494,1,2,-1,-15,-11,0,-3,-4
1511883869397037,-4,-2,-3,3,22,11,9,-2
1511883869397037,-1,-2,-2,-13,-28,-25,-23,-1
1511883869397539,-4,0,-1,-3,-11,4,0,-3
1511883869397539,-1,-4,-3,-7,-6,2,1,-1
1511883869412611,1,-3,1,6,-11,3,-7,-3
1511883869412611,-1,-2,-1,-12,-9,10,23,7
1511883869418651,-1,-3,4,16,-5,-16,-20,-8
1511883869418651,-2,2,-3,-8,2,-2,2,0
1511883869433666,-1,-1,2,-2,-10,2,-2,-5
1511883869433666,0,2,2,2,3,1,4,2
1511883869440685,1,-10,-9,-5,4,-4,-2,0
1511883869440685,2,3,3,4,-6,3,4,2
1511883869456727,-1,-2,-2,4,-4,-2,-1,3
1511883869456727,0,-2,2,-10,5,5,5,-1
1511883869457730,2,2,-6,6,2,12,18,4
1511883869457730,1,-2,6,12,2,-42,-37,-4
1511883869472769,-3,0,-1,-15,-28,1,2,1
1511883869472769,-2,-3,2,7,18,2,-4,-2
1511883869478786,-4,2,-3,-13,17,9,1,-7
1511883869478786,-1,-2,-3,-7,-13,5,7,4
1511883869493829,-2,-1,3,-2,-15,-14,-7,1
1511883869493829,-4,-1,-6,-21,-25,-2,-2,-2
1511883869501349,1,-5,-3,-15,-7,-2,-1,-1
1511883869501349,0,2,-1,0,3,6,2,-4
1511883869516892,-3,0,-1,1,7,-4,-2,0
1511883869516892,2,2,2,0,5,9,5,-3
1511883869517894,-4,0,-4,-15,10,-16,-11,-1
1511883869517894,0,-1,1,12,11,9,8,1
1511883869532934,-1,-5,-10,-38,-11,-3,-7,-6
1511883869532934,-1,-5,4,12,3,-4,-3,2
1511883869538951,3,4,5,2,-5,1,-5,1
1511883869538951,-2,0,2,3,-16,4,2,-4
1511883869553990,1,1,4,7,18,-4,9,-1
1511883869553990,0,3,-1,6,-9,-7,-18,-7
1511883869561009,0,1,4,10,0,1,-3,-1
1511883869561009,-2,-2,-1,-10,-12,-13,-3,-1
1511883869577078,1,1,2,1,4,7,2,-1
1511883869577078,0,0,-2,-2,5,-4,-4,-2
1511883869578054,-1,-6,4,0,-8,-2,7,4
1511883869578054,4,2,-2,-10,-24,6,2,0
1511883869592606,-3,-2,-1,4,10,-6,-6,0
1511883869592606,0,-2,-5,-1,-6,0,3,-2
1511883869598621,-4,2,3,-9,-18,-6,-7,-5
1511883869598621,1,-5,-10,-22,11,3,1,3
1511883869613884,0,-1,-2,-27,-27,-1,8,3
1511883869613884,-1,7,1,7,6,-2,-5,-4
1511883869620929,-2,-4,-8,-22,-16,2,6,-4
1511883869620929,1,-1,1,4,9,-7,-5,4
1511883869636946,2,9,9,17,14,2,-1,1
1511883869636946,-4,-4,-4,-4,4,6,5,-4
1511883869637949,4,2,0,0,15,-4,-9,-2
1511883869637949,-4,4,-3,-3,1,12,16,-2
1511883869652988,-2,-9,0,23,2,-21,-23,-3
1511883869652988,-1,0,2,2,1,12,9,-1
1511883869659033,1,2,1,7,5,-5,-3,3
1511883869659033,-3,-2,1,17,-12,-5,-7,-4
1511883869674045,-5,-4,-4,-18,14,5,5,-4
1511883869674045,0,-1,-3,-6,6,-4,-4,2
1511883869681063,0,-3,-11,-5,13,12,3,0
1511883869681063,-1,-1,1,-22,1,0,0,1
1511883869696107,-4,-4,-7,-1,-30,-9,-5,-2
1511883869696107,2,1,2,5,12,-3,-3,1
1511883869703627,-1,0,1,-11,-5,2,-2,-2
1511883869703627,0,-2,-2,-3,16,10,9,4
1511883869712151,3,3,3,3,-4,1,2,2
1511883869712151,-3,1,-1,-11,5,-1,1,-4
1511883869718167,-3,-2,3,10,-4,-9,-3,-1
1511883869718167,-2,-3,1,1,-3,5,2,-1
1511883869733206,1,3,2,11,10,2,0,-4
1511883869733206,1,-2,0,11,-14,-2,-1,1
1511883869741227,0,1,-1,-7,-4,-1,3,2
1511883869741227,-3,-1,-1,4,12,1,-4,-1
1511883869756269,-1,-5,-5,-5,8,8,4,-2
1511883869756269,2,3,1,-3,5,-9,-9,0
1511883869763287,0,-1,0,-2,-7,0,-1,-2
1511883869763287,1,1,0,8,3,-2,-1,-3
1511883869772312,-2,-3,-2,-7,-12,-3,-4,1
1511883869772312,0,-5,-6,-17,-6,0,5,1
1511883869778327,0,2,4,21,22,6,8,4
1511883869778327,-1,0,3,1,5,-9,-8,-6
1511883869793873,1,4,5,4,-5,-1,-3,3
1511883869793873,-3,-9,-4,11,-4,-1,3,1
1511883869801392,3,5,2,1,-3,4,4,-2
1511883869801392,1,-3,-5,-16,-2,-2,-1,-3
1511883869816435,1,-3,1,12,14,6,-1,-1
1511883869816435,-1,2,-1,-24,-5,-4,2,3
1511883869823453,-3,-1,-1,0,-15,-8,-8,-5
1511883869823453,-1,-2,2,3,-7,0,3,1
1511883869862557,-2,2,-3,-9,-11,0,0,-5
1511883869862557,0,-1,-3,0,-7,-5,-4,-1
1511883869863560,0,-3,-2,-10,-9,-1,-1,1
1511883869863560,-1,-2,-1,-3,6,7,2,-2
1511883869875592,0,0,-6,-4,7,0,-1,1
1511883869875592,-3,-1,2,-3,-2,-2,-3,-2
1511883869884616,0,-1,0,15,7,1,-2,1
1511883869884616,-2,-5,2,-2,-4,-5,-7,-3
1511883869900159,0,-2,3,1,-17,0,10,3
1511883869900159,-2,3,-3,3,11,4,-1,-2
1511883869901663,-8,-6,-5,1,-13,-4,-3,-4
1511883869901663,-2,-3,-3,-6,-1,-2,-4,-3
1511883869914699,1,1,-4,-4,-2,-2,-1,-4
1511883869914699,0,-2,-2,-7,-9,4,-6,-3
1511883869916705,3,1,1,-3,5,3,2,0
1511883869916705,-2,-2,-5,1,-14,-3,-3,-3
1511883869928736,-3,-6,-7,-14,6,-2,0,-1
1511883869928736,0,-1,-2,-7,-11,-3,-1,-3
1511883869937761,-1,-5,-2,-5,-2,-2,-4,-2
1511883869937761,1,-2,-4,13,6,4,1,-1
1511883869952800,2,2,-1,-4,0,2,-1,0
1511883869952800,-1,0,-4,-2,-2,0,-1,-2
1511883869953802,0,-1,-4,-3,-20,-4,-2,-1
1511883869953802,-4,-8,-8,-20,6,1,2,-5
1511883869965834,0,4,-3,-6,1,-6,-5,-2
1511883869965834,-2,-7,-3,-6,-10,-1,0,-5
1511883869974859,-1,-2,-5,1,-2,-2,2,1
1511883869974859,-2,0,-4,-5,1,-3,-3,-5
1511883869980876,-3,0,-4,14,6,6,4,-1
1511883869980876,-2,1,0,-14,-21,-5,-5,-4
1511883869988897,-1,-1,-2,13,24,6,-1,-7
1511883869988897,2,-4,-5,-3,4,6,2,2
1511883870004454,-2,-4,0,8,-5,-6,-9,-1
1511883870004454,-1,-5,3,18,1,-1,8,2
1511883870005456,0,-2,-7,-24,-14,-2,-1,-2
1511883870005456,-3,2,2,23,-11,0,-4,0
1511883870027525,-2,-4,-9,-1,1,1,-1,-2
1511883870027525,1,-2,-6,-6,4,4,0,-3
1511883870028528,-3,-2,-3,-8,-7,-6,1,0
1511883870028528,0,3,-1,5,0,-6,-7,-4
1511883870041563,-3,-2,1,-8,-10,0,4,-1
1511883870041563,1,-2,-4,5,15,4,3,-1
1511883870049584,-2,-2,-4,1,12,-1,-5,-4
1511883870049584,0,1,-3,-20,5,6,6,0
1511883870064623,-1,-3,1,33,-5,-5,-7,1
1511883870064623,0,6,3,-11,3,-1,-5,-6
1511883870064623,-3,-3,-3,0,-3,4,2,-3
1511883870064623,-1,0,4,21,-6,-5,-2,2
1511883870086682,-1,-2,0,-12,-5,8,-2,-4
1511883870086682,0,-5,-3,-16,-4,-1,0,0
1511883870087685,-1,3,2,19,-11,-4,-5,-2
1511883870087685,-4,-1,0,-5,-7,-1,-3,-1
1511883870101224,1,-1,-2,3,14,1,1,2
1511883870101224,-4,-1,-4,25,2,-1,-1,0
1511883870109248,-4,-6,-3,-4,-8,0,1,-1
1511883870109248,-1,2,-4,-3,-8,-2,-2,-4
1511883870124411,-2,-5,-1,-19,-5,-2,1,-1
1511883870124411,-1,1,-2,25,7,0,-3,0
1511883870125415,7,1,-10,-10,7,2,1,-1
1511883870125415,3,-5,-3,-19,-5,-2,0,1
1511883870147349,-5,-7,-6,15,15,4,4,-1
1511883870147349,-4,1,0,22,-9,0,0,0
1511883870147349,-3,1,1,1,5,2,-1,-2
1511883870147349,-1,0,-4,-16,-2,3,5,5
1511883870161389,0,1,0,-7,-18,-16,-11,2
1511883870161389,-1,0,5,22,-1,0,-1,-1
1511883870169434,2,-4,-4,-9,4,8,7,1
1511883870169434,1,-2,0,-5,4,-4,-2,0
1511883870184564,2,6,9,8,-9,5,3,0
1511883870184564,1,-3,-4,-10,-4,0,2,3
1511883870185450,1,5,4,-8,-2,-5,-3,0
1511883870185450,2,3,2,0,10,2,4,4
1511883870207011,1,3,-1,4,4,4,5,2
1511883870207011,0,1,3,8,7,-2,-3,-1
1511883870207011,0,2,3,24,7,3,1,1
1511883870207011,-3,-2,1,-3,-21,-8,-2,-1
1511883870230308,3,2,4,-10,3,-5,-5,-4
1511883870230308,0,-3,-1,-12,-12,0,4,-2
1511883870231329,-3,-7,-3,12,32,-2,-5,2
1511883870231329,-2,-1,2,11,2,-5,0,0
1511883870244360,0,1,-1,0,-4,2,0,-1
1511883870244360,1,3,2,-12,3,-3,0,0
1511883870245248,-1,2,6,41,20,6,1,1
1511883870245248,-2,3,-1,12,-1,0,-2,-1
1511883870259381,-2,2,1,-1,3,2,2,-1
1511883870259381,-4,-1,0,-12,10,2,2,0
1511883870260289,3,4,1,-18,-7,-6,-5,0
1511883870260289,-1,-4,1,7,5,3,-1,-1
1511883870275333,-1,2,-5,30,-11,3,4,-3
1511883870275333,2,2,-2,2,8,-6,-8,0
1511883870281396,4,1,-4,-9,-1,1,2,-1
1511883870281396,-2,0,4,-9,-15,-2,-1,0
1511883870296435,2,2,1,-35,6,-2,0,3
1511883870296435,-2,3,6,7,-6,-1,1,1
1511883870303955,-2,-4,-2,10,-7,-3,-3,-2
1511883870303955,2,3,-1,22,9,0,5,0
1511883870318987,-6,-5,-3,0,12,-1,-3,-6
1511883870318987,-1,0,-1,8,1,2,4,1
1511883870319986,-2,3,7,-4,-11,-10,-8,-1
1511883870319986,-1,2,1,19,6,2,1,-2
1511883870335028,-4,-3,-7,-3,-4,-18,-14,-4
1511883870335028,-3,-5,-9,-21,12,5,3,-3
1511883870341168,-3,-2,-4,-13,-23,-4,-2,-1
1511883870341168,3,2,-2,-5,0,1,1,2
1511883870356094,-1,-1,3,12,-1,1,2,-1
1511883870356094,0,-4,-1,4,3,-4,-4,-2
1511883870364212,-4,3,-1,-20,-14,-6,-1,-1
1511883870364212,-1,-4,0,-19,-4,-2,-4,-2
1511883870379144,1,3,9,39,8,3,4,2
1511883870379144,-1,-3,-6,-11,11,0,-1,-2
1511883870380146,1,-5,1,-4,-8,4,6,-1
1511883870380146,0,7,-1,1,24,-3,-6,-3
1511883870395217,-5,-18,-7,-1,10,7,3,-1
1511883870395217,0,6,6,-9,-17,1,1,2
1511883870401258,-1,-2,-2,17,26,5,10,1
1511883870401258,-3,-9,-17,-26,-18,-8,-8,-6
1511883870416314,2,4,3,-19,-19,-4,-1,2
1511883870416314,2,-1,-2,-13,-9,-5,-4,0
1511883870423332,1,0,0,-8,-10,2,2,0
1511883870423332,-1,-3,0,-8,-10,-1,1,1
1511883870439375,3,4,-1,-3,5,2,-1,0
1511883870439375,-2,-6,-3,3,-2,0,3,2
1511883870440378,1,3,0,-15,-8,-2,-7,-1
1511883870440378,-1,-3,2,21,6,2,0,0
1511883870455418,2,5,0,-4,13,5,3,-1
1511883870455418,-2,-7,-2,18,14,6,4,0
1511883870461434,4,1,4,5,-20,-11,-5,1
1511883870461434,0,-4,5,1,7,-2,-3,-2
1511883870476473,-1,2,-7,-1,-13,0,4,1
1511883870476473,0,2,0,-16,-6,-2,-2,-3
1511883870483493,-4,-5,-5,-1,8,-5,-5,-4
1511883870483493,-3,7,7,6,7,0,-2,-4
1511883870499538,1,-2,-1,-21,-14,0,0,0
1511883870499538,0,0,1,4,-1,-1,2,1
1511883870500039,-2,-2,2,2,0,-2,0,-1
1511883870500039,1,3,2,6,-1,0,-2,1
1511883870515081,-2,-2,2,8,14,1,-1,-2
1511883870515081,-3,-5,-2,-2,-4,-2,-3,-2
1511883870521096,1,1,-3,-5,4,1,-3,1
1511883870521096,0,0,1,-3,-5,0,1,1
1511883870536136,-2,-3,-1,-18,-4,0,0,-2
1511883870536136,2,6,0,6,1,-3,-3,0
1511883870543154,-4,-3,-1,3,0,-1,1,-1
1511883870543154,1,3,-3,-5,0,2,2,0
1511883870559198,2,2,0,3,-1,-7,-3,-1
1511883870559198,-2,1,3,-2,-6,-4,0,-1
1511883870560201,-2,5,1,9,3,7,3,-2
1511883870560201,-3,-5,-3,2,-3,-4,-4,-2
1511883870575240,-4,-4,-3,-19,-5,-2,-1,-2
1511883870575240,3,3,-5,11,10,1,-1,0
1511883870581256,-1,-4,1,0,3,0,2,0
1511883870581256,-1,-3,-5,7,-8,1,2,1
1511883870596297,2,4,1,2,6,0,0,0
1511883870596297,-4,-3,-1,-12,-12,-4,-4,-1
1511883870603818,1,-1,3,1,8,1,0,-3
1511883870603818,1,-4,-4,0,-4,-5,0,0
1511883870618948,-1,2,-1,-7,1,-4,-5,-2
1511883870618948,0,-4,-1,9,0,3,0,0
1511883870619951,-1,-2,-2,1,-8,1,-2,1
1511883870619951,-2,-3,-2,-11,15,-2,-2,0
1511883870634989,0,1,0,-3,-31,-6,-2,-1
1511883870634989,3,-3,3,6,4,-2,0,0
1511883870641006,-1,0,-3,0,-3,0,0,0
1511883870641006,-1,-2,1,-1,0,3,0,-2
1511883870656046,-1,1,-2,-9,-8,-1,-1,0
1511883870656046,-4,2,2,-8,-3,-2,-3,-1
1511883870663065,0,-3,-1,-5,-19,-6,-5,0
1511883870663065,-3,3,-1,3,24,4,2,1
1511883870678104,0,2,5,22,-3,3,6,1
1511883870678104,0,-1,-5,20,7,-7,-13,-4
1511883870686126,0,4,1,-7,-6,1,8,4
1511883870686126,-1,1,3,9,-5,-5,-8,-1
1511883870695154,-2,-4,3,19,1,9,6,-1
1511883870695154,3,0,-1,-17,8,-9,-7,1
1511883870701170,3,-1,0,49,29,9,5,1
1511883870701170,0,1,-1,-3,-19,-1,2,0
1511883870716211,-5,-3,-4,-10,6,1,1,0
1511883870716211,-2,-3,-4,4,-5,2,4,0
1511883870723229,-5,2,0,-9,-16,-9,-8,-4
1511883870723229,-2,-4,-5,-29,-7,2,4,-1
1511883870738271,2,-1,2,15,13,1,-4,-1
1511883870738271,-1,-2,1,-15,-21,-5,1,-2
1511883870746292,-1,3,-7,-24,-3,2,4,-2
1511883870746292,3,0,5,32,6,-1,-4,-1
1511883870755316,-1,-6,-6,-35,-11,-7,-1,-1
1511883870755316,0,2,4,-6,11,7,4,0
1511883870761331,-1,-1,1,5,-8,3,-1,0
1511883870761331,1,3,0,-6,-7,-1,-2,0
1511883870776371,3,1,0,0,6,3,2,-1
1511883870776371,-2,-8,0,-12,-5,2,1,0
1511883870783391,0,-2,-2,-4,-5,12,12,4
1511883870783391,1,-5,1,18,11,-13,-12,-2
1511883870798936,0,-1,-2,5,5,0,-2,0
1511883870798936,-2,-1,0,10,-1,2,3,-1
1511883870806456,-1,6,3,-45,-21,-6,-4,-3
1511883870806456,-4,-3,1,3,-9,2,2,-2
1511883870821496,-1,1,2,7,-12,-6,-5,-2
1511883870821496,1,-3,-4,13,10,2,3,0
1511883870822500,-3,-3,-7,-26,7,-5,-6,-2
1511883870822500,1,-1,-2,-5,-13,3,4,-1
1511883870836537,-3,-1,-4,-7,4,-4,-5,-4
1511883870836537,-1,0,4,0,1,-5,-6,1
1511883870843556,-1,-4,2,9,6,-5,-7,-2
1511883870843556,2,2,0,-12,-4,6,5,1
1511883870858596,0,-2,0,6,1,-5,-2,1
1511883870858596,-2,-1,-2,-6,-7,0,-1,-2
1511883870865614,5,6,3,3,8,-3,1,5
1511883870865614,-3,-4,3,5,0,0,-1,-1
1511883870881683,-1,0,-2,-17,8,-1,-1,-2
1511883870881683,-3,-10,-14,-46,-33,-6,-3,0
1511883870882659,0,-1,9,23,13,0,-3,1
1511883870882659,-2,-1,-4,-4,5,3,2,1
1511883870896199,1,4,-2,-2,15,3,0,2
1511883870896199,2,4,-3,-5,-3,-4,-1,-2
1511883870903720,-1,-6,-1,2,-15,1,2,-5
1511883870903720,4,-1,6,5,9,-6,-7,0
1511883870918813,-4,-8,-1,10,-2,-8,-6,-3
1511883870918813,0,7,-3,-4,13,3,2,-1
1511883870925832,0,-3,-3,0,-16,-6,-2,-3
1511883870925832,-4,-3,-7,-4,5,9,9,-1
1511883870941848,-2,-5,3,4,-13,-4,-1,-2
1511883870941848,2,6,9,14,8,3,1,1
1511883870942851,-1,1,0,14,5,-1,-4,-3
1511883870942851,0,-3,-4,29,-11,-1,2,0
1511883870955886,0,-3,-7,-20,-13,-4,-5,-1
1511883870955886,-2,-1,-4,-3,-5,-6,0,0
1511883870963907,0,-1,6,15,5,2,-3,1
1511883870963907,-1,1,-1,-5,15,4,6,0
1511883870978947,-1,1,2,20,-13,8,3,2
1511883870978947,0,3,3,-6,11,-17,-14,-4
1511883870985965,-4,-5,-6,-13,29,9,9,1
1511883870985965,-2,2,-2,-12,-39,-10,-9,-3
1511883871025101,1,2,0,-14,1,-5,-3,0
1511883871025101,1,-1,4,2,-17,6,4,-3
1511883871026104,-3,1,2,1,7,2,1,2
1511883871026104,-1,-2,6,5,14,5,3,0
1511883871038135,-2,1,-5,-14,2,5,4,-3
1511883871038135,-1,-4,-6,-10,-20,-9,-4,-2
1511883871047160,2,-5,-1,10,-11,-1,-3,0
1511883871047160,1,4,3,-11,1,-9,-6,0
1511883871062200,-1,1,-4,0,2,5,8,3
1511883871062200,-2,-1,-1,7,-5,2,0,0
1511883871064205,-6,-7,-14,-53,-4,-1,-5,-8
1511883871064205,4,1,-1,33,23,4,3,1
1511883871077240,-1,-5,-2,2,-8,-1,-5,-3
1511883871077240,0,-2,-4,9,8,14,10,-1
1511883871079245,-4,-2,-2,-20,-10,-4,-4,-3
1511883871079245,-1,-1,-7,-20,-19,3,2,-2
1511883871091276,0,-7,4,15,12,-6,-4,-1
1511883871091276,-1,-3,-2,3,-1,5,5,-2
1511883871100305,3,-2,-5,18,-1,-1,1,-3
1511883871100305,-3,-4,-4,-16,-23,-11,-8,-6
1511883871115346,2,3,-1,9,6,6,0,-1
1511883871115346,-2,-1,-6,-14,-13,-2,2,1
1511883871116350,-1,-3,-1,14,-7,-22,-18,-5
1511883871116350,-4,-4,-5,-17,7,6,1,-2
1511883871130389,-3,-3,-7,-21,-13,6,7,-4
1511883871130389,0,0,-9,-41,-5,-14,-8,5
1511883871131392,2,3,1,33,-23,5,8,3
1511883871131392,-5,-10,-17,-28,23,4,0,-3
1511883871152448,-1,2,-3,-9,-10,-13,-10,-4
1511883871152448,-3,-11,-2,18,-3,10,-1,-4
1511883871153450,-2,4,0,-17,-12,2,7,0
1511883871153450,-3,-3,-6,-28,-14,-15,-10,-2
1511883871166483,-2,1,1,17,-13,4,0,0
1511883871166483,0,4,-1,15,21,8,4,-3
1511883871167486,-2,-7,-3,1,9,1,-3,-1
1511883871167486,0,2,3,19,-4,4,6,-2
1511883871190552,0,1,3,-3,-14,-3,-4,-4
1511883871190552,2,-1,2,13,2,-4,-3,-2
1511883871190552,2,4,-10,-9,10,-4,-3,-1
1511883871190552,-1,-1,3,9,-4,9,7,1
1511883871212797,-3,-3,-2,15,3,1,0,-1
1511883871212797,-3,-2,0,-7,-4,5,1,-6
1511883871213757,2,-4,3,27,17,4,3,7
1511883871213757,0,-1,-7,21,17,-4,-5,-2
1511883871226838,0,2,1,-6,2,5,9,2
1511883871226838,-1,-1,5,22,-8,-12,-12,-2
1511883871227789,-3,-5,-2,4,12,7,7,-2
1511883871227789,-1,1,-6,-31,-1,3,2,-1
1511883871249877,-2,0,3,15,-3,-16,-18,-1
1511883871249877,-1,-2,-10,3,5,9,4,1
1511883871250850,0,-1,0,-17,20,3,-3,0
1511883871250850,0,-2,1,-8,-9,2,1,3
1511883871272983,-2,-1,-4,8,7,11,10,0
1511883871272983,1,-5,-3,-15,-5,-1,-3,1
1511883871272983,-2,3,2,7,-2,-5,-2,-1
1511883871272983,-4,-8,-2,27,14,3,-4,1
1511883871287134,4,1,-2,-8,14,0,-1,3
1511883871287134,2,4,8,16,24,5,6,4
1511883871288110,3,5,3,21,4,8,8,1
1511883871288110,5,8,7,54,39,4,-1,0
1511883871309762,1,-2,-1,-10,-3,0,6,2
1511883871309762,0,1,6,13,6,-10,-7,0
1511883871310761,0,1,4,-11,-9,-3,-3,-2
1511883871310761,-1,-2,-3,-28,-15,-2,3,1
1511883871332821,-1,-2,0,-19,5,0,0,2
1511883871332821,-2,3,6,11,10,4,5,1
1511883871333824,1,3,5,11,-22,-11,-8,0
1511883871333824,-2,-2,3,-7,-2,-8,-5,0
1511883871346945,2,4,1,-1,27,6,4,0
1511883871346945,2,-2,-4,-24,-7,-1,4,3
1511883871347861,-1,-2,0,2,-13,-7,-3,3
1511883871347861,3,1,7,25,31,7,-2,0
1511883871370085,-4,-6,3,-3,-23,-20,-13,-2
1511883871370085,7,8,14,75,59,12,5,6
1511883871371025,-3,5,3,-2,-5,-4,0,-5
1511883871371025,1,3,2,13,-29,0,1,-5
1511883871392101,-2,0,-4,-6,2,3,3,2
1511883871392101,-3,-2,-6,-54,-18,-8,-9,1
1511883871393606,0,-2,-2,-30,-25,-5,2,1
1511883871393606,6,9,13,34,13,2,2,2
1511883871407143,-2,1,-7,-7,-3,-1,-4,-4
1511883871407143,-4,-2,-7,-12,-13,-2,0,-4
1511883871407620,-1,1,-3,-17,12,1,-2,-1
1511883871407620,0,-5,-1,-22,-12,-2,0,0
1511883871430231,-1,-2,0,18,-4,2,7,1
1511883871430231,1,-2,-3,7,-15,-2,-3,-3
1511883871431238,-1,-3,-1,4,6,-1,-8,-2
1511883871431238,-3,1,-4,-35,-19,-10,-4,-3
1511883871452295,0,0,3,-3,16,2,3,1
1511883871452295,-2,3,10,29,-1,3,3,-2
1511883871453266,-2,-5,-7,21,6,5,4,1
1511883871453266,0,3,-3,8,7,-4,-6,-2
1511883871466327,2,1,2,20,12,5,1,2
1511883871466327,-3,1,-6,-51,-4,1,2,-3
1511883871467318,0,-2,8,25,8,-2,-3,0
1511883871467318,2,3,-2,-15,-18,-6,0,1
1511883871490364,-4,-6,-6,-24,5,-5,-4,-4
1511883871490364,2,0,7,50,-3,-2,-2,2
1511883871491367,2,-1,-1,-40,2,-2,0,1
1511883871491367,-5,-8,-15,-35,-14,5,9,-1
1511883871511994,-1,-8,-15,-47,-13,-15,-14,-2
1511883871511994,-2,2,3,-41,-20,-9,-3,1
1511883871513969,-3,1,6,-7,0,-4,-13,-5
1511883871513969,3,2,8,52,8,9,11,10
1511883871525999,2,3,9,41,1,8,8,1
1511883871525999,-2,-2,-14,-23,-9,0,-1,-4
1511883871535025,1,1,-1,29,24,5,4,2
1511883871535025,0,-3,-8,-27,-7,-6,-7,-2
1511883871550064,-7,0,5,-10,-31,3,1,-4
1511883871550064,0,-5,0,5,21,1,2,2
1511883871551067,-1,-3,-4,-1,-3,2,7,0
1511883871551067,-1,2,3,-32,-7,-6,-8,-4
1511883871572122,4,-1,4,-1,5,2,3,4
1511883871572122,-1,5,2,-26,-5,-6,0,-2
1511883871574128,-2,-6,0,-3,-12,-2,0,-1
1511883871574128,-5,-3,5,12,21,8,1,-1
1511883871586188,1,7,-1,-46,-16,-9,-8,1
1511883871586188,-2,0,0,0,-2,0,-1,0
1511883871595213,3,-4,-1,16,21,10,7,3
1511883871595213,-1,3,-3,36,10,-5,6,6
1511883871610303,-3,-7,2,41,19,-2,-5,-3
1511883871610303,-4,2,0,26,-7,-6,-9,-4
1511883871611280,-4,0,-5,-45,-13,-4,-2,-1
1511883871611280,4,-1,5,-6,-24,0,2,0
1511883871632370,-1,-3,-5,-8,34,3,1,-2
1511883871632370,0,-1,-1,0,1,3,1,0
1511883871634342,1,-3,-4,-25,-15,-9,-7,-1
1511883871634342,-2,-1,-1,-7,10,-1,-4,-3
1511883871638352,-3,6,4,1,-8,-5,-4,-4
1511883871638352,-1,-5,0,-17,2,4,3,1
1511883871646409,3,-2,-2,-11,-5,1,2,0
1511883871646409,-2,4,5,-11,-4,-7,-6,-2
1511883871684475,4,5,8,-5,-11,0,3,0
1511883871684475,-2,-3,-2,-8,-4,-1,0,1
1511883871691517,-1,1,-4,-3,-4,3,4,1
1511883871691517,-2,1,5,-26,-6,-18,-18,-2
1511883871707564,0,-6,-4,-10,-1,8,4,4
1511883871707564,0,-3,0,-2,5,6,4,-1
1511883871709069,-1,8,9,8,-9,3,0,0
1511883871709069,-2,-1,-4,-37,-14,-1,3,1
1511883871722633,-1,-2,-1,9,9,3,1,0
1511883871722633,1,-6,-9,-24,-25,-13,-5,-2
1511883871723635,-2,2,6,12,-13,-7,-6,-1
1511883871723635,0,1,1,-7,-4,-1,3,-2
1511883871735667,0,5,7,0,-6,-3,1,-3
1511883871735667,2,1,2,-2,13,-3,-2,0
1511883871745686,-7,-4,-11,-21,-6,-6,-5,-1
1511883871745686,-1,-2,2,0,18,2,-1,-1
1511883871746670,0,-2,-1,-9,-5,-2,-2,-5
1511883871746670,-1,1,2,7,-4,2,-1,-2
1511883871751710,-1,1,2,-21,-5,-3,-2,0
1511883871751710,-1,-1,3,5,1,-1,-3,-4
1511883871758727,-3,-6,-18,-68,-9,0,2,1
1511883871758727,-1,3,3,-2,1,-1,-3,-3
1511883871765749,1,-3,-1,-5,7,2,4,2
1511883871765749,-1,-3,-2,-3,-12,6,2,-5
1511883871780790,1,11,6,12,1,-6,-5,0
1511883871780790,-4,-11,-11,-10,-7,4,3,-3
1511883871788799,0,8,-3,-24,2,-3,-6,-2
1511883871788799,-1,0,-4,-4,-14,-4,-1,2
1511883871804371,0,-1,1,8,1,6,4,0
1511883871804371,-1,-1,1,22,2,-3,-2,6
1511883871805375,1,3,4,13,0,0,5,-2
1511883871805375,-1,-4,-5,6,7,2,0,-1
1511883871818952,-1,2,2,14,-8,-5,-3,3
1511883871818952,0,2,4,-31,-17,6,5,1
1511883871825973,1,-4,-4,10,-5,-13,-13,-6
1511883871825973,-1,1,4,7,0,-3,-3,-2
1511883871841010,0,-6,2,11,-4,2,2,-1
1511883871841010,-2,-2,-5,0,-2,-3,0,-2
1511883871849035,0,-1,5,21,11,6,3,-2
1511883871849035,-1,6,0,0,3,1,-1,-2
1511883871864077,-3,-4,-7,8,1,-1,-4,-3
1511883871864077,2,3,2,3,4,-6,-2,1
1511883871865051,2,6,1,7,25,2,-2,0
1511883871865051,-1,-7,-3,18,-27,-6,0,2
1511883871910224,-4,0,-3,1,16,-1,1,-1
1511883871910224,-1,5,1,4,4,1,-1,-4
1511883871911226,-3,-8,-5,-26,-10,0,-2,-2
1511883871911226,-2,0,4,-1,2,-3,-5,0
1511883871925264,0,-4,-2,-5,-1,4,7,1
1511883871925264,2,1,2,6,-2,-4,-8,-1
1511883871926266,0,1,-1,9,-3,0,4,2
1511883871926266,0,-4,0,5,7,-1,-4,-1
1511883871940332,-2,2,-6,-6,-10,-2,-3,0
1511883871940332,-3,-6,1,19,6,1,1,2
1511883871941307,1,1,-4,6,-6,5,5,1
1511883871941307,1,-1,-1,-1,4,5,5,1
1511883871954344,1,-1,3,5,0,-3,1,1
1511883871954344,-1,2,-2,11,4,1,-2,-2
1511883871961387,3,-2,-3,1,-3,0,-1,0
1511883871961387,3,1,0,-2,2,8,7,1
1511883871977430,3,9,4,4,2,9,2,-2
1511883871977430,0,-10,-2,-4,-10,-24,-19,1
1511883871979436,-3,1,3,15,13,4,3,1
1511883871979436,-2,3,2,6,3,-3,1,0
1511883871992470,-1,-2,6,32,0,5,2,-2
1511883871992470,-2,1,2,35,19,7,3,0
1511883871994478,-1,1,5,-20,-9,-6,-2,2
1511883871994478,-2,-1,2,17,-2,7,5,0
1511883872006482,3,0,2,7,6,-13,-13,0
1511883872006482,2,10,10,12,15,7,11,6
1511883872014532,1,-4,-1,-8,-14,-6,-5,1
1511883872014532,-2,2,3,19,14,8,4,1
1511883872029572,-1,-4,2,3,-10,-2,5,1
1511883872029572,-3,2,2,-27,1,-3,-1,-3
1511883872035588,-1,-1,6,9,-5,4,0,1
1511883872035588,-1,2,2,-24,11,-8,0,5
1511883872052607,-3,1,6,11,28,7,-1,-1
1511883872052607,0,0,-1,-17,-4,0,2,3
1511883872053633,-3,-1,3,1,8,4,6,-2
1511883872053633,1,-3,5,10,8,5,2,-1
1511883872058649,4,5,8,5,13,-23,-16,7
1511883872058649,-3,-4,-4,6,6,7,9,-3
1511883872065668,2,6,6,20,7,5,2,2
1511883872065668,0,-8,-7,-15,39,0,-5,1
1511883872080708,-2,1,6,5,-13,-3,-1,-3
1511883872080708,1,9,8,18,4,0,-2,0
1511883872088702,-4,-2,0,-27,4,-7,-4,-6
1511883872088702,2,5,7,-12,-10,5,3,0
1511883872104298,-2,0,5,22,-6,-6,-6,0
1511883872104298,1,-3,-5,-20,16,-3,0,2
1511883872105295,1,-3,-4,-10,-3,-5,-2,1
1511883872105295,-2,0,-2,3,1,1,-3,-1
1511883872118358,-2,-3,-5,-18,-15,6,9,1
1511883872118358,-1,4,1,-4,-13,-12,-9,-4
1511883872126359,-1,-2,0,14,19,-2,-4,1
1511883872126359,0,-1,-4,-27,-23,-5,-3,-3
1511883872141424,1,2,4,11,-10,0,-4,-2
1511883872141424,0,0,0,-4,13,-6,6,6
1511883872149452,-2,2,1,3,-11,7,-2,-5
1511883872149452,2,2,-3,-4,-12,-5,-2,2
1511883872164482,-3,-2,3,16,12,1,7,-1
1511883872164482,6,0,0,13,-12,1,-3,-2
1511883872165464,-3,1,-3,-24,-5,-5,-2,-1
1511883872165464,-1,1,6,6,-1,1,3,2
1511883872178520,2,3,-3,-14,11,8,4,3
1511883872178520,2,-4,2,-7,0,0,-3,1
1511883872186542,-1,-4,-8,-5,-2,-5,-4,-3
1511883872186542,-4,1,0,9,-4,-4,-9,-6
1511883872201363,-2,-2,-9,-6,-8,-3,0,-1
1511883872201363,0,5,6,5,2,2,1,-1
1511883872208882,1,-6,2,5,5,5,7,2
1511883872208882,1,-1,-4,-4,9,-10,-11,-3
1511883872223988,2,-4,1,-7,0,-2,3,-2
1511883872223988,-2,1,-2,-4,2,0,-9,-4
1511883872224988,0,3,4,11,5,-1,-1,-1
1511883872224988,-8,-8,-8,-12,-17,-4,4,1
1511883872239189,-2,-4,0,-4,-4,0,-4,-3
1511883872239189,1,3,5,41,11,9,7,-1
1511883872246047,0,-2,5,2,1,-19,-10,1
1511883872246047,-1,-5,-1,13,3,0,-2,-1
1511883872261085,-2,-1,-2,-19,-4,-2,-2,0
1511883872261085,-4,-3,-9,-25,-11,9,0,-6
1511883872269218,5,3,5,1,0,-3,7,6
1511883872269218,0,-2,1,3,3,-5,-6,-2
1511883872284342,0,6,2,-6,8,2,1,0
1511883872284342,-1,-1,2,3,1,-4,-1,0
1511883872285149,0,2,1,19,-2,7,1,-3
1511883872285149,2,-1,1,3,-7,-5,-3,3
1511883872298693,-1,-5,-7,-33,12,3,2,-3
1511883872298693,-3,1,-1,-14,-9,4,5,3
1511883872306224,-4,0,0,11,-4,-10,-9,-2
1511883872306224,-1,1,0,-8,-4,3,0,-2
1511883872321287,0,-2,0,29,17,8,4,1
1511883872321287,2,1,2,0,-7,-4,0,-1
1511883872329436,-3,-4,0,-3,2,2,-1,-6
1511883872329436,4,3,3,8,8,0,3,3
1511883872344348,1,3,-1,-8,-5,1,-3,0
1511883872344348,0,-2,-5,-14,-6,5,7,-1
1511883872345349,0,1,4,11,-10,-4,-2,4
1511883872345349,-1,1,1,-14,10,-2,-4,-2
1511883872358386,-1,-3,-4,-12,0,1,0,0
1511883872358386,-2,-2,-3,10,3,2,1,0
1511883872366433,0,-3,-3,-15,-2,5,2,1
1511883872366433,-2,-3,-4,7,-6,1,2,-2
1511883872381443,2,-1,5,16,-2,-7,-4,2
1511883872381443,0,-6,-11,-33,-6,-4,-3,0
1511883872389465,0,2,2,19,0,1,1,1
1511883872389465,-3,-3,-3,9,5,0,2,-1
1511883872404507,1,4,4,6,-13,1,-5,-1
1511883872404507,-1,1,1,-2,-3,-6,-5,-3
1511883872405008,-2,1,-1,4,-5,2,0,-1
1511883872405008,1,-5,4,3,-2,-4,0,4
1511883872418557,2,0,-3,3,12,14,2,0
1511883872418557,-1,-2,0,-10,5,-9,-3,3
1511883872425576,0,1,-2,-15,-10,-2,0,-2
1511883872425576,-2,5,5,13,-4,3,5,-1
1511883872440615,-3,-6,-5,-28,-2,-6,-3,-1
1511883872440615,0,1,0,6,-3,0,-1,0
1511883872449667,-3,2,-1,-3,2,5,4,0
1511883872449667,3,1,-2,-4,-4,-13,-8,2
1511883872464679,-1,-4,-1,11,10,2,4,0
1511883872464679,-2,-4,-4,-11,3,1,-3,-2
1511883872464679,1,-5,-3,-6,-4,0,2,-2
1511883872464679,0,-1,2,18,12,2,-11,-6
1511883872478744,0,3,2,9,0,-13,-5,2
1511883872478744,-4,-10,-2,0,-8,4,4,-2
1511883872485763,-1,-2,-7,-3,-8,0,-3,-2
1511883872485763,1,1,-1,-16,-27,-2,1,1
1511883872501333,1,-1,0,-3,2,1,0,-1
1511883872501333,0,-1,2,-6,-6,-4,-8,-2
1511883872509353,2,2,1,-7,-2,-6,6,2
1511883872509353,-2,2,2,-15,2,1,-1,-4
1511883872523823,-4,-3,-1,-7,-11,-5,-3,-1
1511883872523823,-3,2,-3,15,27,5,-1,-1
1511883872531871,3,1,0,-3,-9,0,-1,1
1511883872531871,-2,2,1,7,1,2,1,-3
1511883872538888,-1,-1,-5,-29,-4,-5,-1,-2
1511883872538888,3,-7,0,0,-1,3,8,-1
1511883872545907,-1,1,0,1,8,-9,-19,-1
1511883872545907,-1,-4,-6,-13,5,5,4,2
1511883872560947,-1,3,3,-4,-6,0,-1,-4
1511883872560947,0,-1,3,17,-2,-3,1,1
1511883872568943,-3,3,0,21,5,5,5,2
1511883872568943,-4,-5,-1,-12,-10,-2,-3,-3
1511883872584009,-1,-6,-5,5,8,-1,4,0
1511883872584009,1,4,3,10,-1,-1,-2,2
1511883872592031,0,0,0,-24,-4,-3,-2,-1
1511883872592031,-2,0,1,8,0,9,8,-4
1511883872598571,3,2,-1,6,-1,-5,-3,-2
1511883872598571,3,0,5,3,-9,-9,-4,1
1511883872606085,0,-6,-2,-5,21,3,-6,1
1511883872606085,1,3,-2,-1,9,4,4,1
1511883872621166,-2,-1,0,8,15,7,4,3
1511883872621166,-1,2,3,9,-9,-8,-8,-6
1511883872629154,-3,-2,-3,-1,3,1,6,3
1511883872629154,-2,-6,-3,1,-2,-2,-1,-2
1511883872643226,1,-1,0,26,-16,0,4,-3
1511883872643226,-1,4,-4,-12,12,-1,-6,-1
1511883872651247,1,-1,0,-8,8,7,1,-3
1511883872651247,-1,-1,-1,-3,-5,-3,1,2
1511883872667256,-3,1,-2,0,-9,1,3,0
1511883872667256,-1,1,2,-7,-6,-3,-1,-1
1511883872668285,0,-4,-4,-7,-17,-1,2,0
1511883872668285,1,2,1,-5,-8,-5,-5,-1
1511883872681292,-4,-1,0,-1,1,-3,-3,0
1511883872681292,-1,1,-5,-4,7,5,0,2
1511883872689340,-2,-6,-1,14,4,3,2,1
1511883872689340,1,-1,0,-5,9,-3,-2,-2
1511883872703907,-2,1,0,5,1,-2,-6,-3
1511883872703907,-1,-4,-4,-24,-6,3,4,1
1511883872711472,1,1,4,11,9,-1,-4,-1
1511883872711472,-2,-6,-1,-12,-3,-7,0,3
1511883872726515,0,0,-5,-8,-3,5,1,-3
1511883872726515,-1,-1,5,6,-14,-8,-3,1
1511883872727492,2,3,3,4,8,4,2,-2
1511883872727492,0,1,0,-1,-5,-13,-14,-2
1511883872740554,0,4,-1,-17,-10,-1,-2,-1
1511883872740554,-4,-4,-2,-3,2,5,3,-1
1511883872749577,0,0,-2,-3,-5,0,2,0
1511883872749577,-1,0,1,34,-5,-6,-9,-5
1511883872763616,-3,-3,0,-3,-7,-1,1,1
1511883872763616,0,-1,-2,-7,6,-1,5,-1
1511883872771609,-4,-1,-5,-8,-7,0,-4,-4
1511883872771609,1,1,-1,-12,5,0,4,3
1511883872786672,0,-1,-6,-30,-39,-12,-6,-2
1511883872786672,-2,0,0,6,2,2,-1,-1
1511883872787678,-3,-1,3,-2,2,1,2,-1
1511883872787678,2,5,-3,1,-6,2,1,0
1511883872801239,-4,0,1,4,5,-1,-2,-3
1511883872801239,1,-1,1,8,-2,-1,1,2
1511883872808759,0,-3,-2,0,-1,-3,-1,1
1511883872808759,-1,4,3,-32,-4,-3,-2,-1
1511883872823007,1,-7,-6,7,12,2,0,-1
1511883872823007,0,2,-1,4,-1,-5,-3,0
1511883872832032,-1,0,-9,-6,17,0,-4,-2
1511883872832032,-4,1,4,-4,3,4,1,-1
1511883872847045,3,-1,8,20,8,0,1,1
1511883872847045,0,1,4,-2,2,0,2,0
1511883872847045,1,4,-2,3,-21,-6,-2,-1
1511883872847045,1,-5,0,-5,-2,0,-1,0
1511883872861082,1,1,0,-6,5,-2,-2,-1
1511883872861082,-2,1,-2,6,5,6,2,1
1511883872868122,-2,-1,3,6,15,-10,-8,-3
1511883872868122,-2,-9,-7,1,5,7,1,-4
1511883872892165,-1,-5,-2,-21,-23,-5,0,0
1511883872892165,0,-2,5,17,-1,1,-1,-1
1511883872893167,-4,0,2,-8,-36,-5,-2,-1
1511883872893167,-3,-8,-11,1,24,2,-4,2
1511883872907249,-1,-1,-4,-28,13,1,5,1
1511883872907249,0,0,-2,3,-14,-4,-8,-5
1511883872907709,-2,0,0,-2,13,8,6,1
1511883872907709,0,-4,0,0,-2,-6,-4,1
1511883872921280,-3,-7,-4,3,1,5,1,0
1511883872921280,3,4,4,13,-7,1,-1,1
1511883872928321,0,-3,0,-3,-1,1,5,1
1511883872928321,0,3,-8,5,1,4,5,0
1511883872943360,0,0,2,23,21,2,-3,-2
1511883872943360,1,0,1,-13,2,-3,-2,-2
1511883872951380,2,3,-2,17,-1,-1,-3,1
1511883872951380,-3,1,2,-6,-17,-3,0,-3
1511883872966414,2,5,6,42,24,5,4,0
1511883872966414,-3,-9,-3,3,-10,0,-1,-3
1511883872967426,1,0,-3,-26,-1,-2,0,2
1511883872967426,0,0,6,6,-15,-1,3,1
1511883872981459,-3,3,-1,1,2,-5,-8,-4
1511883872981459,1,-1,-2,-17,10,1,2,-1
1511883872988451,0,-2,3,24,-15,-7,-6,0
1511883872988451,0,13,8,4,7,4,4,2
1511883873003994,-5,-13,-9,-27,-1,1,-2,-1
1511883873003994,1,2,-2,-2,-4,-2,-1,1
1511883873011557,-2,-1,1,1,-2,2,4,2
1511883873011557,1,-1,-2,-11,0,-1,-6,-3
1511883873026603,1,-1,-1,-1,4,-3,-3,-1
1511883873026603,-2,1,1,-7,-17,-4,0,-1
1511883873027579,0,-2,0,-14,2,-3,-1,-1
1511883873027579,-2,-1,0,24,-14,1,1,1
1511883873040614,-3,3,0,-28,3,-3,-2,-2
1511883873040614,-1,-5,-10,-8,-14,-2,-1,-3
1511883873048635,1,4,5,-4,0,1,-2,-2
1511883873048635,0,1,4,-2,1,-2,-1,-3
1511883873063702,0,5,6,10,-11,-4,-2,1
1511883873063702,-5,-7,-1,-1,12,0,-1,1
1511883873071724,-1,2,-3,3,-2,-3,-1,0
1511883873071724,0,0,-3,1,5,0,0,0
1511883873086763,2,1,1,18,4,0,0,0
1511883873086763,0,-2,-8,-28,12,6,5,2
1511883873087766,-1,-3,-2,-3,7,3,2,-3
1511883873087766,-2,-3,1,-1,-22,-7,-2,0
1511883873101330,-2,1,-2,-21,-22,-5,0,-1
1511883873101330,-1,4,-1,3,-12,1,3,1
1511883873108848,-4,-6,-7,-16,15,-2,-3,-3
1511883873108848,3,4,-1,-16,7,0,0,0
1511883873123514,0,2,2,2,4,-1,-2,-1
1511883873123514,-2,0,1,-3,-1,-4,-3,-1
1511883873131535,0,-2,-2,0,10,2,2,1
1511883873131535,2,0,3,3,-2,-5,-3,-2
1511883873146572,0,-2,1,24,-2,0,0,1
1511883873146572,2,2,6,3,1,-3,-4,-2
1511883873147450,1,-1,4,12,-2,1,1,-2
1511883873147450,-1,-2,-7,-11,10,5,5,-1
1511883873161611,3,-8,-4,-6,-21,-4,-2,0
1511883873161611,0,3,3,18,32,3,-1,-1
1511883873168634,0,-1,-1,-14,-23,-4,-2,0
1511883873168634,-5,-8,3,16,3,5,1,-1
1511883873183547,-1,8,3,3,-4,-2,-2,-1
1511883873183547,-1,-3,-5,-13,4,1,1,-1
1511883873191696,3,-3,1,-6,2,0,-2,-1
1511883873191696,0,-1,1,10,16,1,-2,1
1511883873207223,-2,-2,-1,20,-15,-2,0,-1
1511883873207223,-4,-5,2,2,1,-3,-2,-2
1511883873207722,2,4,4,28,-12,-7,-2,1
1511883873207722,-2,1,-2,-2,-2,-1,3,0
1511883873221157,3,3,2,-5,-1,0,-1,-1
1511883873221157,-1,0,0,-9,-8,-2,0,0
1511883873229183,-4,3,-10,4,9,1,-2,-3
1511883873229183,-3,-5,-4,-30,7,-3,-4,-5
1511883873244033,-2,-7,-7,-5,14,4,3,1
1511883873244033,2,6,4,-5,-9,1,0,0
1511883873252226,-3,-3,1,-5,4,-1,-3,-2
1511883873252226,-1,-3,-5,5,-2,-6,-8,-3
1511883873267245,0,7,3,27,8,6,4,2
1511883873267245,0,-4,-1,14,3,-3,-7,-3
1511883873268128,3,-1,2,-14,-47,-1,3,1
1511883873268128,0,1,0,-5,23,-3,0,-2
1511883873281311,-2,-5,-7,-10,10,3,2,-2
1511883873281311,-2,1,-2,-8,-3,2,1,2
1511883873288147,0,0,4,25,6,-2,-2,-1
1511883873288147,1,-5,-7,-3,-7,2,2,1
1511883873303726,2,-1,-3,-1,-5,-3,-2,0
1511883873303726,-4,2,-3,-18,15,2,0,-3
1511883873311944,-2,1,-3,3,-3,-1,-5,0
1511883873311944,4,7,7,15,-3,4,3,2
1511883873326985,-2,-10,-4,-9,10,3,3,-1
1511883873326985,3,-2,-2,9,13,2,-3,3
1511883873327947,0,-3,-1,4,7,2,3,-1
1511883873327947,1,-2,1,14,1,4,2,1
1511883873341027,1,2,3,-1,-23,-3,1,0
1511883873341027,-3,-3,-2,-2,11,-6,-10,-7
1511883873349020,-1,-2,-8,-20,17,11,11,0
1511883873349020,-2,-2,0,14,-2,-10,-9,1
1511883873364161,0,4,4,-10,-1,2,3,-1
1511883873364161,1,-3,-5,-1,-12,0,5,2
1511883873372064,-2,1,-3,-33,-5,-4,-4,0
1511883873372064,-2,2,1,-14,-10,2,5,-1
1511883873387103,4,2,5,9,-15,-5,-4,0
1511883873387103,-4,-4,-7,-6,-11,-6,-3,-2
1511883873387103,0,-4,-2,-14,3,-2,0,0
1511883873387103,1,-3,-3,-11,-6,0,1,-3
1511883873401177,-3,0,2,-4,6,1,-6,-2
1511883873401177,2,2,2,7,-2,-1,0,0
1511883873408680,1,0,1,-13,-25,-6,-4,1
1511883873408680,-2,-5,-2,-19,-10,0,1,1
1511883873423952,-3,3,2,-10,-2,-6,-5,-4
1511883873423952,2,-3,-4,1,7,17,17,1
1511883873431949,1,2,7,26,14,-11,-11,0
1511883873431949,1,2,0,-15,-11,0,-1,-1
1511883873446988,-1,-2,1,7,1,0,-1,-1
1511883873446988,-1,-1,-7,6,-6,3,3,2
1511883873446988,1,0,-1,-2,4,6,2,-2
1511883873446988,-2,-4,-2,8,14,6,3,-1
1511883873461026,-2,-1,-3,4,1,-5,-1,1
1511883873461026,1,4,10,11,-11,-11,-10,-1
1511883873468044,-6,-9,-3,0,32,12,5,-1
1511883873468044,-1,0,0,-1,12,-4,-6,-1
1511883873483115,0,-1,-1,-24,-8,-14,-8,-1
1511883873483115,0,-1,-2,19,-3,9,9,2
1511883873492108,1,2,3,16,10,-4,-3,-5
1511883873492108,2,1,5,13,3,-4,-5,2
1511883873506171,-4,-3,-3,-15,11,8,2,-2
1511883873506171,0,2,-1,-5,-6,-3,1,3
1511883873513773,-4,-8,-1,-18,-7,-6,-2,-4
1511883873513773,2,4,2,25,0,5,3,-1
1511883873520768,1,-2,4,15,-3,-2,-3,1
1511883873520768,0,0,-1,-17,-6,-3,-5,-4
1511883873528791,0,-4,1,16,-11,4,6,2
1511883873528791,-1,1,-1,-11,-4,-2,-5,-2
1511883873543831,1,0,1,6,16,0,-3,3
1511883873543831,-2,0,1,-8,19,16,10,0
1511883873551853,-1,-2,-5,8,-34,-24,-14,0
1511883873551853,-4,-4,-3,-3,-4,1,-3,-6
1511883873565907,0,3,-2,4,17,2,8,1
1511883873565907,-2,-3,-1,-2,-11,-2,-2,-4
1511883873573910,2,0,3,0,6,-3,-5,1
1511883873573910,0,-1,-2,-9,-18,-3,-1,4
1511883873580928,-6,-1,-7,-7,9,1,-1,-4
1511883873580928,-1,-2,7,8,-4,-9,-10,-2
1511883873588951,4,1,2,-11,-13,6,4,1
1511883873588951,-4,-6,-6,-8,-34,-16,-5,-4
1511883873603512,-1,4,0,-16,-4,3,3,2
1511883873603512,-1,-8,2,36,0,-10,-9,1
1511883873611596,0,7,1,-22,-4,0,0,-2
1511883873611596,0,-3,-1,1,14,8,8,2
1511883873648696,4,2,-3,0,-9,-1,-1,-1
1511883873648696,0,2,0,-7,-5,-6,-4,-1
1511883873658722,-2,-3,-5,-21,-14,-3,2,2
1511883873658722,-2,1,0,12,9,8,10,0
1511883873672731,1,-1,-2,-5,-4,-7,-9,0
1511883873672731,-1,-2,-4,-17,0,1,0,1
1511883873672731,1,0,-3,2,17,7,1,-2
1511883873672731,1,2,-1,-5,17,-7,-4,1
1511883873686798,-3,-7,-6,2,-5,5,-3,-4
1511883873686798,3,0,-3,6,6,4,1,0
1511883873687798,-5,-4,-3,7,15,-1,-2,-6
1511883873687798,-4,-1,-3,-22,-9,-5,-1,-2
1511883873701364,1,-2,-4,21,8,5,2,0
1511883873701364,0,-3,-2,4,10,-10,-11,-7
1511883873709862,-2,0,-3,-6,-41,0,4,1
1511883873709862,-1,-4,-9,-36,-14,-10,-13,-8
1511883873724929,-4,-4,-1,-3,-12,-2,3,-3
1511883873724929,-2,-2,-8,-16,-6,7,4,-4
1511883873726934,1,1,4,26,12,7,7,1
1511883873726934,1,-7,-7,-5,-4,-4,-6,-1
1511883873738940,-2,-4,-3,-16,-12,-7,-9,-3
1511883873738940,-2,-2,-7,-11,-13,-12,-8,-2
1511883873745958,-1,-4,-4,-2,-5,-7,-10,-6
1511883873745958,3,3,-2,-15,-30,5,7,-1
1511883873753980,-5,-11,-16,-36,-36,-15,-4,-3
1511883873753980,-2,2,-4,-9,-1,3,1,1
1511883873762001,-3,1,-6,-34,-12,-3,-5,0
1511883873762001,1,-2,0,38,-5,5,6,1
1511883873769046,-2,-5,-15,-66,-31,0,-2,-3
1511883873769046,5,0,6,79,88,19,7,3
1511883873770022,-4,-2,-1,-15,-7,0,1,-2
1511883873770022,-7,-4,-18,-90,-17,-13,-5,-3
1511883873783056,1,3,7,44,32,9,1,0
1511883873783056,-1,-4,-3,-24,-16,-14,-8,-3
1511883873792089,2,-5,-5,3,-34,4,4,1
1511883873792089,-1,-2,0,-5,8,2,-3,-3
1511883873806168,1,-1,2,3,1,-1,-3,-2
1511883873806168,-4,2,-2,-17,-20,3,7,-4
1511883873814211,3,-4,-2,4,24,-1,-4,1
1511883873814211,-1,2,5,43,34,12,4,-1
1511883873829251,-1,1,4,15,9,-8,-5,0
1511883873829251,1,1,2,-7,-16,3,1,1
1511883873830256,-4,-1,-5,-8,4,-3,-2,-2
1511883873830256,1,3,2,26,24,6,0,-2
1511883873843261,-1,0,3,3,1,4,4,-3
1511883873843261,0,-12,-4,-1,-6,-5,-1,-2
1511883873851283,-1,3,1,11,15,8,0,-1
1511883873851283,0,-2,-2,17,-13,-5,-2,3
1511883873866323,-3,-3,-9,-44,-45,-6,3,2
1511883873866323,-4,0,-1,-16,-25,-8,-3,1
1511883873874344,-3,3,3,19,13,7,3,0
1511883873874344,2,-2,5,40,2,-1,-4,-1
1511883873889384,2,4,3,6,2,0,2,1
1511883873889384,-6,1,-1,-22,-5,-2,-8,-5
1511883873890418,1,-1,-6,-21,6,-3,2,1
1511883873890418,1,-1,3,15,10,3,-7,-4
1511883873903979,0,0,2,13,0,0,5,-1
1511883873903979,0,-5,-3,-6,7,8,3,-1
1511883873911475,-2,-1,5,32,12,-2,-2,0
1511883873911475,3,-3,-5,-39,-9,-4,2,2
1511883873925512,1,-1,4,17,14,-1,-7,0
1511883873925512,0,1,-1,-5,-10,-4,-2,-1
1511883873934564,-2,-3,-7,-11,27,-10,-2,1
1511883873934564,-2,2,-1,14,9,8,4,-1
1511883873972638,0,0,-5,-14,5,3,3,1
1511883873972638,2,3,10,9,-12,0,2,0
1511883873973640,0,0,-6,-10,-21,-3,-3,-2
1511883873973640,-1,3,4,11,10,1,3,3
1511883873986673,-2,2,2,10,11,8,2,0
1511883873986673,-5,0,0,-4,-21,-26,-12,-3
1511883873987676,1,-2,0,-4,-4,2,-4,-2
1511883873987676,-1,-4,-2,-22,-11,-4,2,1
1511883874001268,1,-5,2,18,9,2,-1,-1
1511883874001268,-1,-2,-4,0,-5,11,15,1
1511883874011416,3,5,4,22,6,-12,-15,-1
1511883874011416,-4,2,-3,-17,-7,8,8,-1
1511883874024435,2,1,2,-3,-9,-9,-6,-1
1511883874024435,0,3,-3,-4,4,1,-4,-2
1511883874026441,-1,-6,-4,-16,15,9,4,1
1511883874026441,-1,0,-2,16,36,5,-1,1
1511883874038473,-2,-5,-12,-34,-41,-8,3,-4
1511883874038473,1,-1,3,18,9,6,-2,0
1511883874047497,0,-3,2,10,14,10,9,-4
1511883874047497,3,0,-5,1,-14,-6,-4,-2
1511883874062571,-2,-1,-5,-6,1,2,0,-1
1511883874062571,0,-3,-10,-28,4,-4,-5,-2
1511883874063566,-1,-2,-1,-17,-11,-2,-4,-4
1511883874063566,-3,-7,1,-21,-18,-2,-3,-5
1511883874076604,1,0,1,14,14,2,-1,-4
1511883874076604,-1,-2,-10,-14,-13,-1,-1,-4
1511883874083620,-1,0,-11,-45,-22,-2,0,-1
1511883874083620,-2,-11,-5,24,-15,2,2,1
1511883874100168,7,3,6,77,93,26,9,4
1511883874100168,-3,-1,1,30,24,5,1,0
1511883874101696,2,0,-2,52,19,4,5,0
1511883874101696,2,6,5,31,26,-3,-3,-2
1511883874113761,-3,-9,-14,-41,7,-7,-8,-7
1511883874113761,3,0,-10,61,52,25,12,6
1511883874122756,-1,-3,-1,13,-17,-1,-3,-1
1511883874122756,-2,1,2,-2,-5,-1,-2,-3
1511883874137823,-2,1,1,-13,-34,-8,-5,-1
1511883874137823,-3,-1,0,-22,-28,-11,-6,-3
1511883874138808,-3,-2,-5,-21,-10,0,-2,-4
1511883874138808,1,-2,-16,-70,-30,-8,-7,-4
1511883874159872,-3,0,-3,-12,-16,7,10,1
1511883874159872,-1,-2,-3,6,33,-1,-9,-3
1511883874161882,0,5,6,25,5,2,2,1
1511883874161882,-2,-7,-2,26,-1,-10,-10,-2
1511883874173910,0,1,-1,-12,-4,-4,-5,-2
1511883874173910,-2,-1,-2,-19,-21,0,5,1
1511883874181024,-4,-5,-4,13,-17,-4,-4,0
1511883874181024,3,5,-5,-13,15,3,3,-1
1511883874197465,-5,-5,-2,0,-13,6,4,-2
1511883874197465,-1,1,3,5,-13,-10,-4,1
1511883874199466,-3,-5,-7,-27,9,5,3,-2
1511883874199466,0,1,13,62,30,10,0,-2
1511883874219769,2,3,3,33,-18,-9,-3,-1
1511883874219769,-3,-7,-6,-26,-8,-5,-6,0
1511883874221655,1,1,-2,-31,-11,-2,-2,-1
1511883874221655,-4,-5,-1,10,1,-5,-2,-2
1511883874233687,1,6,2,0,-15,-4,-3,-1
1511883874233687,-3,-6,-4,-56,-33,-4,-4,-5
1511883874242711,-2,-2,3,5,-20,-4,6,0
1511883874242711,-2,-6,-9,-15,-15,-4,0,2
1511883874257753,-3,-6,-7,-11,14,1,-1,-3
1511883874257753,1,4,-3,-24,-29,-4,1,-2
1511883874258770,1,-1,1,24,16,8,6,2
1511883874258770,1,3,2,58,38,14,9,3
1511883874279939,-3,-6,-5,-4,19,7,-5,-6
1511883874279939,-1,0,0,0,5,-13,-7,-1
1511883874281815,-1,-2,-1,22,22,4,-2,-2
1511883874281815,-1,-1,-4,-26,-14,-2,0,1
1511883874294880,-1,-3,-3,4,-8,1,-1,-1
1511883874294880,2,0,2,-2,-8,2,0,3
1511883874301516,-1,-2,-3,6,-8,-8,-6,-1
1511883874301516,-3,-1,-3,-17,-15,-13,-4,0
1511883874317540,-2,-3,0,0,6,7,8,4
1511883874317540,-3,0,3,-27,-19,-7,-1,-6
1511883874319498,0,0,6,36,34,7,1,4
1511883874319498,-4,2,-2,-16,-24,-2,-5,0
1511883874339551,2,6,3,-7,9,5,10,2
1511883874339551,4,4,-4,6,8,-7,-7,1
1511883874341556,-1,0,2,-24,-7,-5,-5,-2
1511883874341556,4,4,8,15,17,2,3,-1
1511883874354592,-2,-9,-3,13,-14,-12,-9,-2
1511883874354592,1,0,-4,16,24,12,8,0
1511883874360606,-2,-3,-6,-24,-11,-9,-4,0
1511883874360606,-2,0,1,-24,-9,3,1,1
1511883874377651,-2,2,2,17,-13,-6,2,2
1511883874377651,3,0,5,48,15,5,-3,0
1511883874378680,-2,-5,-2,7,5,-4,-3,-4
1511883874378680,-2,0,-1,-32,-24,-4,-6,-2
1511883874400242,-1,2,8,6,34,2,1,0
1511883874400242,-1,1,5,13,-31,-3,3,1
1511883874401746,0,4,2,37,29,11,6,1
1511883874401746,3,-2,5,30,-2,-1,-1,0
1511883874414314,2,7,0,18,21,4,-1,-1
1511883874414314,2,-2,2,-24,5,1,4,0
1511883874421310,0,3,-3,-16,-4,-1,-1,-1
1511883874421310,-2,-5,-1,-2,-4,-2,-1,1
1511883874437379,-2,-1,0,-2,-2,-2,-3,-3
1511883874437379,-1,-3,3,51,23,3,1,-1
1511883874439381,0,5,3,18,-4,-3,-3,-3
1511883874439381,-1,-10,-11,-30,-2,0,0,-2
1511883874459434,1,-1,-4,-30,-23,-7,-6,0
1511883874459434,-2,4,1,24,17,2,1,0
1511883874461430,1,-1,-6,-14,6,4,7,1
1511883874461430,-1,3,4,18,-13,-10,-8,-2
1511883874473471,0,0,5,16,2,-3,-3,-1
1511883874473471,-3,-4,-2,8,-4,4,3,1
1511883874482479,-3,-1,-4,18,3,2,6,-1
1511883874482479,2,1,-5,-19,-1,-7,-2,1
1511883874497568,-1,-4,-2,-22,-22,-3,-1,0
1511883874497568,0,-1,-1,-20,9,1,-3,2
1511883874499044,-1,-2,0,-14,1,0,0,-2
1511883874499044,-2,-7,-1,-23,2,3,4,0
1511883874520101,-1,1,4,7,12,-1,-6,-4
1511883874520101,2,-1,3,-10,-23,-5,-4,1
1511883874521115,-1,-3,-5,-45,-16,-6,-3,-1
1511883874521115,3,8,12,73,32,-6,-11,-1
1511883874533137,-2,-2,1,-13,0,-2,3,2
1511883874533137,-3,0,-3,1,17,2,7,0
1511883874542163,-1,0,5,33,5,-1,-8,-2
1511883874542163,0,2,1,1,-16,5,4,0
1511883874557200,0,1,0,17,-3,-6,0,4
1511883874557200,-1,1,4,16,-12,2,2,-2
1511883874563216,0,-5,-5,10,-3,-1,2,2
1511883874563216,-1,-3,-2,6,5,5,2,-1
1511883874580261,-2,-3,-1,3,7,2,-3,-2
1511883874580261,3,8,3,-12,-6,-3,1,3
1511883874581264,-3,-2,-2,-13,-15,-3,-3,-1
1511883874581264,-3,1,-3,-13,17,1,1,-2
1511883874593324,0,-4,-3,-29,-15,-10,-7,0
1511883874593324,-2,2,2,-13,-10,-9,-6,-4
1511883874602851,2,2,7,-22,-3,-2,-2,2
1511883874602851,-1,-1,-7,-55,-9,-2,1,-1
1511883874616923,-1,2,0,-13,-8,3,2,0
1511883874616923,-3,-7,-6,-27,30,-7,-9,-5
1511883874618928,0,7,-1,-35,-2,-6,-2,-2
1511883874618928,-1,-8,0,-10,11,-1,4,2
1511883874640012,4,2,4,-10,12,3,0,0
1511883874640012,0,-3,-4,-71,-2,5,6,1
1511883874641015,2,3,10,36,27,-1,0,2
1511883874641015,-1,1,-1,-17,9,2,1,-4
1511883874653019,0,3,0,-9,-7,0,2,-1
1511883874653019,-3,-2,1,-1,20,-2,-6,-2
1511883874662043,0,2,-2,-26,-2,14,15,3
1511883874662043,-1,0,4,-10,-46,-20,-17,-1
1511883874677110,6,2,3,44,4,7,1,2
1511883874677110,-1,-2,7,57,48,15,5,1
1511883874679090,-1,-1,-1,1,-19,-3,0,0
1511883874679090,0,3,3,21,39,7,4,0
1511883874700179,1,-1,-4,-3,-6,2,0,-1
1511883874700179,-1,0,-2,4,-4,-2,3,1
1511883874701683,2,0,3,45,23,-8,-6,3
1511883874701683,-3,-1,-2,2,-8,3,-1,-3
1511883874713262,-1,1,2,18,-5,-5,-4,2
1511883874713262,3,2,-1,20,-14,-1,0,-1
1511883874722283,1,3,5,8,-5,2,-2,-1
1511883874722283,-1,-6,0,4,-4,-6,-1,0
1511883874736326,-3,4,2,6,-1,1,3,-1
1511883874736326,-2,-2,2,16,-10,-11,-9,-3
1511883874743347,-4,-1,0,-13,0,1,-4,-5
1511883874743347,-1,1,-2,-27,20,3,0,-3
1511883874760368,1,-1,-5,-12,16,12,11,4
1511883874760368,-4,-3,-1,-4,-19,-9,-7,-4
1511883874761368,-1,-4,-9,-56,-12,-2,-2,-3
1511883874761368,3,4,-1,-7,-5,2,1,2
1511883874773398,-1,-5,-7,-26,-18,-11,-12,-5
1511883874773398,-2,0,-4,-4,-4,14,11,-1
1511883874782423,2,1,1,73,43,-3,-5,-1
1511883874782423,1,-2,-4,8,12,0,1,-1
1511883874788439,-4,-3,-2,17,-24,-6,-2,-2
1511883874788439,5,-1,-2,8,-1,3,-1,1
1511883874798020,-1,-5,-5,-20,-21,-2,1,-3
1511883874798020,0,-2,-6,-26,-17,3,-1,0
1511883874811054,-1,-1,-1,-15,5,-4,-3,-3
1511883874811054,-3,-5,-4,-33,-17,-1,2,-1
1511883874820079,-3,-11,-5,-21,-13,-1,2,0
1511883874820079,0,7,0,9,-18,-6,-5,-2
1511883874826123,-4,-12,-7,-41,-18,-1,-3,-2
1511883874826123,1,0,-8,-1,-9,11,3,-4
1511883874835121,1,-1,0,29,5,-12,-15,-3
1511883874835121,1,-4,-2,34,5,0,-1,-2
1511883874848154,-1,1,1,8,3,3,5,-1
1511883874848154,0,1,-1,31,-17,-4,3,4
1511883874857176,-2,-5,-11,-50,4,-1,-5,-1
1511883874857176,-1,-1,1,7,0,4,3,-1
1511883874871214,2,1,1,6,20,5,1,-1
1511883874871214,-3,-1,-2,5,-2,-7,-4,1
1511883874880238,-2,-1,-5,1,8,9,4,1
1511883874880238,-1,3,5,30,10,4,3,0
1511883874886282,-3,-2,-5,-1,-2,-4,-1,0
1511883874886282,3,0,3,-16,12,-3,-3,1
1511883874895305,-5,-3,-4,-8,-33,-9,-2,-3
1511883874895305,1,-1,-7,-18,8,12,1,0
1511883874908871,-1,0,1,6,-42,-7,-1,4
1511883874908871,-1,0,1,10,14,4,-3,-4
1511883874917410,2,5,6,25,37,-6,-12,1
1511883874917410,-3,-4,1,-15,-41,-2,1,2
1511883874931460,-2,-1,-1,3,9,1,2,2
1511883874931460,-1,3,3,-5,8,2,3,-2
1511883874940470,0,-4,-3,-7,-16,1,-1,-3
1511883874940470,-2,3,0,4,-6,-12,-7,-4
1511883874945483,1,0,0,7,18,4,1,-1
1511883874945483,-1,1,-2,-25,-16,-7,-7,0
1511883874954507,-1,-3,-1,-18,-9,12,8,-1
1511883874954507,2,3,5,62,35,6,2,2
1511883874968546,-4,-4,-1,8,4,-2,-3,-4
1511883874968546,-2,1,0,-3,2,1,0,-1
1511883874977570,4,1,2,1,-8,-5,1,4
1511883874977570,-6,-8,-4,-23,-4,12,7,-5
1511883874990627,4,2,2,12,1,-10,-8,5
1511883874990627,-1,-8,-1,11,1,0,-3,0
1511883875000159,-1,-3,-5,-30,3,3,6,0
1511883875000159,2,0,0,-16,-1,-2,-4,0
1511883875006202,1,-4,-8,-9,-12,8,9,2
1511883875006202,-3,-1,1,9,29,0,-1,-4
1511883875014700,-2,0,-1,-15,-10,-6,-3,2
1511883875014700,-1,1,1,-6,-12,-4,-2,-3
1511883875028763,-3,-5,0,3,3,1,-3,-3
1511883875028763,2,1,-4,-33,-16,-2,2,1
1511883875037760,2,0,2,-10,-17,-10,-3,1
1511883875037760,2,-3,3,6,24,4,1,0
1511883875050821,-2,-2,-4,0,15,-3,-4,-2
1511883875050821,0,0,-6,-4,-12,1,0,-1
1511883875059819,0,4,3,14,9,1,-5,-2
1511883875059819,-3,-2,-8,-56,-33,4,11,2
1511883875065861,2,-1,1,1,-6,-9,-6,2
1511883875065861,7,0,0,48,61,15,2,0
1511883875074858,-2,3,2,23,-2,4,8,-1
1511883875074858,-1,-2,1,5,11,-1,-4,0
1511883875088923,0,1,-1,0,-9,17,13,-3
1511883875088923,-2,-5,0,-9,-13,-18,-20,3
1511883875105465,1,-3,0,7,-14,-4,4,2
1511883875105465,-3,3,1,25,7,6,-2,-2
1511883875111006,1,0,-1,-2,13,-5,-5,-1
1511883875111006,-5,-1,-5,-7,-22,1,10,1
1511883875120031,-1,-4,-3,-7,-14,1,-2,-4
1511883875120031,-2,-1,-3,3,-15,-15,-10,-1
1511883875126064,-3,-1,-2,-14,10,6,0,-3
1511883875126064,-1,0,1,-4,-18,-12,-7,0
1511883875135070,-2,-2,-1,23,21,0,0,-3
1511883875135070,-1,-3,-4,2,-4,-3,3,1
1511883875148133,0,1,-3,-17,-9,-7,-7,-2
1511883875148133,2,2,0,4,5,0,2,-1
1511883875157130,0,3,6,35,33,9,3,-1
1511883875157130,-1,0,4,11,-11,-7,-9,2
1511883875171198,-3,-2,-1,2,-8,-6,-4,-1
1511883875171198,-1,-1,-1,-12,-24,-1,1,-2
1511883875180227,-2,0,-4,-19,-18,0,-3,-3
1511883875180227,2,1,1,9,3,-5,-2,-1
1511883875186261,-6,-8,-4,-7,0,2,0,-2
1511883875186261,1,-3,-5,-12,-10,-3,-5,-3
1511883875195230,-1,-2,1,-2,-5,2,4,0
1511883875195230,4,2,-1,-5,1,-2,1,6
1511883875208771,-1,2,3,-2,-18,-8,-4,-3
1511883875208771,-3,-3,1,-1,9,6,4,-1
1511883875217947,0,-4,-6,5,-9,2,0,3
1511883875217947,0,0,0,-4,-4,-1,-1,-3
1511883875231071,0,0,4,-11,-1,-5,-1,-3
1511883875231071,0,1,0,5,-1,1,3,1
1511883875239976,-2,0,1,-2,-24,-6,-8,-2
1511883875239976,1,-1,-2,-18,-20,0,16,3
1511883875245996,4,6,5,24,52,1,-12,0
1511883875245996,-3,-2,-1,1,-15,-3,5,0
1511883875255017,1,2,2,-6,9,4,2,0
1511883875255017,-2,-4,-2,-5,-16,-10,-12,-6
1511883875269144,-3,1,-1,3,2,8,8,-2
1511883875269144,1,5,3,10,4,-3,-5,1
1511883875278190,-1,-6,-3,6,0,0,1,2
1511883875278190,-2,0,-5,-26,1,2,-2,-4
1511883875291137,1,0,-1,7,1,-1,3,2
1511883875291137,2,-1,0,-2,5,1,1,0
1511883875300164,-1,-1,-2,-15,-9,-4,-4,-3
1511883875300164,1,4,1,-4,-1,-2,3,5
1511883875337838,-4,1,0,6,-7,-5,-8,-6
1511883875337838,-2,-2,4,23,29,10,-1,-1
1511883875340846,-2,0,-3,-13,-10,-3,1,-2
1511883875340846,1,2,4,2,5,2,1,-1
1511883875350985,-4,-3,-5,-6,-9,1,3,1
1511883875350985,0,-2,-4,-9,-10,-2,-4,-1
1511883875359895,2,2,0,0,1,-1,-1,-3
1511883875359895,-1,0,-1,4,0,1,-2,0
1511883875374968,1,1,-2,-13,-2,-4,3,2
1511883875374968,-4,-3,0,4,13,2,-2,-1
1511883875375939,-2,2,4,3,8,2,2,1
1511883875375939,-4,1,4,15,10,-1,-2,-3
1511883875388973,-3,-5,1,11,-18,-5,-7,2
1511883875388973,3,2,5,2,-18,-7,2,-1
1511883875389976,1,3,2,8,8,-4,-1,3
1511883875389976,-1,4,4,11,6,5,1,0
1511883875403541,4,13,9,5,37,7,-1,0
1511883875403541,-11,-34,-8,-6,-30,-9,-1,1
1511883875412625,1,-5,5,8,-9,0,-1,3
1511883875412625,1,17,11,6,32,1,-2,-1
1511883875427665,-1,-18,-3,-3,-16,-2,6,4
1511883875427665,1,12,6,-1,18,-4,-2,-7
1511883875428672,-4,0,4,-1,20,2,0,5
1511883875428672,4,10,6,5,-7,1,-4,0
1511883875434685,-1,-2,6,9,-10,-3,7,2
1511883875434685,2,15,4,-13,24,6,2,3
1511883875436691,0,0,-2,-11,-25,-3,5,-2
1511883875436691,-1,-3,4,8,5,-5,-4,2
1511883875448749,2,8,12,12,-8,-2,0,2
1511883875448749,0,-2,1,2,-8,-5,-5,-1
1511883875457745,2,7,4,0,20,-4,1,3
1511883875457745,-1,-6,3,-5,-2,0,2,-2
1511883875470810,0,6,2,2,6,0,-4,-4
1511883875470810,-2,-1,7,-3,2,-8,2,3
1511883875479803,-1,-1,-1,-3,13,1,-8,-5
1511883875479803,-2,-8,-11,1,-19,-5,3,0
1511883875495382,-3,-6,-7,-20,-12,-1,0,-1
1511883875495382,2,6,2,-1,5,3,2,1
1511883875496880,-1,1,5,8,0,0,-2,-1
1511883875496880,-3,-8,-5,-9,-16,-3,-1,-2
1511883875508912,-3,4,3,-2,33,0,-2,-1
1511883875508912,4,5,-2,0,7,1,-7,2
1511883875517970,-2,-1,6,-3,-38,-7,-2,-3
1511883875517970,-2,-7,-3,11,13,3,1,-1
1511883875531000,-2,-1,-4,-23,-6,2,1,0
1511883875531000,2,1,0,0,5,2,5,0
1511883875547048,-1,-3,0,-8,13,-5,-5,-1
1511883875547048,2,-2,-7,-24,6,0,1,-2
1511883875555043,-2,1,4,18,-2,-7,-5,-4
1511883875555043,2,0,-5,-1,-2,5,3,-1
1511883875556058,-2,-9,-2,-6,-11,-3,-2,2
1511883875556058,-2,0,0,3,-1,-3,-3,0
1511883875568098,3,0,1,-1,8,1,1,-1
1511883875568098,-5,0,2,2,-17,-4,-3,-1
1511883875577122,2,5,0,1,8,-1,-2,-2
1511883875577122,-2,-2,3,12,16,4,0,1
1511883875591132,0,-4,0,3,6,-1,2,-1
1511883875591132,-2,6,3,4,9,-4,-6,-5
1511883875600186,1,2,1,-6,-7,1,5,1
1511883875600186,-3,-3,0,22,14,4,2,0
1511883875615284,0,1,-3,-29,2,7,2,-4
1511883875615284,0,-9,-5,-3,-9,-13,-8,3
1511883875616265,-1,2,-3,11,-4,2,1,-2
1511883875616265,-2,-4,-4,-16,-3,-2,0,-2
1511883875628323,2,7,-2,15,16,6,-1,0
1511883875628323,-3,-7,-3,13,-2,8,6,0
1511883875637329,0,1,-3,-3,2,-4,-5,-3
1511883875637329,2,2,-3,8,-4,0,0,1
1511883875651376,-3,-2,0,6,-16,-4,-3,-1
1511883875651376,-2,-1,-3,-9,-12,-2,1,0
1511883875660401,-1,2,-2,-3,4,0,1,-1
1511883875660401,-1,0,0,-2,-13,-1,0,-2
1511883875674438,2,-3,-1,-6,12,0,-3,1
1511883875674438,0,-1,-1,-2,3,2,6,1
1511883875676417,-3,-4,-2,0,-1,-6,-6,-3
1511883875676417,2,0,-3,-20,-14,-3,-1,-1
1511883875688449,3,-1,5,15,8,-1,-1,1
1511883875688449,1,1,4,-2,0,-1,-2,-3
1511883875697505,0,0,3,3,4,-2,2,0
1511883875697505,-3,-4,1,-8,13,-1,-2,0
1511883875711066,-4,-4,-3,10,-3,1,-2,1
1511883875711066,0,0,-1,-9,-1,1,-1,-2
1511883875720536,0,0,0,3,6,-1,-1,0
1511883875720536,0,0,-1,2,-11,-1,4,0
1511883875734570,-3,3,2,7,10,-8,-13,-2
1511883875734570,-6,-11,-3,-10,-34,-5,-1,0
1511883875736549,-5,-6,-8,-7,3,7,4,-2
1511883875736549,4,2,2,-1,5,-3,-3,1
1511883875748607,1,1,0,-14,-9,-2,2,0
1511883875748607,1,1,-2,14,5,2,0,0
1511883875757605,-1,-3,-2,1,-4,-4,0,1
1511883875757605,-1,-4,-1,-17,-1,-7,-4,-3
1511883875770640,0,-4,-1,-3,-18,-4,2,1
1511883875770640,0,2,-2,3,15,-2,-1,-1
1511883875779685,2,-2,5,15,9,5,1,2
1511883875779685,-2,1,-1,-12,1,-2,-1,-1
1511883875794730,2,0,-7,-8,-10,0,3,1
1511883875794730,1,-4,1,-4,5,2,-1,1
1511883875796709,-1,1,-2,-6,-13,-1,1,0
1511883875796709,2,4,2,8,7,1,0,-2
1511883875808741,-1,-11,0,-4,-1,-1,-2,-2
1511883875808741,0,5,2,18,2,-1,-1,1
1511883875817766,1,0,-7,-14,-5,-1,-4,0
1511883875817766,0,4,5,30,18,4,-1,-3
1511883875830801,-1,-10,-17,-50,2,3,7,2
1511883875830801,0,3,7,20,10,-1,-2,-2
1511883875839825,0,-4,1,-9,4,-1,-7,-3
1511883875839825,-2,-3,-1,-4,-5,-1,-3,0
1511883875854892,-1,5,5,-1,2,0,1,0
1511883875854892,-1,2,-1,-3,-4,-7,-2,1
1511883875856899,-2,-3,-2,-1,4,3,2,2
1511883875856899,-3,-5,-3,-22,-22,-7,-1,-1
1511883875868902,1,3,6,23,25,2,-2,-2
1511883875868902,-1,-7,-4,-23,-32,2,6,2
1511883875877926,0,4,3,20,8,7,3,-3
1511883875877926,1,3,-3,-1,2,-3,-1,0
1511883875890988,-6,-1,3,9,-11,-3,-5,-3
1511883875890988,0,0,-2,-4,19,1,-2,-2
1511883875900515,3,2,1,9,4,7,5,2
1511883875900515,0,-3,-1,-7,-8,-1,1,1
1511883875915057,2,17,7,14,-2,-1,1,-1
1511883875915057,1,2,1,4,21,1,1,-2
1511883875916060,-3,-4,0,4,-10,-8,-5,-2
1511883875916060,0,0,-3,-2,0,1,-2,-1
1511883875928092,1,-5,2,12,-6,-1,-1,0
1511883875928092,-2,-1,-2,-12,-1,-2,-2,-1
1511883875937115,0,1,-2,7,30,3,0,1
1511883875937115,-3,-4,2,9,3,-1,-2,-1
1511883875951152,-3,-1,-2,7,2,1,-4,-1
1511883875951152,-2,-2,1,-2,0,2,-2,1
1511883875960176,-2,-13,-8,-3,4,-2,0,-1
1511883875960176,1,5,3,-2,15,1,0,-1
1511883875975216,-3,-11,-6,-3,-30,-2,4,0
1511883875975216,0,2,3,-21,-6,-1,-4,-2
1511883875976218,-3,-1,6,2,-1,-2,-1,-2
1511883875976218,2,5,8,51,15,4,0,1
1511883875988251,-1,-1,-5,-27,6,-2,-2,-1
1511883875988251,1,-1,-1,7,-11,-1,1,1
1511883875997832,0,1,-2,-9,-5,2,3,0
1511883875997832,0,-5,-1,0,-1,-9,-7,0
1511883876011342,-2,2,0,-20,-11,-5,-4,-3
1511883876011342,1,-2,-7,-2,7,0,-3,0
1511883876020368,2,2,-2,-12,-4,1,-1,-1
1511883876020368,0,1,-2,-9,4,4,4,1
1511883876034405,4,-1,-2,-1,-8,-3,1,2
1511883876034405,-1,-3,-8,-45,-13,-3,-2,-5
1511883876036424,0,4,3,12,23,2,0,-1
1511883876036424,-2,-4,-2,6,-2,-1,-3,-2
1511883876048468,-1,-6,-7,-29,-1,0,-1,1
1511883876048468,1,3,3,16,7,4,-1,-1
1511883876057466,1,-4,-2,-4,-11,-5,1,1
1511883876057466,1,2,-2,-12,-1,1,1,-2
1511883876071502,-3,0,7,15,14,1,-2,-1
1511883876071502,0,2,0,16,19,1,3,3
1511883876079556,0,1,-3,12,-33,-11,-6,-2
1511883876079556,-2,-1,1,-8,-27,-4,1,-1
1511883876094591,-2,2,-3,8,2,-1,0,0
1511883876094591,-3,-8,-4,-9,-7,-3,-3,-1
1511883876096597,-2,1,0,3,16,4,2,0
1511883876096597,1,-1,-5,-20,-4,0,0,1
1511883876108655,3,4,-1,17,3,3,4,-1
1511883876108655,-2,-2,1,-11,-11,-2,0,-3
1511883876117688,2,6,1,-5,2,2,1,2
1511883876117688,-7,-8,-2,-5,-3,-1,-3,-2
1511883876130732,-1,1,-3,-11,18,6,2,0
1511883876130732,0,2,-1,21,2,2,4,3
1511883876139743,-1,0,0,-8,-9,-9,-7,-4
1511883876139743,-2,-4,-6,-17,1,2,1,-1
1511883876154779,-1,-1,-1,3,-6,-3,-2,-3
1511883876154779,-2,-6,-6,-26,-4,3,6,-1
1511883876156783,0,1,2,-7,2,6,7,0
1511883876156783,-3,-1,-1,-9,-3,-20,-17,-3
1511883876168847,0,-3,-2,-2,-6,2,-1,-2
1511883876168847,1,4,2,10,11,0,-1,-1
1511883876177863,-1,-2,-2,4,13,1,0,-1
1511883876177863,1,-1,1,2,-13,-1,0,0
1511883876191000,-1,2,7,12,-8,-1,-2,0
1511883876191000,-1,0,4,11,-10,-3,-5,-3
1511883876200405,1,-1,-3,-15,-5,-4,-5,0
1511883876200405,-4,-3,-1,-1,-5,6,5,1
1511883876214596,-1,-2,-6,2,-14,-8,-3,-2
1511883876214596,0,4,3,10,4,2,1,0
1511883876216599,-2,3,3,14,-25,-8,-1,1
1511883876216599,0,4,-2,10,25,6,-1,-1
1511883876228763,-2,-5,0,-6,-6,0,2,0
1511883876228763,-3,1,2,-3,4,-1,-2,-1
1511883876237653,-4,-4,-1,8,-2,-6,-6,-2
1511883876237653,2,-2,-2,3,-25,-2,0,-1
1511883876250719,-2,-1,-3,5,10,3,-4,-2
1511883876250719,-1,-1,2,1,2,-3,0,-1
1511883876259715,1,1,2,-7,-3,3,1,-1
1511883876259715,-3,4,-5,5,11,0,5,2
1511883876274751,1,-1,-1,8,-4,1,2,3
1511883876274751,2,0,-3,-14,-11,0,-1,-1
1511883876276757,-1,6,-2,1,-1,0,-4,-3
1511883876276757,-1,-5,2,3,11,3,0,-2
1511883876288788,1,0,-3,-6,10,3,8,4
1511883876288788,-5,0,-6,-38,-16,-12,-18,-8
1511883876297997,0,-1,2,17,-2,8,9,3
1511883876297997,0,0,2,14,4,-4,-7,2
1511883876311555,-1,3,7,15,-14,-3,0,-2
1511883876311555,-5,-8,2,21,30,5,1,-3
1511883876319772,0,-2,-5,-16,6,-4,-4,-2
1511883876319772,1,0,0,6,-20,2,4,-1
1511883876334858,0,-1,1,-13,-2,-6,-4,-1
1511883876334858,3,9,-3,-7,-17,2,5,3
1511883876340745,-3,-10,-2,7,0,-2,-3,0
1511883876340745,-1,-5,1,-18,4,2,2,1
1511883876348889,0,2,-1,-4,13,4,3,0
1511883876348889,2,-2,-6,-15,-11,-6,-8,-2
1511883876357790,0,4,-1,-24,23,-2,-3,-4
1511883876357790,1,-8,-2,5,-3,2,2,-1
1511883876370941,0,1,-5,4,1,2,-1,-4
1511883876370941,-2,-4,-2,-12,-2,0,0,-1
1511883876379848,-2,-2,0,1,-8,4,4,1
1511883876379848,-2,3,1,-5,-2,-2,-1,-1
1511883876393923,-2,1,1,15,-1,-6,-5,1
1511883876393923,0,-1,0,19,-5,-3,1,1
1511883876401476,5,1,3,11,5,-4,-7,-1
1511883876401476,0,0,3,6,-2,1,-1,-3
1511883876409013,0,2,-2,-6,1,1,3,2
1511883876409013,0,-1,0,24,4,1,1,1
1511883876417041,1,3,3,-6,-4,1,1,0
1511883876417041,0,-10,0,-1,-9,1,3,-2
1511883876431082,-3,-9,-1,2,13,-3,-8,-1
1511883876431082,-3,-2,0,6,-26,-4,0,1
1511883876440077,-4,-1,-1,-5,-3,4,5,0
1511883876440077,2,4,1,-5,16,-2,-1,0
1511883876454142,4,1,-5,-40,-18,2,5,0
1511883876454142,-1,-3,-1,7,16,-1,-3,-3
1511883876461162,-3,-10,-6,-19,5,-2,-3,0
1511883876461162,0,8,-3,-6,-3,-2,2,0
1511883876477177,2,-6,1,9,-15,-2,2,1
1511883876477177,0,4,0,-3,10,4,1,-1
1511883876479182,0,1,2,-3,-8,-9,-5,0
1511883876479182,-4,1,-6,-20,6,2,2,0
1511883876491213,-1,0,4,7,2,1,-2,-1
1511883876491213,0,-3,-4,-22,13,3,2,-2
1511883876500239,1,2,-6,-8,-11,-5,-4,0
1511883876500239,-2,1,1,8,1,0,1,0
1511883876514324,0,2,4,9,-10,-3,-1,-1
1511883876514324,0,-9,-8,-21,11,-4,-5,-1
1511883876521320,-5,-7,-1,2,9,2,0,-2
1511883876521320,1,1,-1,-5,-18,-5,-2,0
1511883876537362,-3,-3,0,-3,-2,2,2,-2
1511883876537362,0,3,6,16,6,-1,-3,0
1511883876539367,0,3,0,6,5,4,1,0
1511883876539367,3,-2,-5,-19,-1,1,1,-1
1511883876551399,-6,-4,-1,4,9,2,-5,1
1511883876551399,0,1,4,14,-7,1,7,1
1511883876560423,-1,1,-1,-6,5,-1,-2,-3
1511883876560423,2,5,5,18,-1,-1,-3,3
1511883876574488,-3,-6,-3,-29,-1,-5,-6,-4
1511883876574488,-2,2,2,9,-4,2,3,1
1511883876580506,-1,-2,-1,3,-7,1,2,0
1511883876580506,-1,-2,1,0,-2,2,0,-2
1511883876597546,-1,-1,-3,12,9,-2,-1,-2
1511883876597546,1,0,0,-9,-40,-8,-2,0
1511883876599051,0,4,-1,-7,9,1,0,-2
1511883876599051,-2,0,-1,-7,5,1,-2,-2
1511883876611083,-2,4,1,1,-8,-5,-1,1
1511883876611083,-1,-4,-2,0,-7,-1,0,0
1511883876619607,-2,1,-2,7,-1,-2,-2,1
1511883876619607,2,0,-4,-8,-2,-5,-3,1
1511883876634673,2,0,2,9,6,-3,-2,-2
1511883876634673,1,2,3,7,11,5,5,0
1511883876640663,1,-4,-2,0,-10,1,3,0
1511883876640663,-1,4,2,7,7,0,0,0
1511883876657711,-2,-6,-7,-5,0,3,4,1
1511883876657711,0,0,-8,-13,-10,-6,-3,-1
1511883876658713,-1,0,6,13,1,-12,-14,-5
1511883876658713,2,-1,-3,-15,4,3,-1,-3
1511883876670745,1,0,-2,-7,-8,1,3,0
1511883876670745,0,-3,6,19,-7,13,11,0
1511883876679769,-2,1,-4,-15,0,-12,-5,2
1511883876679769,-2,-3,-2,-1,-9,0,-1,-2
1511883876693822,-2,1,2,18,7,2,1,1
1511883876693822,0,-2,1,-4,6,6,0,0
1511883876701351,1,0,0,-9,-8,-4,1,0
1511883876701351,-1,0,1,16,7,2,-1,0
1511883876716895,1,0,1,2,6,1,-1,-1
1511883876716895,-1,4,-1,-1,0,0,1,1
1511883876718901,-3,-14,-5,6,2,5,4,-3
1511883876718901,-3,-1,-1,13,0,-8,-6,-2
1511883876730958,0,4,-1,-51,-15,-4,-5,-4
1511883876730958,-3,-3,-3,3,2,-6,-5,0
1511883876739956,1,5,1,0,11,4,0,-1
1511883876739956,-3,-6,-5,7,3,5,2,0
1511883876754021,1,-3,1,16,6,7,7,1
1511883876754021,-1,2,3,11,12,0,1,-1
1511883876761039,0,2,1,5,-15,-5,-2,-5
1511883876761039,-2,-2,-1,0,-5,-4,-5,-1
1511883876777055,-1,0,1,12,16,3,-2,-1
1511883876777055,-2,-2,-3,-17,-17,-10,-7,-2
1511883876779060,-2,-2,4,14,5,6,2,3
1511883876779060,3,-1,1,-19,1,0,8,0
1511883876791118,1,3,-5,1,12,1,-6,-1
1511883876791118,-1,-4,-4,1,-7,1,2,-1
1511883876800145,1,0,-10,-15,-18,-3,2,3
1511883876800145,0,-1,1,-10,5,1,0,0
1511883876836785,-1,0,1,24,-6,-6,5,-1
1511883876836785,-1,2,2,4,20,-11,-7,-2
1511883876846838,-1,-1,-7,-12,-20,3,1,-2
1511883876846838,0,-2,2,9,4,-1,-2,-3
1511883876859872,2,3,4,7,-11,5,2,1
1511883876859872,-2,-2,-5,-5,45,-1,0,-4
1511883876861876,-2,-2,0,-10,-25,-7,-2,1
1511883876861876,-2,2,2,-2,-8,-1,-4,-1
1511883876866891,0,-5,4,18,77,6,1,1
1511883876866891,0,7,8,9,-41,-1,0,2
1511883876867894,0,4,8,3,-20,1,3,3
1511883876867894,-2,-3,5,19,-11,8,8,1
1511883876873906,0,3,-1,-7,14,-4,-3,1
1511883876873906,-1,0,0,8,16,5,1,3
1511883876880928,-1,-1,1,-10,-1,-12,-9,-4
1511883876880928,1,3,3,-3,6,1,0,4
1511883876896971,-2,-3,1,-8,-28,1,7,-1
1511883876896971,0,2,4,16,3,-13,-13,2
1511883876898951,-1,1,0,-8,10,12,5,-2
1511883876898951,-2,-2,-4,15,15,-7,-3,-1
1511883876911508,1,-6,-2,6,0,-10,-10,-2
1511883876911508,-1,-1,5,-11,-25,3,8,0
1511883876919557,-1,0,0,-32,-10,3,0,-2
1511883876919557,-1,-3,3,3,9,-8,-1,5
1511883876934570,-3,0,1,1,-25,1,1,-2
1511883876934570,4,0,-2,-13,1,-1,-2,0
1511883876940613,0,-6,1,14,16,3,6,1
1511883876940613,1,-2,-8,-7,-10,3,3,0
1511883876957659,-2,1,-1,-18,-21,-1,0,0
1511883876957659,-1,0,3,-4,3,-16,-21,-8
1511883876958655,0,-1,0,9,13,10,13,3
1511883876958655,1,0,-5,-14,-3,-11,-9,-3
1511883876970693,-1,0,1,0,-2,-2,-1,-1
1511883876970693,-2,0,-4,-6,-33,18,17,-2
1511883876979690,-3,5,6,13,3,-23,-18,0
1511883876979690,0,-2,2,-5,-3,2,2,-1
1511883876993757,0,0,-5,-17,7,-3,-2,1
1511883876993757,-1,0,2,6,4,11,10,0
1511883877001304,0,-7,-7,-7,3,-3,-6,-1
1511883877001304,0,1,3,14,-15,-1,-1,-1
1511883877016870,-1,1,-3,1,-8,0,2,1
1511883877016870,-5,-5,-7,-28,23,-7,-7,-3
1511883877018852,2,-3,-2,11,9,9,11,2
1511883877018852,-4,-1,0,-5,-2,-5,-9,-3
1511883877030884,0,2,2,3,-7,3,2,0
1511883877030884,-4,1,-2,15,47,11,2,1
1511883877047956,1,-1,-8,-7,-19,-15,-7,-2
1511883877047956,-1,0,3,-6,-14,5,11,-2
1511883877053971,2,0,2,-4,-5,-3,1,1
1511883877053971,3,-1,-4,-1,4,7,-1,1
1511883877060985,-1,2,-1,1,-18,-8,4,3
1511883877060985,-3,-2,-1,8,-14,-3,-3,0
1511883877077033,-5,-5,-1,-9,-13,-11,-9,-4
1511883877077033,-2,1,-2,9,28,7,3,-1
1511883877079012,1,2,5,9,7,7,0,-1
1511883877079012,-4,-6,-1,-5,-1,0,1,-2
1511883877091070,-1,4,1,-3,-12,-2,3,2
1511883877091070,-4,-2,-4,-16,-20,-7,0,-2
1511883877100096,-1,-3,2,15,6,0,-5,-4
1511883877100096,5,2,0,-15,26,2,3,2
1511883877114635,0,-4,-2,-7,-1,0,-2,-2
1511883877114635,2,-2,-1,25,-13,-2,-4,-1
1511883877121156,-2,1,-1,-1,13,-6,-4,2
1511883877121156,-3,-4,-4,-8,-10,0,2,0
1511883877137229,2,3,-2,-2,21,2,-4,0
1511883877137229,1,-5,5,-4,-49,-9,2,3
1511883877139204,-1,1,-3,-5,15,3,-5,-8
1511883877139204,2,-1,-1,12,5,-1,0,1
1511883877151239,1,1,1,-4,18,7,2,0
1511883877151239,1,5,2,19,21,-4,0,3
1511883877160259,-1,-14,-3,4,2,0,-1,-3
1511883877160259,-2,1,-2,2,-3,-2,-6,-1
1511883877174340,-1,-3,-1,8,-5,-3,-3,-4
1511883877174340,2,4,1,-14,-7,0,3,3
1511883877181346,-1,-3,0,3,-7,3,7,1
1511883877181346,-1,1,-1,1,17,1,-2,-2
1511883877197417,-3,-4,0,-13,-20,-4,-2,-1
1511883877197417,0,-5,-1,-1,6,3,2,2
1511883877199367,0,4,6,15,11,-7,-11,-2
1511883877199367,0,-3,1,1,-30,-5,-4,-2
1511883877211449,-3,-2,-4,2,0,3,6,-1
1511883877211449,-2,-2,1,1,-1,-4,-6,-2
1511883877219708,0,1,1,-1,-17,1,6,1
1511883877219708,-1,2,-2,-13,-2,-5,-6,-3
1511883877265998,-4,-6,-1,11,29,-1,-4,-2
1511883877265998,-3,-4,-7,-18,-20,2,6,-1
1511883877267792,-1,3,0,-7,13,-2,-4,1
1511883877267792,2,-2,1,3,-1,2,0,2
1511883877279943,0,0,-1,-8,-28,3,8,0
1511883877279943,2,2,1,-7,2,-16,-16,-1
1511883877281947,0,4,0,12,11,12,6,0
1511883877281947,0,-5,-4,-4,-2,-2,3,0
1511883877293861,0,4,2,-9,-4,-2,-6,0
1511883877293861,-1,-3,-2,15,12,2,1,-3
1511883877302503,1,4,4,-9,-19,1,4,1
1511883877302503,-3,4,5,-11,-14,-19,-12,-4
1511883877317653,-4,-7,2,3,10,0,-1,-2
1511883877317653,3,1,5,0,27,1,6,1
1511883877323665,-4,-3,-1,-4,-33,-4,1,-2
1511883877323665,1,-2,2,10,35,11,5,2
1511883877331686,4,3,4,-2,4,-6,-4,2
1511883877331686,-1,1,4,-5,-6,-3,-2,-1
1511883877332689,3,3,6,-5,6,10,6,1
1511883877332689,1,1,-1,6,15,0,4,5
1511883877345921,-1,4,8,9,-22,-24,-13,-2
1511883877345921,-4,0,4,8,14,7,1,0
1511883877354772,1,2,5,-1,6,0,0,3
1511883877354772,-1,-5,-2,-8,-22,0,5,-2
1511883877369973,2,4,4,7,18,-6,-8,-3
1511883877369973,3,1,0,-30,-5,-1,4,-3
1511883877371794,0,1,1,3,4,-9,-10,-1
1511883877371794,-2,-4,4,15,16,3,-4,-5
1511883877384827,1,-1,2,6,-3,3,6,0
1511883877384827,-1,-3,-7,-23,-11,1,-1,-4
1511883877386833,-4,-1,-4,-18,-11,-2,1,-2
1511883877386833,-1,0,0,-4,1,-1,-5,-4
1511883877407390,-1,-2,-4,-24,5,5,0,0
1511883877407390,-1,1,1,8,-8,-1,-3,1
1511883877409408,1,-1,2,1,6,0,-5,-4
1511883877409408,3,5,-1,-13,5,2,2,2
1511883877421428,-1,-2,-7,-14,-5,-8,-2,3
1511883877421428,0,-1,0,2,-18,2,-1,0
1511883877430452,-3,-7,-12,-24,24,0,-2,-3
1511883877430452,1,2,2,6,-16,10,5,-2
1511883877444489,1,0,-4,-11,19,9,2,0
1511883877444489,1,4,0,-12,-8,-19,-12,-7
1511883877446495,-2,-4,-1,23,5,-3,-8,2
1511883877446495,1,1,-5,-4,1,-3,-2,0
1511883877459556,-4,-2,-4,-42,-22,2,6,0
1511883877459556,-2,-1,-2,2,-2,2,0,-1
1511883877461535,1,1,0,0,-8,6,5,1
1511883877461535,-1,-2,-5,-27,2,-6,1,-2
1511883877474569,2,-4,-3,11,-4,0,-8,-1
1511883877474569,0,0,0,3,5,0,1,-1
1511883877480612,-3,-2,-4,-10,-10,-1,2,0
1511883877480612,2,1,1,2,-10,4,3,2
1511883877496655,1,-1,-4,16,-4,-3,3,-1
1511883877496655,-1,-3,-3,5,-2,-9,-10,-3
1511883877503711,-1,0,-1,-23,7,0,-2,-4
1511883877503711,-4,-1,3,10,2,-3,0,-1
1511883877519771,0,1,-3,-9,-15,1,3,0
1511883877519771,-1,-1,-1,-1,-4,5,2,0
1511883877521757,2,-1,3,17,12,-2,-3,-1
1511883877521757,-1,0,0,-8,-1,-2,-4,-2
1511883877533813,-3,-2,1,1,-2,-1,-3,-2
1511883877533813,1,3,1,-9,-7,1,3,2
1511883877542836,-4,-2,-6,-5,3,1,4,-2
1511883877542836,-1,-8,-5,7,15,-1,-5,-1
1511883877556847,-1,0,0,3,6,7,1,-2
1511883877556847,0,-5,0,4,-4,-10,-7,0
1511883877563893,-1,5,3,-4,-12,0,2,0
1511883877563893,-2,2,1,0,10,-3,-7,-1
1511883877579935,-3,-4,-3,-9,-14,-1,2,1
1511883877579935,3,3,1,1,3,6,4,2
1511883877581921,-2,-3,-1,-5,-10,-7,-5,-3
1511883877581921,0,1,0,-7,-11,-2,-5,-3
1511883877602496,-1,-2,3,6,13,-3,-3,-1
1511883877602496,-3,1,2,4,1,4,1,-1
1511883877603975,0,-2,-5,-3,13,-1,-1,-1
1511883877603975,3,1,-1,-12,-10,1,4,1
1511883877617053,0,2,1,5,-2,-3,-1,-1
1511883877617053,-2,-4,-2,8,5,4,0,-1
1511883877623076,0,-2,-2,-16,-1,-2,-2,2
1511883877623076,-4,1,0,6,6,-2,1,-4
1511883877640121,0,5,-2,-10,-13,-2,-2,0
1511883877640121,0,-9,-2,-1,-12,-3,0,0
1511883877641125,-1,3,-1,5,4,3,1,-2
1511883877641125,-1,-2,-3,-17,-2,0,3,1
1511883877654152,0,0,2,9,3,-9,-9,-2
1511883877654152,-1,-1,-1,11,12,0,-3,1
1511883877661174,-1,-4,-1,3,2,1,6,0
1511883877661174,-1,3,0,-1,-5,1,0,2
1511883877677216,2,0,1,-1,18,7,10,4
1511883877677216,-4,-2,-4,-11,-26,-10,-8,-3
1511883877683205,2,-3,2,10,4,1,0,1
1511883877683205,1,-2,0,8,2,-4,-9,-1
1511883877700252,-1,-1,0,-14,3,10,5,-2
1511883877700252,-1,0,5,22,-3,-12,-7,2
1511883877701759,1,4,-3,-7,-9,3,4,1
1511883877701759,-3,1,1,11,-7,-1,1,-2
1511883877714292,-4,-13,-6,3,-3,-1,-7,-4
1511883877714292,-2,0,-1,-27,-13,2,12,3
1511883877721313,1,2,4,8,6,-4,-11,-4
1511883877721313,-2,-3,-3,-12,-24,-1,4,-1
1511883877736353,0,-3,0,18,-12,-2,-5,-2
1511883877736353,-3,-2,-7,-15,17,-1,0,-3
1511883877743397,-1,-1,4,2,2,0,6,1
1511883877743397,1,1,1,-13,-6,-1,-3,0
1511883877759441,-1,1,-3,0,-9,1,7,2
1511883877759441,2,0,1,3,13,-5,-13,-4
1511883877761418,-1,0,0,2,-23,-5,1,2
1511883877761418,0,2,0,5,11,11,3,-2
1511883877774480,0,0,-3,-14,7,-3,2,3
1511883877774480,2,1,-2,-2,6,9,5,-2
1511883877780496,0,2,2,-7,10,-2,0,-2
1511883877780496,-2,-3,-8,4,-2,-2,3,-1
1511883877796539,1,2,3,-3,-11,-10,-11,-1
1511883877796539,-1,-2,1,-4,-2,4,10,2
1511883877803590,0,2,0,3,1,4,2,0
1511883877803590,-6,-9,-5,-1,-6,-4,-5,-1
1511883877819607,-4,1,-1,-13,-9,-2,-2,0
1511883877819607,-1,-1,-1,-4,7,1,0,0
1511883877821613,-1,-4,-1,12,-17,-6,-2,1
1511883877821613,0,0,2,8,21,4,0,-1
1511883877834648,-1,-1,-4,-5,10,9,5,-1
1511883877834648,3,1,4,6,-8,-17,-12,1
1511883877840663,-3,-4,-3,-6,-5,9,7,-2
1511883877840663,1,5,1,-7,4,-8,-2,2
1511883877856706,-1,-3,1,17,-18,-3,-3,-1
1511883877856706,-2,-1,-7,-16,8,7,6,0
1511883877863752,3,7,3,3,4,-1,-4,-3
1511883877863752,-1,-3,-2,-3,4,1,0,0
1511883877879791,-1,0,0,17,25,0,1,-4
1511883877879791,-1,1,-1,3,-15,8,9,2
1511883877881774,-4,0,0,-1,0,-9,-8,-1
1511883877881774,1,-1,0,1,-6,-2,-5,0
1511883877893805,0,1,2,4,-24,-2,4,0
1511883877893805,2,3,5,7,-21,-2,-5,0
1511883877902831,-3,-5,-10,-30,18,9,6,1
1511883877902831,-2,0,2,7,-2,-5,-3,0
1511883877916870,2,3,2,5,5,-4,-2,0
1511883877916870,-5,-4,-4,-10,1,3,-3,-4
1511883877923889,-1,-3,3,7,1,-5,-5,1
1511883877923889,-1,1,3,5,-19,5,11,4
1511883877939959,-1,-2,0,-16,-5,-13,-16,-4
1511883877939959,1,0,-2,-4,15,6,5,1
1511883877940963,2,2,-2,7,-16,-3,0,-1
1511883877940963,0,-10,-6,-1,9,3,1,0
1511883877952994,-1,-1,0,-6,-1,7,5,-3
1511883877952994,0,-3,0,4,22,0,0,2
1511883877961990,-2,1,3,-6,-13,7,5,-2
1511883877961990,-3,-1,-2,6,3,-16,-12,-1
1511883877977030,0,-4,1,-2,-3,4,0,-1
1511883877977030,2,1,2,5,-9,-9,-6,-2
1511883877983046,0,-4,0,-5,0,-2,-3,-3
1511883877983046,-5,2,2,0,5,0,-1,-6
1511883878000092,-4,-2,-2,-6,3,4,5,2
1511883878000092,-2,-1,2,-1,0,1,3,-3
1511883878001651,0,-1,-1,6,-5,-5,-9,1
1511883878001651,3,-1,-2,-21,0,6,4,0
1511883878013656,-1,0,-4,-15,14,-11,-12,-3
1511883878013656,1,1,1,16,2,8,12,2
1511883878022180,-2,4,-1,5,8,-5,-5,0
1511883878022180,1,1,-3,-19,5,-1,-8,-3
1511883878036246,-1,-1,-4,14,9,15,12,0
1511883878036246,-1,-5,-1,9,-8,-20,-15,0
1511883878043267,-2,-4,0,-13,-30,-3,-1,-4
1511883878043267,1,2,2,-4,11,4,-1,1
1511883878060309,2,5,3,8,-8,-8,2,1
1511883878060309,-2,1,-3,-9,-2,-1,-2,-3
1511883878061299,-1,-2,-2,0,13,3,7,0
1511883878061299,1,-1,-2,1,-17,-6,-5,0
1511883878073344,1,0,5,-10,25,4,6,1
1511883878073344,-3,-3,-5,-1,-12,3,-6,-3
1511883878082341,-2,-2,1,2,17,-14,-7,0
1511883878082341,4,4,0,7,6,7,12,3
1511883878096413,-2,-2,-3,-16,6,-3,-2,-3
1511883878096413,1,-1,3,9,12,2,-2,-1
1511883878103453,-1,3,-2,-26,-5,6,-1,2
1511883878103453,-1,-1,-1,12,-9,-5,-3,-1
1511883878141584,-1,-3,-7,-22,6,3,-2,-2
1511883878141584,0,1,-1,-13,1,4,5,-2
1511883878149598,-2,0,1,13,13,-7,-1,1
1511883878149598,-3,-13,-5,8,5,0,0,2
1511883878164632,0,0,-1,4,-11,-3,-6,-2
1511883878164632,-2,0,1,-1,14,4,2,-3
1511883878166620,0,-3,-2,-2,-7,3,1,1
1511883878166620,-2,2,3,-5,-6,0,-1,-2
1511883878179662,1,-1,-3,8,-23,-2,4,3
1511883878179662,3,-3,-2,-9,-4,-5,-5,-3
1511883878185688,1,-3,-5,15,4,8,3,-2
1511883878185688,-2,5,-1,-8,-10,-9,-10,-5
1511883878202902,-6,-12,-10,-12,-4,3,-1,-1
1511883878202902,0,2,0,-7,-4,-2,4,0
1511883878204350,-1,-4,-5,-3,-13,1,-1,-5
1511883878204350,0,-2,-2,-6,-6,-1,-2,-3
1511883878216883,-3,0,-2,0,0,1,0,-6
1511883878216883,0,-2,-2,-5,-7,-2,-1,2
1511883878218946,0,0,-2,14,7,0,-1,-3
1511883878218946,-1,-3,-7,-22,7,1,3,-4
1511883878232114,-4,-1,-1,7,14,1,-4,-4
1511883878232114,5,-3,-8,3,-14,-1,2,2
1511883878232114,1,-3,-9,-7,-26,-3,-6,-7
1511883878232114,-5,0,0,-10,1,-6,0,0
1511883878246215,-5,-2,2,17,-7,1,-4,-6
1511883878246215,1,-3,-4,-10,9,3,0,-2
1511883878255042,1,-4,-4,-2,-12,-1,-2,1
1511883878255042,1,6,-3,-4,-1,3,3,0
1511883878270259,2,-8,-4,4,-16,-6,-3,-2
1511883878270259,-5,-4,-8,-5,16,3,-3,-6
1511883878271246,-3,-1,-1,9,-1,0,1,0
1511883878271246,-2,0,-3,-4,-6,4,-1,-3
1511883878284148,2,5,-2,6,-9,-2,-3,1
1511883878284148,-1,-1,6,16,-8,-3,-4,-3
1511883878292144,-2,-4,-5,-19,0,2,0,0
1511883878292144,4,-2,-1,5,-6,-5,-2,0
1511883878307719,-1,3,3,13,9,0,1,-1
1511883878307719,-4,-1,-10,-40,-11,-3,-2,-1
1511883878309223,-2,-4,-1,4,1,-1,0,-1
1511883878309223,-2,-3,-4,7,-15,-1,1,-1
1511883878330340,-1,-2,-3,-19,-3,-3,-2,1
1511883878330340,0,-2,2,36,10,1,0,-1
1511883878331321,-2,-1,-4,-19,5,7,3,0
1511883878331321,-1,-4,-2,-12,-17,1,-1,0
1511883878343390,-1,-4,0,20,-1,0,0,1
1511883878343390,-2,2,-2,-5,-6,-1,-1,1
1511883878352390,1,2,-3,-8,23,-1,-2,-1
1511883878352390,2,-10,3,50,4,1,0,-1
1511883878367447,0,4,-4,-12,9,2,0,-1
1511883878367447,-4,-1,-4,-21,-9,-1,0,-3
1511883878369419,0,5,2,8,10,1,1,0
1511883878369419,-3,-1,-8,-1,15,5,0,-2
1511883878389495,2,5,-3,-22,-19,-4,-2,1
1511883878389495,0,-2,-1,4,9,7,6,-2
1511883878391477,1,-5,5,27,-4,-3,-3,3
1511883878391477,1,6,3,8,4,1,-2,-2
1511883878396510,1,-2,-4,-18,-3,-5,1,-1
1511883878396510,-1,-3,1,8,-10,-5,0,0
1511883878403565,-2,4,-4,-4,-20,0,0,-1
1511883878403565,0,-4,-5,-13,2,-2,-1,3
1511883878419208,-2,-2,5,-8,0,1,-1,0
1511883878419208,-2,0,-6,0,5,1,3,4
1511883878426223,-2,-3,-3,12,2,-2,-1,-1
1511883878426223,2,1,-1,-10,6,-3,-1,0
1511883878442269,0,-1,-1,11,-8,-3,-1,-1
1511883878442269,1,1,2,-13,-6,-4,-3,0
1511883878444275,-4,-6,-3,7,22,5,4,2
1511883878444275,1,0,5,0,-21,-3,0,-2
1511883878456281,1,1,-2,-1,2,1,1,2
1511883878456281,0,0,5,0,-25,-7,-4,-1
1511883878463299,-3,-8,-1,3,-2,-1,-2,-3
1511883878463299,-2,-1,0,-7,5,-3,-1,-1
1511883878479368,-2,-2,8,15,2,1,0,2
1511883878479368,-2,-3,-6,-2,-1,-5,-5,-3
1511883878486390,1,6,2,-21,-3,-7,-4,-3
1511883878486390,-3,2,-1,11,-6,-1,0,-1
1511883878502462,2,-1,-2,8,4,-1,-1,-1
1511883878502462,-3,0,-1,-4,10,3,2,0
1511883878503942,1,1,0,5,-9,-2,-1,0
1511883878503942,-1,-4,-5,-6,17,3,-2,-2
1511883878516471,-5,-2,-3,4,3,0,-1,-3
1511883878516471,0,0,0,5,-12,-3,-2,-4
1511883878524521,1,2,3,3,4,1,1,0
1511883878524521,-2,-5,-3,-24,-15,-4,1,0
1511883878539584,-1,1,-2,-20,4,-1,-2,3
1511883878539584,-1,-2,2,27,14,4,1,2
1511883878545576,-2,-4,-3,-12,-6,-1,-2,-1
1511883878545576,-2,1,-2,-1,5,-1,-2,0
1511883878562649,-1,0,-5,-8,-6,0,1,0
1511883878562649,0,0,-7,-18,-6,1,0,0
1511883878563624,0,-2,-2,-2,-6,-1,2,1
1511883878563624,-2,-3,-1,-6,16,0,-1,0
1511883878575656,1,-3,0,7,-7,-2,0,-2
1511883878575656,-2,-4,-1,-7,-8,-3,-4,-2
1511883878584716,1,2,2,-6,-1,-1,-2,-4
1511883878584716,0,-1,2,6,-13,-2,3,1
1511883878598718,-4,-2,0,-2,-23,-10,-6,-3
1511883878598718,1,2,0,-2,11,0,0,-1
1511883878606239,-1,-6,-2,1,4,0,1,-1
1511883878606239,-3,5,3,-4,-32,-4,-3,-2
1511883878622319,1,-2,0,-5,15,4,1,-1
1511883878622319,-1,-2,-1,4,-16,-5,0,0
1511883878624325,1,2,2,5,11,-1,-2,1
1511883878624325,2,1,3,19,-3,7,2,1
1511883878636356,-2,-3,-4,-2,3,-2,-1,-3
1511883878636356,1,3,3,2,4,5,-1,-2
1511883878645381,-4,-3,-1,-4,4,-1,-2,-2
1511883878645381,0,-1,-5,-16,4,-4,-4,-3
1511883878659442,-1,1,2,0,2,2,1,1
1511883878659442,-2,-2,3,6,-10,-3,1,-2
1511883878666436,-1,1,6,23,-3,-2,-1,0
1511883878666436,0,-1,-4,12,3,-2,0,0
1511883878682509,0,1,-3,3,-5,0,-1,0
1511883878682509,-2,-3,4,-3,0,-5,-1,-1
1511883878684484,1,-1,-3,-9,-6,-2,-1,2
1511883878684484,-1,1,-3,-8,-5,0,-1,-2
1511883878695537,3,2,-1,3,7,3,0,2
1511883878695537,-3,-4,-3,7,17,2,-1,0
1511883878705081,-3,0,2,11,-14,-3,-1,-2
1511883878705081,-4,-1,-3,-13,10,1,1,0
1511883878719652,1,-3,2,0,8,-1,-1,0
1511883878719652,2,-1,-2,0,-5,2,0,0
1511883878725646,-3,-2,-8,-14,9,0,1,0
1511883878725646,0,-3,2,8,3,1,-1,1
1511883878742717,-4,-2,2,-1,-7,-1,1,-2
1511883878742717,-2,2,0,0,7,-3,-2,-3
1511883878743692,-2,0,-5,-20,-7,-1,-1,0
1511883878743692,3,1,2,7,23,3,0,1
1511883878755724,1,-1,1,-3,-14,-3,-1,-1
1511883878755724,-3,0,-2,0,-2,-1,0,-3
1511883878764748,-2,0,1,11,2,1,0,-2
1511883878764748,1,-1,4,-9,-4,-3,-1,1
1511883878778814,1,-2,-4,20,15,5,1,0
1511883878778814,0,-2,-1,-16,-4,0,1,0
1511883878785831,-1,0,2,-4,-6,-3,-3,-2
1511883878785831,0,1,-2,-12,-10,2,3,0
1511883878802405,-3,0,1,3,-10,-3,-3,-1
1511883878802405,1,-1,-2,-12,-29,-4,1,2
1511883878804414,-4,-2,-5,-9,33,2,-1,-1
1511883878804414,-1,-1,-2,-4,-10,-1,0,-1
1511883878816448,2,-2,-3,-17,-5,-4,-2,-1
1511883878816448,2,0,-1,11,13,4,-1,1
1511883878824968,1,1,4,-10,-10,-4,0,-1
1511883878824968,-4,-2,-7,19,13,5,1,-3
1511883878839000,1,-1,-2,-11,2,-1,-4,-4
1511883878839000,-1,1,-2,-1,5,0,-2,-2
1511883878846048,2,1,1,9,-5,2,0,-1
1511883878846048,-3,-2,4,-2,-6,-6,-4,-3
1511883878862091,0,2,5,3,1,0,-1,1
1511883878862091,0,0,-3,2,12,2,-2,0
1511883878864067,0,-3,-4,5,-6,0,-2,-1
1511883878864067,0,2,4,4,7,-1,-2,0
1511883878876125,-3,-1,0,-1,-3,-1,1,0
1511883878876125,0,1,4,5,5,-2,-3,-1
1511883878885123,0,2,-1,11,6,2,0,0
1511883878885123,1,-1,3,3,-9,-1,0,-2
1511883878899186,-3,-3,-8,-36,-22,-8,-3,-2
1511883878899186,-3,2,2,1,-14,-1,0,0
1511883878906236,0,-2,0,-9,-14,0,-1,-1
1511883878906236,1,-2,-5,-12,28,-2,-2,-2
1511883878922263,2,-3,0,-1,2,1,0,0
1511883878922263,-2,-2,1,0,1,-3,-1,-2
1511883878924260,0,-1,-1,-2,4,0,1,-2
1511883878924260,1,1,5,-10,-15,-5,-5,-2
1511883878936317,2,0,0,5,8,3,0,1
1511883878936317,1,-1,-3,-6,5,-1,0,0
1511883878945342,1,0,0,-5,-2,-2,-1,-2
1511883878945342,0,-3,-2,4,-1,2,3,-1
1511883878959353,-1,1,3,13,0,-4,-2,-1
1511883878959353,-1,-3,-1,3,-8,1,3,0
1511883878966372,2,-1,-6,4,-3,0,-1,-1
1511883878966372,-3,-3,-5,-5,-4,3,0,0
1511883878982440,-2,0,-2,-2,12,1,-3,1
1511883878982440,0,-1,-1,2,3,2,2,1
1511883878984425,-1,0,3,-1,-4,-2,-1,-1
1511883878984425,-1,0,1,47,-10,0,4,3
1511883878996457,-1,2,-1,-10,-3,0,1,0
1511883878996457,2,-1,-3,-1,-7,0,1,-1
1511883879005003,-2,-4,0,12,4,-1,-1,0
1511883879005003,-1,-4,-11,-31,-7,-1,0,-2
1511883879018639,0,1,6,8,-4,-4,-4,0
1511883879018639,0,-3,0,0,-13,0,1,-2
1511883879025682,0,-2,1,-9,-1,-2,-3,-1
1511883879025682,0,-1,-4,7,-16,-1,0,-2
1511883879042735,-2,-1,-2,4,-1,-1,-1,-2
1511883879042735,-1,0,-2,-13,10,2,0,0
1511883879043706,-1,-1,4,-4,-4,3,0,-1
1511883879043706,1,0,2,-2,7,-13,-16,0
1511883879055765,-3,-2,0,-5,-13,-2,-1,-5
1511883879055765,-1,1,-6,-1,9,6,1,2
1511883879064763,-1,-2,-1,2,-20,-5,0,-2
1511883879064763,0,-1,2,-12,-1,3,5,1
1511883879078824,-1,-1,1,-3,4,0,-2,-1
1511883879078824,3,0,0,18,8,1,3,3
1511883879085842,0,0,2,14,6,6,1,1
1511883879085842,-1,1,1,-6,-7,-3,0,0
1511883879102432,0,0,-1,-2,-5,-5,-3,-3
1511883879102432,-2,-2,-1,-27,-5,-3,1,0
1511883879103915,0,2,-1,3,1,0,-1,1
1511883879103915,0,0,3,8,1,0,-1,1
1511883879115941,0,0,-5,0,8,4,1,3
1511883879115941,0,1,0,3,-7,-1,0,1
1511883879124500,-3,-2,2,14,16,-2,-5,-6
1511883879124500,-4,-1,0,11,9,12,12,-1
1511883879139542,0,-1,1,-9,-19,-10,-13,-2
1511883879139542,-2,-3,2,3,3,-5,-8,0
1511883879145587,-1,1,-3,-10,-6,4,4,2
1511883879145587,-4,0,3,6,9,1,3,0
1511883879161631,-2,1,5,32,29,-3,-3,-4
1511883879161631,0,0,0,7,-22,-7,-5,-4
1511883879168649,0,0,-4,-32,-10,-8,-4,-1
1511883879168649,1,0,-2,-14,2,2,1,-3
1511883879175667,-1,-1,1,-20,-15,0,6,3
1511883879175667,0,2,6,-2,-2,-4,-4,-1
1511883879184678,-2,-2,-4,6,22,0,-2,1
1511883879184678,-3,0,-1,-7,-20,-9,-9,-3
1511883879199703,2,-2,3,18,17,4,1,0
1511883879199703,-2,0,-1,-4,12,1,1,-1
1511883879206251,1,-1,-2,-5,-9,2,3,2
1511883879206251,2,-1,-2,-15,7,9,9,1
1511883879221612,-3,1,1,-17,-28,-18,-14,-6
1511883879221612,0,-2,-4,-20,1,5,1,-2
1511883879228499,-1,1,0,-3,10,-7,-2,0
1511883879228499,0,-2,0,9,-5,-3,-5,0
1511883879236560,0,-2,1,-8,-11,-5,2,-3
1511883879236560,-1,-2,2,33,17,9,6,-1
1511883879244542,-1,-1,-3,-10,-8,-1,2,0
1511883879244542,-3,0,0,2,3,0,-6,-4
1511883879258579,0,-8,-7,0,13,8,7,2
1511883879258579,-1,1,2,16,-32,-7,-5,-1
1511883879267601,-3,-1,-1,1,18,3,3,-3
1511883879267601,0,1,0,-8,0,4,9,1
1511883879281825,1,-2,-2,20,31,9,-2,1
1511883879281825,-2,-1,-6,-16,-15,-10,-9,-6
1511883879288657,0,1,-2,-10,-14,10,11,2
1511883879288657,1,-2,-7,-58,-16,-11,-15,-2
1511883879305302,-2,0,-6,-9,25,5,0,1
1511883879305302,2,3,-3,-18,-12,-4,0,-2
1511883879306806,-3,-2,2,-8,-24,-4,-1,-2
1511883879306806,1,1,0,24,18,7,4,1
1511883879319525,-2,3,1,-14,-28,-9,-5,0
1511883879319525,-4,-5,-9,-46,-21,-7,-7,-1
1511883879326541,-2,-2,2,-5,-4,-2,-3,-3
1511883879326541,-2,-2,-1,1,4,-2,0,0
1511883879363797,0,-1,-1,7,-1,6,9,-1
1511883879363797,-1,2,1,11,11,0,-1,-3
1511883879373630,-1,-2,1,-3,2,-4,-7,-2
1511883879373630,-1,0,0,8,-1,-4,-3,0
1511883879387665,1,1,-3,-5,16,7,6,-1
1511883879387665,-1,-1,1,-5,14,6,0,-1
1511883879388668,0,-4,-3,-1,-8,-3,-1,-1
1511883879388668,-1,0,1,-4,-17,0,-5,-2
1511883879400729,0,-3,-3,-12,-20,-26,-16,-2
1511883879400729,1,1,-4,1,10,9,7,-1
1511883879410251,-1,-2,-6,5,4,3,0,0
1511883879410251,2,0,-5,-3,-8,-1,0,-3
1511883879424477,-2,2,0,7,-13,7,6,-1
1511883879424477,1,-5,-3,0,-10,9,15,6
1511883879426483,-7,0,-6,-37,-13,-25,-26,-15
1511883879426483,-1,-1,-2,8,2,0,0,-2
1511883879439544,-2,-2,-2,10,4,7,4,-1
1511883879439544,-1,-2,-5,3,-4,-4,-1,0
1511883879441523,2,-5,1,4,-20,7,6,3
1511883879441523,-4,0,-4,6,0,-2,-1,1
1511883879454566,-3,-1,-2,3,6,3,-1,-5
1511883879454566,-4,0,-2,16,-4,-8,-9,-2
1511883879454566,-2,-4,-4,-2,22,4,3,1
1511883879454566,1,0,-2,9,-10,-6,-4,-1
1511883879476643,0,1,-4,-7,-14,5,4,-1
1511883879476643,-1,-8,-3,10,17,2,1,-1
1511883879477619,-2,0,-3,-1,-4,0,-2,-1
1511883879477619,2,2,1,11,4,0,3,3
1511883879492685,0,-6,-3,0,0,9,7,3
1511883879492685,-1,1,0,-11,2,-3,-2,0
1511883879493666,2,0,3,19,1,2,1,1
1511883879493666,-2,-6,0,-6,-1,4,3,0
1511883879506223,2,2,3,1,-2,-4,-4,1
1511883879506223,-2,1,3,10,5,1,-1,1
1511883879515247,3,2,-3,-9,-3,2,5,3
1511883879515247,1,2,4,9,2,-3,-2,-1
1511883879528785,3,2,0,-1,0,-1,-1,1
1511883879528785,0,-1,3,-3,7,-2,-1,0
1511883879535804,1,6,4,26,6,2,4,4
1511883879535804,-2,-7,1,6,3,-7,-1,3
1511883879551879,1,0,1,0,1,-5,-6,0
1511883879551879,0,-1,4,14,4,0,1,0
1511883879553853,0,6,10,19,9,1,1,0
1511883879553853,-1,-1,-4,-29,0,-1,3,2
1511883879565911,-2,-1,2,13,0,2,4,-1
1511883879565911,-3,0,1,1,10,-4,-5,-3
1511883879574907,1,-1,4,-13,2,2,1,1
1511883879574907,-1,-4,7,25,5,-5,-3,2
1511883879588946,-3,2,6,3,4,5,1,3
1511883879588946,2,1,3,-11,-14,-8,-3,-1
1511883879595990,-1,0,1,5,16,-4,-3,-2
1511883879595990,-2,0,3,13,25,6,1,1
1511883879612564,1,-1,2,-15,0,5,10,5
1511883879612564,1,1,5,-6,13,1,2,1
1511883879614041,-1,-1,3,33,5,-5,-7,-1
1511883879614041,0,2,0,-12,2,-3,4,-1
1511883879635148,-5,0,1,-9,3,-6,-5,-2
1511883879635148,-3,1,0,-6,3,5,4,0
1511883879636156,0,-4,1,8,-4,-4,-2,-1
1511883879636156,-2,1,2,4,0,-5,-6,-1
1511883879649186,-3,-2,4,-2,10,-2,2,-1
1511883879649186,-1,-3,-1,-24,-9,-5,-4,1
1511883879656203,1,4,-3,3,-19,-1,1,-1
1511883879656203,1,-2,-2,-16,-7,1,-2,-1
1511883879672220,2,0,-3,-15,-4,3,6,-3
1511883879672220,0,-4,0,12,16,-6,-5,0
1511883879674226,-2,1,-1,-2,0,9,9,4
1511883879674226,-4,3,4,17,3,-10,-12,-5
1511883879694279,0,1,-5,-25,-1,-2,-3,-2
1511883879694279,1,-2,-3,5,17,2,1,0
1511883879696284,-1,-1,-1,-2,26,18,11,3
1511883879696284,1,3,-1,9,15,-3,-1,1
1511883879709378,-1,-6,-3,-16,-22,-6,-3,-1
1511883879709378,-3,0,-2,-17,-3,0,-1,-4
1511883879716391,-2,-3,-1,-24,-7,1,2,-1
1511883879716391,0,1,-2,17,-7,2,-3,0
1511883879732499,0,3,-1,25,18,3,-2,-1
1511883879732499,-1,0,-3,-7,-9,-5,-4,-1
1511883879733514,-1,-2,-4,-9,-8,-7,1,0
1511883879733514,-1,0,1,-15,-14,4,4,-2
1511883879754531,1,-1,5,19,-15,-4,-4,-3
1511883879754531,-1,-2,0,21,-8,2,3,3
1511883879756536,-2,-2,-5,3,-2,-7,-10,-4
1511883879756536,1,0,0,-17,0,0,2,1
1511883879768595,-3,-5,-3,-14,2,11,9,3
1511883879768595,0,2,1,8,10,3,0,-4
1511883879777593,-1,-3,0,-11,-14,-17,-15,-1
1511883879777593,-1,-3,-3,13,0,8,7,-3
1511883879792660,-1,-1,3,13,-6,-12,-10,-1
1511883879792660,0,-1,-1,-13,18,9,5,-1
1511883879793642,-1,0,-1,-22,-12,-3,-1,0
1511883879793642,0,0,4,15,2,2,1,-3
1511883879798675,-1,0,-2,3,-5,3,3,1
1511883879798675,-2,1,-2,7,-16,-2,-2,1
1511883879807675,-1,-4,-4,-3,-10,-4,-8,-4
1511883879807675,0,1,1,-17,-5,1,7,1
1511883879821212,-2,-1,2,1,11,-12,-11,-3
1511883879821212,1,0,0,-2,5,4,1,1
1511883879828257,0,0,5,-1,7,1,3,2
1511883879828257,0,-1,-4,1,-7,-3,-3,-2
1511883879844274,0,-1,0,14,-1,1,3,-2
1511883879844274,-3,-2,-1,0,8,-2,-4,0
1511883879846278,0,7,1,7,-17,0,2,0
1511883879846278,-2,-7,-4,-18,-4,2,-3,1
1511883879858337,0,5,2,-3,12,0,-2,0
1511883879858337,1,2,5,17,-11,0,-1,-1
1511883879867334,1,-2,-7,-21,-2,4,5,-1
1511883879867334,3,6,4,2,9,-8,-7,2
1511883879881399,-2,-7,-2,4,-9,5,5,1
1511883879881399,1,-1,1,-1,-8,-9,-3,0
1511883879888408,-4,2,0,8,5,2,-1,-1
1511883879888408,-1,-3,-1,1,-10,-1,3,-2
1511883879904964,-1,-1,-2,-7,-3,-2,-3,0
1511883879904964,0,-1,1,-13,-14,4,9,1
1511883879906467,1,-4,0,4,8,-9,-5,-1
1511883879906467,-2,0,-1,-5,-9,-2,-2,1
1511883879918022,3,1,0,3,11,1,-2,-1
1511883879918022,-2,2,0,7,2,-6,-2,0
1511883879927125,-1,1,1,10,7,1,-1,-1
1511883879927125,-4,-5,-9,-27,-24,-1,-3,-5
1511883879941160,-2,1,1,6,-2,1,5,-1
1511883879941160,0,-5,-2,-10,-17,-4,0,0
1511883879948206,-1,1,2,6,7,-2,-5,-1
1511883879948206,-1,2,5,-6,-8,-4,-4,-1
1511883879965252,-3,-4,-4,-6,-12,-5,-3,-3
1511883879965252,1,-1,-4,3,5,4,1,-1
1511883879966227,-1,-1,-1,-1,-13,-2,-1,-2
1511883879966227,1,0,0,8,21,7,3,-1
1511883879978286,3,8,1,-1,-3,-8,-2,0
1511883879978286,-4,-16,-8,-10,-7,-1,-4,-1
1511883879987282,2,4,1,2,13,8,3,1
1511883879987282,1,-1,-4,6,14,0,2,2
1511883880001347,-4,-1,-2,9,25,8,4,0
1511883880001347,-3,6,-1,-18,0,-1,1,-3
1511883880008870,-2,-4,-2,-4,22,-4,-7,1
1511883880008870,-2,-3,1,-4,-9,5,3,0
1511883880024413,-1,0,0,3,-3,-10,-9,-1
1511883880024413,1,1,0,3,1,4,-1,-1
1511883880026431,0,-4,-1,-5,-2,1,3,0
1511883880026431,1,0,-5,2,-3,-5,-1,-1
1511883880038451,-2,-2,3,-6,-11,0,-1,0
1511883880038451,0,9,5,6,1,-6,-7,-1
1511883880047475,3,-1,-3,-14,-2,1,1,1
1511883880047475,-5,-4,-1,0,1,-1,-2,-5
1511883880061511,4,2,-4,-11,-12,3,2,-1
1511883880061511,-4,-2,3,10,-7,-2,-1,-3
1511883880068530,-3,-1,2,7,-17,-4,4,0
1511883880068530,-2,-3,0,-17,4,0,-4,-4
1511883880084599,-1,-3,-6,0,-19,-6,2,5
1511883880084599,2,1,1,-4,-9,1,-2,-2
1511883880090619,-1,0,-2,10,9,-3,1,-2
1511883880090619,-2,1,-1,-6,-5,-4,-5,0
1511883880098636,0,0,1,3,0,-1,0,1
1511883880098636,-2,-2,-2,9,10,0,1,2
1511883880107664,-1,2,1,-20,-20,-3,-2,-2
1511883880107664,-1,-6,-8,5,7,4,6,2
1511883880121738,-3,-2,1,2,-3,-3,-3,-4
1511883880121738,1,1,-1,6,-5,-1,-3,2
1511883880128778,2,1,0,5,6,2,1,2
1511883880128778,-1,0,1,-7,3,1,0,-1
1511883880143787,-2,-6,-3,-1,-2,0,-1,-2
1511883880143787,0,1,1,-1,-9,-4,-2,-1
1511883880150835,-2,-1,-1,-5,-4,1,2,-1
1511883880150835,1,1,4,3,-5,2,3,1
1511883880166848,-2,-7,-2,-8,16,-3,-7,1
1511883880166848,-4,1,-2,-6,6,1,4,-3
1511883880168854,-2,-4,-2,1,22,1,-1,-2
1511883880168854,1,8,3,10,-7,2,1,-1
1511883880181906,-2,-7,-5,-10,2,4,2,-2
1511883880181906,2,0,-1,5,1,-3,-5,-4
1511883880189002,-1,1,2,5,19,1,0,0
1511883880189002,0,-5,1,0,-7,-3,2,0
1511883880204078,0,5,4,5,8,2,-5,-2
1511883880204078,0,-6,-5,1,-1,1,2,1
1511883880211100,-1,0,-1,-3,-9,-2,0,-3
1511883880211100,2,-1,-4,4,23,-5,-10,-2
1511883880226319,-1,2,2,2,-10,0,3,-1
1511883880226319,-2,2,1,1,5,1,0,0
1511883880227317,-3,-1,-2,-8,-11,3,-2,0
1511883880227317,-1,-2,0,-7,-7,-4,4,0
1511883880242358,-5,-2,-9,-20,6,1,-1,-3
1511883880242358,2,1,2,4,3,3,1,1
1511883880248480,0,-4,0,1,-18,-3,-2,0
1511883880248480,-2,2,0,-10,-3,-3,-1,-2
1511883880263609,1,5,2,19,-4,-2,0,0
1511883880263609,-2,-4,-5,-27,-5,-1,1,0
1511883880271556,-2,1,-1,13,-1,-4,-2,0
1511883880271556,0,-1,-1,-1,-6,-2,-4,-1
1511883880286613,1,2,-2,2,-9,2,4,1
1511883880286613,0,-2,2,3,0,-5,-4,-1
1511883880287517,0,0,1,17,9,-9,-9,1
1511883880287517,-1,-2,-4,-36,-3,-2,-2,-3
1511883880302555,3,-1,2,5,9,2,0,-2
1511883880302555,-1,0,-1,-5,-7,-4,3,-1
1511883880308677,-3,-2,1,-3,10,2,2,-1
1511883880308677,-3,-2,-1,0,-11,-2,1,-1
1511883880323262,0,3,-1,0,-2,-3,-7,-4
1511883880323262,-1,-5,-2,-3,5,0,5,1
1511883880331478,-1,-1,-4,-7,-1,0,2,-1
1511883880331478,3,-3,1,6,-3,-1,-4,0
1511883880346346,-2,2,0,2,-3,-1,-4,-2
1511883880346346,-2,-11,1,11,4,-3,-1,0
1511883880347325,2,1,-1,-2,-27,3,4,1
1511883880347325,-3,1,-3,5,18,-1,-3,-1
1511883880362366,3,-3,1,5,3,-1,1,2
1511883880362366,-1,3,0,-10,-25,-3,-3,-2
1511883880368512,-1,2,0,4,10,6,2,0
1511883880368512,-7,-11,-9,-7,10,-2,-2,-1
1511883880385428,-1,-1,1,-2,-3,1,2,1
1511883880385428,-1,0,-7,-27,-21,-1,0,-2
1511883880390442,-1,-2,-3,-15,-33,-3,3,-4
1511883880390442,2,6,2,18,16,-3,-8,1
1511883880406985,0,-2,-3,-4,0,1,4,2
1511883880406985,-1,6,0,2,10,2,1,-1
1511883880407486,2,0,0,11,-1,1,-1,0
1511883880407486,-2,0,0,5,-4,3,5,0
1511883880422552,1,-1,1,-8,-10,-4,-2,-1
1511883880422552,-2,1,-3,0,8,-4,-1,1
1511883880428569,0,-1,0,-10,-2,-3,-7,-3
1511883880428569,-2,-1,-1,6,5,0,0,-3
1511883880444641,0,5,0,14,26,6,0,-1
1511883880444641,1,-3,2,8,5,0,-1,-1
1511883880450656,0,1,-1,-4,3,-2,0,1
1511883880450656,1,0,1,0,-12,1,2,3
1511883880466670,0,4,1,-4,-15,-2,0,0
1511883880466670,-3,-10,-4,-13,13,0,-4,-1
1511883880467700,0,0,0,10,5,1,1,0
1511883880467700,2,-1,0,10,-22,-2,-1,1
1511883880482712,-2,-2,-4,-10,-2,-3,2,2
1511883880482712,0,-3,0,13,2,1,0,0
1511883880488752,3,1,-1,-9,-3,-1,-2,-1
1511883880488752,-1,0,0,2,1,2,2,-1
1511883880503772,-1,0,-1,0,7,-2,-3,-1
1511883880503772,3,2,0,-2,-5,-3,0,0
1511883880511292,-2,0,-2,-3,9,0,0,-4
1511883880511292,-1,-2,-2,-10,3,3,1,-2
1511883880526478,-1,-3,0,6,-7,-4,-1,-1
1511883880526478,0,2,4,9,-1,2,0,1
1511883880527457,-1,-5,-2,10,9,1,-1,1
1511883880527457,3,2,1,-3,-1,-1,2,0
1511883880549518,-1,2,3,5,1,1,-1,-1
1511883880549518,-3,0,-4,-14,-10,-6,-5,-1
1511883880549518,-2,-7,0,11,1,-2,-1,1
1511883880549518,-4,0,-2,-5,-6,-3,-2,-3
1511883880564556,4,-4,1,0,12,7,5,0
1511883880564556,1,8,3,6,-3,1,4,-1
1511883880570600,-1,-5,-5,-21,-10,-10,-6,-4
1511883880570600,-1,1,2,6,-3,-8,-7,-2
1511883880586642,-4,-3,-4,-27,-33,-7,-5,-3
1511883880586642,0,4,-3,-8,18,5,1,1
1511883880587643,-2,-12,-11,1,-5,1,2,3
1511883880587643,2,5,1,2,2,4,4,0
1511883880609228,-3,-1,-1,-11,7,-3,-3,-1
1511883880609228,-1,-2,-1,1,-11,-1,-1,-2
1511883880610234,-2,2,3,6,8,0,-1,-2
1511883880610234,-1,0,3,7,3,-1,0,0
1511883880624774,-2,-1,0,-2,13,0,-1,0
1511883880624774,1,-2,-2,1,3,0,-2,-2
1511883880630816,0,2,1,-9,6,2,3,-2
1511883880630816,-1,0,-2,12,6,6,8,1
1511883880646858,0,0,-1,-5,-5,-9,-8,0
1511883880646858,-3,-6,1,2,1,0,-2,-1
1511883880653879,0,-2,2,9,17,4,4,3
1511883880653879,1,2,-1,-15,-15,-1,-2,-3
1511883880662901,-3,-6,1,8,-10,-15,-12,-3
1511883880662901,-2,0,-6,-2,13,0,-3,-1
1511883880668902,1,2,-2,-16,3,0,-4,-1
1511883880668902,-2,-2,-1,3,1,-6,-6,-3
1511883880684932,2,-4,-1,2,6,11,14,2
1511883880684932,2,2,1,0,-2,-3,-2,0
1511883880690980,-2,-2,1,-10,-9,7,9,0
1511883880690980,-2,2,-2,-25,-45,-17,-13,-4
1511883880706996,0,-3,0,-1,14,5,2,-1
1511883880706996,-1,2,3,5,-9,2,4,3
1511883880707497,-3,1,4,21,-2,5,3,-1
1511883880707497,0,-1,0,11,-7,-3,1,2
1511883880729082,1,2,-5,-18,-6,1,-1,-4
1511883880729082,1,0,4,11,19,0,1,2
1511883880730085,1,0,0,-25,-6,-6,-3,-1
1511883880730085,-1,-2,0,5,5,1,1,-1
1511883880745098,-1,3,-4,3,3,0,-2,1
1511883880745098,-3,-2,0,2,-1,5,8,1
1511883880751142,0,2,-3,2,-6,-8,-6,-2
1511883880751142,0,-2,2,-1,12,3,0,1
1511883880766153,1,0,1,2,-7,3,1,-1
1511883880766153,-1,1,-4,-8,-3,-4,-4,-4
1511883880767187,-2,0,3,22,6,0,-1,0
1511883880767187,2,-2,-3,-10,2,0,-2,0
1511883880789216,1,2,2,1,-6,0,3,0
1511883880789216,-1,-1,-3,-6,-4,-3,-2,-1
1511883880790219,-1,-2,2,2,1,-2,-3,-1
1511883880790219,-3,-4,-5,-28,-27,-7,0,-2
1511883880805287,-1,0,-1,-1,6,8,7,1
1511883880805287,2,-2,3,4,-2,-6,-11,-1
1511883880811331,2,2,-5,-16,12,-7,-6,-3
1511883880811331,-5,-4,0,12,5,3,2,0
1511883880826900,-5,-2,-3,-5,11,0,-6,-1
1511883880826900,0,-1,0,-6,-17,1,5,-1
1511883880826900,0,1,1,-3,-6,-1,-1,2
1511883880826900,2,0,-2,-1,18,5,2,-1
1511883880848959,0,1,3,8,-14,-2,1,2
1511883880848959,-6,-4,-5,-7,15,-11,-15,-4
1511883880849934,0,2,1,0,-8,-3,-3,-1
1511883880849934,1,-4,0,4,-5,0,1,-2
1511883880864975,1,0,-1,-1,-1,1,2,2
1511883880864975,0,1,1,-1,-7,1,0,-1
1511883880871017,-2,-2,-4,-8,-1,-1,-1,3
1511883880871017,0,2,-2,4,8,1,-1,-1
