timestamp,emg1,emg2,emg3,emg4,emg5,emg6,emg7,emg8
1512354210670839,-1,0,1,-1,2,8,1,7
1512354210670839,1,0,-3,-1,1,0,-5,1
1512354210671839,-3,0,-1,-17,-50,-9,-23,-18
1512354210671839,3,-1,2,8,7,-11,24,12
1512354210671839,-2,-3,-1,-5,-8,-2,-10,-6
1512354210671839,-1,-3,-2,0,7,3,0,7
1512354210672839,-1,0,-1,-2,-1,3,14,-10
1512354210672839,1,1,-2,1,-6,5,27,19
1512354210683839,0,-2,-2,-13,-21,-13,-26,-9
1512354210683839,-3,-2,-2,-3,1,-1,10,-4
1512354210691839,-1,-4,-3,-3,-2,6,5,4
1512354210691839,-5,-2,-1,-3,-3,5,-13,-15
1512354210699839,2,2,3,11,32,-9,-4,4
1512354210699839,1,1,0,-3,-4,2,-7,0
1512354210713839,0,2,0,6,5,-4,-17,1
1512354210713839,-1,0,-1,-4,-4,-6,-17,-4
1512354210723839,-1,1,-2,0,6,14,13,-5
1512354210723839,-2,-2,0,0,20,-1,-14,-4
1512354210736839,1,0,1,1,-11,-2,4,5
1512354210736839,-2,-2,-1,-2,-9,-14,-6,-6
1512354210744839,0,1,1,8,21,1,8,14
1512354210744839,1,1,2,2,-20,-1,6,-4
1512354210758839,-1,-1,-2,1,12,13,9,-2
1512354210758839,3,1,1,-3,8,-5,-10,9
1512354210799839,-3,-4,-4,-10,-20,4,-12,-13
1512354210799839,-1,-2,-4,-6,-8,7,31,6
1512354210800839,-1,0,-1,-6,-5,-4,-13,-8
1512354210800839,-3,-3,-1,3,14,-1,-12,-1
1512354210803839,0,-2,-1,-3,-3,6,-1,5
1512354210803839,-1,1,1,2,10,-15,-16,-12
1512354210804839,1,0,0,-1,19,-3,-3,-1
1512354210804839,-1,-1,-1,-9,-18,7,-4,-1
1512354210810839,-1,-2,-1,3,4,22,16,-2
1512354210810839,0,1,1,-4,-2,-7,-11,-8
1512354210819839,1,-2,-3,3,5,5,3,17
1512354210819839,0,2,1,-6,6,-14,-15,-14
1512354210825839,-2,0,-1,1,5,-2,10,8
1512354210825839,-1,-1,2,4,-5,1,-9,-6
1512354210840839,-3,-3,-2,-1,-9,15,5,-9
1512354210840839,0,-4,-2,0,-6,0,30,10
1512354210848839,1,0,0,4,4,-2,0,-2
1512354210848839,-4,-4,-4,-7,-10,4,-9,-4
1512354210871839,1,0,2,9,9,-11,16,5
1512354210871839,1,1,1,2,-1,22,33,3
1512354210872839,0,2,2,-1,-8,-14,-25,-2
1512354210872839,0,-1,-1,1,-8,-1,-4,5
1512354210886839,0,0,0,0,6,1,3,-5
1512354210886839,0,0,1,0,-5,-11,-15,5
1512354210887839,2,-1,-1,3,4,5,15,7
1512354210887839,-3,-3,-5,-19,-23,-8,10,-1
1512354210908839,-1,-1,0,3,-1,4,-36,-10
1512354210908839,0,-2,-1,-3,-9,-1,-2,-1
1512354210909839,-3,-3,-3,-2,10,8,23,1
1512354210909839,2,0,-2,1,11,14,-5,-6
1512354210931839,-3,-2,-1,4,12,-5,9,12
1512354210931839,-1,-2,-3,-4,-9,9,1,-1
1512354210932839,-3,-1,1,0,-3,-13,-26,-8
1512354210932839,-2,-1,1,6,-2,-13,-14,1
1512354210946839,0,-2,-2,-2,7,10,10,6
1512354210946839,2,1,-1,2,6,-1,-14,-1
1512354210947839,-2,-2,-1,-5,-2,-20,-6,-2
1512354210947839,1,2,5,15,7,-3,-1,-2
1512354210968839,0,0,0,-8,-19,-10,-8,-6
1512354210968839,0,1,-1,3,-19,-12,-16,1
1512354210969839,-1,-1,-2,-4,9,2,-7,-5
1512354210969839,2,-1,0,-5,-4,-2,6,15
1512354210991839,0,1,0,0,-5,2,11,-2
1512354210991839,-1,-2,0,-4,-23,0,4,-2
1512354210992839,1,0,2,2,-2,-5,6,-1
1512354210992839,0,1,0,1,5,22,9,2
1512354211006839,2,-2,-6,-9,-21,-23,20,10
1512354211006839,-3,-2,-1,9,40,6,-9,-9
1512354211007839,1,1,1,0,-7,0,-5,5
1512354211007839,2,0,0,8,31,14,19,0
1512354211028839,-2,-3,-2,-1,-11,-5,-5,-12
1512354211028839,-1,-2,-3,3,20,0,20,7
1512354211029839,0,1,-1,-13,-41,-12,-18,5
1512354211029839,-1,-1,-1,-5,-39,-5,-2,-5
1512354211051839,-3,-3,-1,-2,14,-11,-4,-5
1512354211051839,-3,-1,-1,3,-9,7,-26,-9
1512354211052839,-4,-2,-3,2,4,-11,-19,-11
1512354211052839,-3,-2,-3,-4,-8,-23,-43,-6
1512354211066839,-1,0,2,4,-3,-3,22,0
1512354211066839,0,-1,1,-5,0,-15,-10,1
1512354211067839,1,-1,-3,-10,-31,-6,-9,0
1512354211067839,-2,-2,-1,8,27,1,7,-5
1512354211088839,1,3,1,1,-1,27,-20,-9
1512354211088839,3,2,1,-1,6,-15,6,6
1512354211089839,0,-1,-1,-1,-1,4,21,-4
1512354211089839,-2,-2,1,3,5,0,-15,-9
1512354211111839,1,1,1,2,10,-3,29,14
1512354211111839,1,0,0,-5,-5,9,-15,-5
1512354211112839,0,-1,0,14,36,-4,14,1
1512354211112839,-1,-1,-2,-5,-3,-4,-18,-4
1512354211126839,-2,-3,-1,2,2,17,12,-2
1512354211126839,-5,-2,-2,-3,-4,-8,-12,-6
1512354211127839,0,0,1,4,6,4,6,3
1512354211127839,0,0,0,6,20,1,1,1
1512354211148839,-2,2,0,-4,3,1,-14,-2
1512354211148839,-2,0,0,1,3,5,23,5
1512354211149839,-1,0,1,-1,-4,3,1,4
1512354211149839,-2,0,0,7,20,-23,-10,-1
1512354211171839,-1,-4,-2,-2,-2,17,23,4
1512354211171839,3,0,1,-4,-28,-4,-9,-3
1512354211172839,1,0,1,-7,4,3,-22,-4
1512354211172839,-3,-2,-2,-4,-23,-8,9,5
1512354211186839,-1,-1,1,5,6,-10,-52,-10
1512354211186839,-1,-1,1,1,2,-12,8,0
1512354211187839,1,1,0,-2,-8,16,7,-4
1512354211187839,0,1,-4,-11,-18,4,20,6
1512354211208839,-3,0,-1,-1,-3,-7,-23,-2
1512354211208839,0,-1,-5,-4,0,2,10,2
1512354211209839,-1,-2,-6,2,11,0,1,-1
1512354211209839,0,3,27,15,1,4,5,2
1512354211231839,1,0,-2,-2,-4,-8,0,-2
1512354211231839,0,0,2,2,7,-1,-3,-2
1512354211232839,1,4,-6,-1,1,-2,13,0
1512354211232839,-4,-10,-11,-5,2,6,-2,0
1512354211245839,1,-4,-2,-11,-21,-9,-1,1
1512354211245839,-2,3,0,1,15,2,5,1
1512354211253839,-1,-3,1,1,3,0,-8,-3
1512354211253839,0,1,-7,-7,-5,5,10,3
1512354211268839,-1,-1,10,3,-3,-4,-5,-2
1512354211268839,0,-3,-2,2,7,-2,2,-3
1512354211269839,-1,4,6,2,3,-1,0,1
1512354211269839,1,4,0,-1,-3,0,-1,0
1512354211291839,-3,-12,-6,-5,5,-1,4,0
1512354211291839,-2,1,3,5,2,1,-7,-1
1512354211292839,0,-1,-1,0,4,-2,4,1
1512354211292839,1,0,-3,-4,7,2,10,6
1512354211305839,-2,1,-2,-2,4,4,-6,-7
1512354211305839,-2,-1,0,3,10,3,5,-1
1512354211313839,-1,-2,-1,-6,-31,-2,2,0
1512354211313839,0,1,-5,-4,2,0,0,0
1512354211328839,1,0,-1,1,-2,-1,-2,1
1512354211328839,1,0,-3,-5,-6,-12,3,6
1512354211329839,-1,1,1,5,19,19,12,3
1512354211329839,0,-3,-2,-1,-9,10,6,4
1512354211351839,-1,-1,5,-2,-24,-16,-5,1
1512354211351839,1,-1,-6,1,2,17,-5,-3
1512354211352839,0,0,8,-5,-14,-4,7,4
1512354211352839,2,-2,-7,-3,-1,-9,-23,-2
1512354211365839,-2,1,-1,4,12,1,2,0
1512354211365839,-1,0,6,0,-5,0,-8,-1
1512354211373839,0,1,-7,-9,-25,2,36,3
1512354211373839,1,2,9,20,28,14,21,5
1512354211388839,-3,-1,-7,-12,-18,-5,-16,0
1512354211388839,-2,-2,-4,-2,-1,25,37,-6
1512354211389839,-1,-3,0,-2,-6,-8,8,6
1512354211389839,0,-2,-2,-5,-10,-20,-7,-5
1512354211411839,0,2,-3,3,7,3,4,2
1512354211411839,0,-1,-2,0,-6,-8,12,3
1512354211412839,-2,-3,-2,4,18,-4,-29,-7
1512354211412839,-1,2,-2,-4,-10,11,19,-1
1512354211425839,2,3,1,0,0,4,0,-1
1512354211425839,-2,-5,-10,-7,3,-8,-13,2
1512354211433839,0,-1,3,5,-9,-27,-32,-12
1512354211433839,0,-2,-2,-5,-4,8,48,15
1512354211448839,-1,-1,0,5,3,3,6,2
1512354211448839,-2,-1,1,0,1,-1,-30,-5
1512354211449839,-4,-3,-6,-2,5,-5,-5,3
1512354211449839,-3,-1,-1,0,4,0,-19,-8
1512354211471839,-1,-1,-1,0,1,-14,-2,0
1512354211471839,-2,-3,-6,0,2,10,-4,0
1512354211472839,1,3,12,1,1,0,-1,-1
1512354211472839,0,3,0,-10,-18,-10,-21,-2
1512354211485839,2,-2,4,7,4,-9,-15,-2
1512354211485839,-2,-1,-3,-4,-16,6,8,0
1512354211493839,-6,-10,-12,-1,-15,-5,-4,-5
1512354211493839,-2,4,1,-13,-26,-9,-6,-3
1512354211508839,-1,-3,-9,-14,12,3,4,-1
1512354211508839,0,0,-3,6,20,-7,-1,0
1512354211509839,6,10,39,13,-5,4,6,5
1512354211509839,-5,-5,-7,-5,-27,-15,-28,-4
1512354211531839,0,3,-1,0,7,4,3,-1
1512354211531839,0,1,-6,-10,-5,-3,2,1
1512354211532839,-5,-9,-15,-6,20,-14,-8,-2
1512354211532839,6,-1,16,27,17,3,-4,1
1512354211545839,-6,4,2,-8,-33,1,2,-1
1512354211545839,2,3,6,4,38,-6,0,0
1512354211553839,-4,-6,-12,-5,-21,4,-5,-1
1512354211553839,-3,-7,0,17,42,7,4,-6
1512354211568839,3,-1,-5,-2,-9,-4,0,-3
1512354211568839,-4,4,-1,-11,-37,-11,1,0
1512354211569839,-1,-7,-2,3,23,10,1,0
1512354211569839,1,-7,-3,8,20,1,-2,-2
1512354211591839,-1,6,-2,-6,36,6,6,2
1512354211591839,-1,0,3,-19,-52,-9,-9,-1
1512354211592839,1,11,-2,6,15,4,0,0
1512354211592839,-5,-7,-8,-13,-32,-9,1,0
1512354211605839,0,-8,-4,11,17,11,-1,-2
1512354211605839,2,2,7,20,16,-9,0,3
1512354211613839,2,0,-3,-25,2,2,0,-1
1512354211613839,4,7,1,5,8,9,5,0
1512354211628839,1,9,6,-2,-23,-5,-1,1
1512354211628839,-9,-20,-20,-9,14,-2,-4,0
1512354211629839,-7,-11,-7,-3,-10,-2,-2,-2
1512354211629839,2,3,1,22,25,2,-3,-3
1512354211651839,0,1,-1,-21,1,-3,2,0
1512354211651839,1,2,5,6,-2,-1,-1,-4
1512354211652839,2,5,-3,0,4,1,0,6
1512354211652839,-3,0,-4,-11,7,14,3,-1
1512354211674839,-2,-4,4,11,-5,-4,-2,-5
1512354211674839,1,3,6,36,-11,-8,0,-1
1512354211675839,-8,-14,0,-7,17,8,1,-1
1512354211675839,1,1,-23,-60,-34,-5,-1,1
1512354211688839,0,-3,-9,-10,-8,1,2,3
1512354211688839,-1,1,3,-5,-10,-1,-3,0
1512354211689839,5,9,18,33,1,1,0,2
1512354211689839,-2,-2,9,10,4,-4,2,1
1512354211711839,-1,-3,-12,-15,-25,-2,-1,3
1512354211711839,-1,2,1,-9,16,2,-2,-2
1512354211712839,-1,1,-5,-5,-16,0,2,-1
1512354211712839,-2,-1,7,8,0,-2,-5,-3
1512354211734839,1,-1,5,7,9,-3,2,2
1512354211734839,-3,-3,2,-1,6,2,1,-2
1512354211735839,8,6,1,9,8,2,1,2
1512354211735839,-5,-4,-3,-12,-13,-8,-6,-6
1512354211748839,2,6,10,27,3,4,0,-2
1512354211748839,-12,-9,-9,-29,-4,-6,-7,-7
1512354211749839,2,-5,-13,-11,-13,-10,-1,-1
1512354211749839,0,-7,-8,-21,0,10,0,3
1512354211770839,-1,3,7,8,7,2,-2,1
1512354211770839,6,7,14,16,4,5,2,2
1512354211778839,-2,6,-1,0,19,-2,-1,-3
1512354211778839,1,1,8,10,-6,-6,1,-2
1512354211794839,-7,-5,-1,4,-6,0,0,-3
1512354211794839,4,-2,2,7,2,4,0,4
1512354211795839,1,-1,-7,-22,-8,-4,2,2
1512354211795839,-7,-6,-3,-2,5,-8,-8,-7
1512354211816839,1,1,-4,-4,0,2,-3,-4
1512354211816839,1,1,0,1,-3,-2,2,-2
1512354211817839,-2,-3,-3,1,6,1,0,-5
1512354211817839,2,4,5,14,16,-3,3,4
1512354211830839,-1,0,-1,-7,1,-14,-4,-1
1512354211830839,-4,-6,-3,-5,-3,8,0,-9
1512354211838839,-6,-14,-20,-1,-4,-6,-6,-9
1512354211838839,1,1,3,1,-11,-6,2,13
1512354211854839,7,16,45,-1,1,-1,0,4
1512354211854839,5,8,-1,0,-1,-1,-1,2
1512354211855839,-3,-7,-39,-5,-22,2,0,-1
1512354211855839,-2,11,30,5,47,3,2,-4
1512354211876839,0,-11,-26,1,3,6,0,-2
1512354211876839,0,8,6,-6,-10,-7,1,12
1512354211877839,3,4,10,-3,5,-5,-4,-4
1512354211877839,8,16,19,9,-15,-1,1,-2
1512354211890839,-2,-3,-8,3,0,4,0,0
1512354211890839,-1,5,12,-17,6,-2,-5,-5
1512354211898839,-14,-18,0,8,-4,-4,-16,-23
1512354211898839,6,-1,-14,3,18,4,18,20
1512354211913839,-3,3,6,-11,-10,-5,0,-2
1512354211913839,-2,-9,-22,-3,-3,3,-2,-3
1512354211914839,2,5,10,9,11,-2,0,4
1512354211914839,-9,-17,-22,-11,-7,-1,-6,-11
1512354211936839,-3,-9,-12,2,-9,0,2,1
1512354211936839,2,-6,-9,-1,4,7,3,0
1512354211937839,3,11,22,2,-5,-2,1,3
1512354211937839,0,9,2,-14,-30,0,-3,-2
1512354211950839,-4,-14,-16,2,8,-1,0,2
1512354211950839,-1,-2,4,7,20,-10,0,-3
1512354211958839,3,18,36,3,8,7,4,6
1512354211958839,-2,0,-25,5,-13,-11,-8,-3
1512354211973839,0,-7,-15,-6,1,-5,-2,-2
1512354211973839,-2,-1,3,-1,-5,9,0,-6
1512354211974839,-4,1,2,-1,-13,-12,-4,-7
1512354211974839,1,-6,7,-12,-13,8,6,27
1512354211996839,0,4,11,22,24,4,6,0
1512354211996839,4,1,-4,-7,-30,-7,-2,2
1512354211997839,1,-4,-7,-4,-28,-1,1,-4
1512354211997839,-2,-3,-7,2,-4,-6,-3,1
1512354212010839,-4,7,17,-5,-6,1,-2,-12
1512354212010839,3,0,-12,4,1,-6,3,9
1512354212018839,-6,-9,-5,-1,-15,1,2,-2
1512354212018839,-5,-19,-23,-4,19,0,-4,-9
1512354212033839,2,-1,-3,-8,-30,4,2,7
1512354212033839,-1,4,7,7,11,-3,-3,-8
1512354212034839,2,5,6,-1,8,-2,-2,5
1512354212034839,-3,-2,-1,1,5,2,-3,-11
1512354212056839,1,1,-4,2,19,6,0,14
1512354212056839,-10,-7,0,-11,-40,-9,-9,-11
1512354212057839,3,2,-3,1,14,-3,2,6
1512354212057839,1,3,13,10,23,14,0,-8
1512354212070839,-1,-5,-12,-13,-8,-9,-6,-7
1512354212070839,1,1,4,1,7,7,4,6
1512354212078839,-4,-5,-8,0,50,8,0,1
1512354212078839,1,4,3,6,-5,-6,-4,-5
1512354212093839,-8,-5,4,-14,-32,-4,-5,-13
1512354212093839,8,2,-5,7,9,-7,0,16
1512354212094839,0,-1,-9,-15,-34,10,6,2
1512354212094839,3,9,6,8,4,-4,-1,0
1512354212116839,-1,-6,1,5,30,5,1,0
1512354212116839,-1,-3,5,2,-11,-3,-5,-6
1512354212117839,1,-1,-2,0,6,1,0,2
1512354212117839,-4,-2,-3,-4,-17,-7,-3,-7
1512354212139839,8,8,8,7,-12,-7,2,6
1512354212139839,-1,5,9,-4,14,26,4,-2
1512354212140839,-2,-11,-23,0,5,-8,-4,-2
1512354212140839,-6,-10,-7,-7,-2,-6,-1,-6
1512354212153839,1,3,3,13,21,-12,-6,-2
1512354212153839,0,-2,4,-7,-13,-7,-1,0
1512354212162839,2,9,12,1,2,1,-2,3
1512354212162839,-2,-2,-4,-3,4,-5,-1,-5
1512354212176839,4,7,7,8,19,11,1,-1
1512354212176839,-3,-5,-12,-15,-9,-1,2,2
1512354212178839,-11,-11,1,3,-6,-12,-7,-4
1512354212178839,3,4,2,3,17,3,1,4
1512354212199839,-5,-10,-14,0,25,-1,2,-4
1512354212199839,4,6,6,6,13,1,2,1
1512354212201839,-5,-5,8,0,-1,-1,-4,-11
1512354212201839,2,-8,-24,-14,-56,-3,2,4
1512354212213839,-5,-10,-20,-7,-15,3,-1,3
1512354212213839,-4,4,8,-7,-16,-16,-5,-3
1512354212222839,7,11,16,12,45,24,9,2
1512354212222839,2,3,11,-7,-6,2,2,11
1512354212236839,0,-1,-11,-6,27,22,-1,-10
1512354212236839,-4,-2,1,13,17,-3,-2,-7
1512354212238839,6,8,14,2,-27,-10,6,33
1512354212238839,4,16,30,7,4,13,-1,-17
1512354212259839,-3,-10,-53,-7,4,-8,0,3
1512354212259839,-5,-23,-11,8,47,1,-3,-8
1512354212260839,2,10,6,-10,-7,12,7,-1
1512354212260839,-7,-14,12,-2,-14,-11,-2,-1
1512354212273839,-2,-3,-17,6,3,-6,-2,-2
1512354212273839,-1,5,7,-6,-16,9,2,-3
1512354212282839,2,-5,-23,-9,-46,-14,-3,-1
1512354212282839,-3,-13,-11,-5,4,-13,-5,2
1512354212296839,-6,4,38,3,-28,0,-5,-9
1512354212296839,2,7,7,13,47,-3,5,15
1512354212298839,-3,-3,-17,-8,1,2,1,-5
1512354212298839,-2,19,16,7,-4,1,-1,-13
1512354212318839,-4,-26,-7,6,6,-9,2,4
1512354212318839,5,24,58,-25,-62,0,-3,-3
1512354212327839,-6,-18,-88,21,55,7,-2,-3
1512354212327839,-3,-16,-20,-13,-3,-2,-3,0
1512354212333839,4,16,44,-9,-38,-3,1,1
1512354212333839,1,-5,-4,7,15,1,-3,0
1512354212342839,0,16,47,2,-5,-10,-3,-6
1512354212342839,-1,0,-13,1,7,19,4,5
1512354212356839,0,6,12,5,-2,-12,-9,-11
1512354212356839,-2,3,-8,-3,13,-5,-4,-5
1512354212358839,4,-3,-22,-7,4,11,3,5
1512354212358839,-2,-10,-5,8,29,3,7,9
1512354212379839,-3,-2,-4,-15,-16,-13,-1,0
1512354212379839,0,-1,-16,9,7,16,-3,-17
1512354212380839,-1,9,43,1,5,3,-3,-2
1512354212380839,0,-7,-11,4,7,-4,1,5
1512354212392839,0,2,-1,-19,-26,3,1,3
1512354212392839,-6,-9,-14,3,-5,-3,0,1
1512354212402839,-1,-4,12,-4,-17,-5,-2,0
1512354212402839,5,16,18,5,2,8,5,-7
1512354212416839,-10,-2,-18,-2,-4,-15,-14,-18
1512354212416839,2,-11,-13,11,-3,-8,9,22
1512354212418839,4,12,18,-12,-34,0,-1,-3
1512354212418839,-8,-23,-50,-7,29,-3,-5,-3
1512354212439839,3,19,48,6,5,-9,-2,-4
1512354212439839,1,-3,-36,-6,-13,2,0,0
1512354212440839,-4,-13,-4,12,26,7,1,-1
1512354212440839,6,9,17,-11,-23,-14,-4,3
1512354212452839,7,3,-1,2,-32,-8,10,21
1512354212452839,-8,-2,8,-9,-7,-14,-9,-11
1512354212461839,0,-3,2,7,3,-2,-7,-7
1512354212461839,1,5,3,-12,-24,6,-3,-9
1512354212476839,4,1,2,7,22,7,9,15
1512354212476839,-10,-6,-6,0,7,-11,-8,-18
1512354212478839,6,-1,-4,-6,-15,4,9,18
1512354212478839,-4,3,12,13,5,-9,-2,4
1512354212499839,1,5,-1,0,21,9,-1,-3
1512354212499839,5,-2,-17,-5,-29,-4,-4,0
1512354212500839,-9,-11,-6,12,70,5,-1,-10
1512354212500839,0,9,21,-6,-40,-2,-3,-2
1512354212513839,-1,-7,-18,2,-1,-4,6,9
1512354212513839,5,3,17,-7,-3,12,7,8
1512354212521839,0,5,9,0,-28,-10,-3,-5
1512354212521839,4,5,7,13,27,8,7,5
1512354212536839,-4,-18,-22,-9,0,17,-4,-11
1512354212536839,0,-2,-6,5,2,-11,1,4
1512354212538839,-1,5,13,-7,-11,-6,-3,0
1512354212538839,0,1,4,-11,-16,-10,-7,-4
1512354212559839,-5,-2,0,-6,-13,2,-7,-5
1512354212559839,0,-7,2,5,17,1,5,10
1512354212560839,-1,-2,1,3,-10,-6,-7,-12
1512354212560839,0,-1,-8,-14,1,1,2,-1
1512354212573839,0,-1,-6,3,5,7,-1,-2
1512354212573839,-3,3,5,-11,-47,-11,-5,-3
1512354212581839,3,-3,-9,12,25,-2,3,-1
1512354212581839,-7,-3,7,-1,-26,-5,-6,-10
1512354212597839,0,8,24,16,-3,-2,-3,1
1512354212597839,-4,-12,-43,-5,25,0,2,-4
1512354212599839,1,-4,-2,-9,-16,-4,-1,4
1512354212599839,1,1,-1,-8,-17,12,3,4
1512354212619839,0,3,34,9,8,0,2,0
1512354212619839,2,-5,-26,3,-26,-1,2,2
1512354212620839,-5,-3,-6,-14,-29,-15,-11,-18
1512354212620839,5,9,1,7,31,17,10,23
1512354212633839,-1,-6,-6,-1,-2,-8,0,4
1512354212633839,-6,-3,9,-6,-1,8,-11,-16
1512354212642839,2,0,-6,-5,-4,1,8,0
1512354212642839,1,2,9,11,6,-4,-7,-8
1512354212656839,1,2,-12,-3,-6,5,3,8
1512354212656839,5,9,15,4,11,10,1,1
1512354212658839,-2,-2,-9,6,1,0,0,1
1512354212658839,-2,-6,-2,10,10,-5,-2,-10
1512354212679839,-3,-3,-9,4,5,-9,0,3
1512354212679839,2,1,1,-12,4,10,5,1
1512354212680839,1,7,23,2,-6,5,-1,1
1512354212680839,-2,-11,-18,7,38,-3,1,0
1512354212692839,0,4,0,-3,-10,-5,-2,-3
1512354212692839,-2,-7,-9,10,5,-3,4,-1
1512354212701839,-1,-1,1,3,64,8,-4,-3
1512354212701839,2,9,8,-5,-52,4,4,-3
1512354212716839,-2,-12,-25,-1,18,-5,-4,3
1512354212716839,-1,1,12,2,-1,5,0,2
1512354212718839,0,0,-9,-5,-2,-3,-2,0
1512354212718839,-3,-6,-8,1,3,-11,-2,-3
1512354212739839,-1,8,15,-2,5,2,-6,-20
1512354212739839,0,4,-1,-6,-19,0,3,17
1512354212740839,-5,-8,-6,-7,-14,-15,-6,-5
1512354212740839,-1,1,4,-4,-4,2,1,1
1512354212752839,1,-2,-6,3,12,-4,-2,-3
1512354212752839,-4,-4,5,6,31,-4,-3,-3
1512354212761839,2,0,-2,-8,-22,10,8,10
1512354212761839,-1,-1,-4,-1,3,-1,1,7
1512354212776839,-1,0,-4,-7,2,10,-1,-8
1512354212776839,-1,1,2,5,1,-19,-4,-5
1512354212778839,-1,-6,-8,-3,2,17,7,4
1512354212778839,-3,-5,-9,1,-11,-2,-2,-5
1512354212799839,2,0,3,-14,-7,17,4,5
1512354212799839,3,9,19,0,-2,-4,-2,-4
1512354212800839,-3,1,-15,-4,-22,-12,-7,-8
1512354212800839,-2,-1,0,6,13,-1,-2,-1
1512354212812839,1,3,5,5,-10,-6,3,5
1512354212812839,-1,-2,-1,-1,-1,-12,-2,-2
1512354212821839,2,1,1,-4,6,6,6,6
1512354212821839,1,3,2,0,6,1,-2,-8
1512354212836839,-1,1,3,-4,-15,-6,-4,-2
1512354212836839,-1,3,3,0,-3,-1,-1,-3
1512354212838839,0,2,8,22,17,-7,-7,17
1512354212838839,-1,0,-8,-10,10,11,-5,-10
1512354212859839,-1,-1,-5,-24,-60,-9,2,1
1512354212859839,-4,-4,-6,-5,-15,10,2,-4
1512354212860839,1,3,8,7,18,15,4,-2
1512354212860839,0,2,11,2,3,-7,5,11
1512354212873839,-3,-3,-6,9,14,0,-7,-8
1512354212873839,2,-3,-18,-2,3,-9,-3,0
1512354212882839,-5,-5,-3,-8,-15,-8,-6,-8
1512354212882839,-2,-1,-8,0,-16,-3,0,-9
1512354212896839,-2,-4,-3,7,34,-7,7,10
1512354212896839,2,4,7,-5,-2,29,6,-6
1512354212898839,-3,0,4,1,-7,-6,3,1
1512354212898839,1,-1,0,0,-4,-11,-10,-8
1512354212919839,-1,-2,-3,-3,6,9,1,4
1512354212919839,0,3,5,3,13,-7,0,4
1512354212920839,-8,-7,-6,1,9,0,-4,-14
1512354212920839,-2,-6,-4,-15,18,2,2,-3
1512354212932839,2,1,-5,1,-5,-3,0,8
1512354212932839,-3,-1,6,13,33,-4,-4,-6
1512354212942839,1,0,-3,-11,-19,2,0,4
1512354212942839,-1,4,-3,4,-7,-15,-6,-2
1512354212956839,3,1,17,4,-5,-3,2,7
1512354212956839,-1,-4,-21,-4,2,-6,-3,1
1512354212958839,0,-3,2,4,-9,-3,-5,-4
1512354212958839,0,-3,-6,-17,-8,3,6,3
1512354212979839,-2,5,26,6,12,-9,-10,-18
1512354212979839,2,1,-18,5,-20,29,6,6
1512354212980839,-2,-11,-22,-22,-46,-10,1,1
1512354212980839,-3,0,7,-1,-15,-5,-7,-7
1512354212992839,-2,-4,-8,-4,0,-5,-3,-10
1512354212992839,0,3,17,-1,-5,5,0,2
1512354213001839,3,3,4,-4,-11,-1,0,0
1512354213001839,-4,-3,-7,4,-12,-4,-9,-8
1512354213016839,-4,-4,-9,0,-5,4,4,16
1512354213016839,-2,1,7,-13,-21,-20,-7,-13
1512354213022839,1,0,-2,2,10,-1,-1,-2
1512354213022839,2,1,5,17,32,-4,5,5
1512354213039839,-1,-2,-3,3,7,0,2,3
1512354213039839,-2,-4,-3,-8,-19,-14,-4,1
1512354213040839,0,-2,0,2,22,4,4,2
1512354213040839,3,1,2,3,-5,29,7,22
1512354213061839,-8,-2,-6,-2,6,7,-4,-14
1512354213061839,-1,-3,-3,-5,-9,3,2,-1
1512354213063839,0,10,28,4,12,-8,-5,-10
1512354213063839,-2,-4,-14,11,11,2,0,4
1512354213076839,0,-4,-14,-10,-14,-1,2,0
1512354213076839,-2,1,6,4,-21,-8,-4,6
1512354213082839,-5,-5,-8,-2,35,3,-3,-13
1512354213082839,3,5,9,-7,-6,1,5,17
1512354213099839,-2,-3,-7,-11,-5,16,0,-9
1512354213099839,0,-2,-3,13,16,-4,-3,-9
1512354213100839,5,9,42,-1,-9,-7,-1,4
1512354213100839,-6,-16,-50,2,-2,-5,-2,1
1512354213121839,2,0,-4,1,0,-11,0,5
1512354213121839,-1,-1,-1,-5,0,16,3,-4
1512354213123839,-2,-1,-2,7,7,-1,-7,0
1512354213123839,1,1,11,-8,-8,-21,1,1
1512354213136839,2,3,2,4,3,31,5,1
1512354213136839,1,-5,-1,-9,-1,2,-3,-1
1512354213142839,-1,-2,-2,1,0,2,2,2
1512354213142839,-3,-3,5,-3,-27,-11,-8,-16
1512354213159839,3,0,-8,-3,-4,-6,-2,13
1512354213159839,-5,-1,2,-9,-8,-11,1,6
1512354213161839,2,2,-9,5,5,7,0,1
1512354213161839,-4,-6,-5,14,31,10,7,4
1512354213181839,0,4,7,-20,-16,-11,-3,-12
1512354213181839,0,-3,-25,-7,-11,11,-2,0
1512354213183839,-2,-2,-4,0,-25,-16,-5,-2
1512354213183839,-1,3,5,2,8,4,-2,-17
1512354213196839,0,9,45,11,-10,10,1,10
1512354213196839,4,2,-16,5,5,-15,1,3
1512354213202839,-6,-18,-25,3,40,20,3,-1
1512354213202839,3,5,13,-6,-24,-11,-7,-10
1512354213219839,-4,3,27,9,31,15,4,0
1512354213219839,1,2,-16,5,4,-4,-5,-13
1512354213220839,-1,-1,-2,-2,10,5,5,9
1512354213220839,-1,0,8,0,20,8,-2,0
1512354213241839,-2,0,-4,0,12,-13,-3,-9
1512354213241839,-1,2,20,5,-1,-4,-2,2
1512354213243839,2,-3,-18,12,7,16,6,4
1512354213243839,-1,2,-3,-28,-4,4,-1,-2
1512354213256839,1,-5,-11,3,-19,-6,-5,0
1512354213256839,-1,3,3,0,8,9,1,0
1512354213262839,0,-8,0,-2,-31,-8,4,9
1512354213262839,1,4,23,-4,-11,3,2,13
1512354213279839,0,-3,-37,-5,-24,13,-5,-17
1512354213279839,-2,-6,6,1,10,-18,1,15
1512354213280839,1,5,0,-15,-6,7,0,-13
1512354213280839,-4,0,0,3,-17,1,-3,-7
1512354213301839,0,-1,-3,2,14,-24,-3,3
1512354213301839,-3,-5,0,-4,-12,21,2,-6
1512354213303839,0,6,1,-10,-8,1,-8,-2
1512354213303839,-1,-4,-3,6,13,1,7,3
1512354213315839,0,-1,9,-7,-8,0,1,-10
1512354213315839,-2,1,-12,0,-16,3,0,-2
1512354213324839,-3,-4,-12,-5,2,-18,-7,-3
1512354213324839,4,9,21,11,14,6,0,11
1512354213339839,-4,-12,-29,9,7,-11,-2,-6
1512354213339839,0,-1,17,-7,8,-2,0,7
1512354213340839,0,5,6,-5,-26,-7,4,-5
1512354213340839,-2,-5,-13,8,17,-12,-6,-6
1512354213361839,-3,4,5,-12,-18,-9,-5,-6
1512354213361839,2,5,10,12,32,10,6,-1
1512354213363839,-2,-4,-9,1,-11,-28,-2,5
1512354213363839,0,2,3,-2,4,56,8,-3
1512354213375839,0,-1,4,2,-1,-17,0,5
1512354213375839,-5,-11,-19,-5,5,10,-6,-4
1512354213384839,2,7,8,14,29,-15,2,-3
1512354213384839,-1,-7,-9,-16,-71,-76,-7,10
1512354213399839,-1,3,-3,-1,48,73,12,-3
1512354213399839,-7,-24,-27,-22,-22,19,0,13
1512354213400839,3,6,22,-1,11,7,1,0
1512354213400839,2,-3,-21,1,13,3,3,-4
1512354213421839,-5,-5,12,1,-33,-37,-9,-5
1512354213421839,-2,-2,4,14,16,-14,-2,2
1512354213423839,2,2,-5,-21,-17,-2,-3,-1
1512354213423839,-2,-2,-3,1,3,-3,-3,3
1512354213435839,1,-3,-7,-5,-4,-4,0,7
1512354213435839,5,16,19,21,22,-17,-5,-12
1512354213444839,-6,-13,-22,-1,-13,-3,-4,-1
1512354213444839,2,8,27,-6,-4,-14,-3,-11
1512354213459839,1,-2,-44,-3,4,24,-2,-7
1512354213459839,-6,-20,1,-8,-6,-10,1,15
1512354213460839,2,6,11,6,7,-1,2,-2
1512354213460839,-4,1,-20,-11,-16,7,-10,-6
1512354213481839,-2,1,31,8,-29,-13,3,2
1512354213481839,-1,4,3,-3,-6,-6,1,0
1512354213483839,2,1,-4,3,11,15,-1,1
1512354213483839,-2,-8,-3,4,11,6,2,5
1512354213495839,-1,2,0,-9,-24,-6,-7,0
1512354213495839,1,10,13,11,8,-10,-1,11
1512354213504839,-4,-8,-15,-8,-27,-22,-5,-4
1512354213504839,-4,-2,-5,-13,-35,25,8,3
1512354213519839,1,-1,1,9,9,-20,-6,-9
1512354213519839,5,8,0,-7,-14,-5,2,4
1512354213520839,2,1,28,-1,4,17,5,19
1512354213520839,0,-1,-16,9,9,-5,-4,-8
1512354213541839,-1,1,4,6,8,9,1,0
1512354213541839,-10,-29,-43,-15,-18,-13,-2,-14
1512354213543839,-2,5,3,5,-12,9,-8,-11
1512354213543839,0,-1,3,-14,-1,13,8,0
1512354213555839,1,3,7,3,-39,-14,0,16
1512354213555839,2,1,1,-11,3,10,1,-4
1512354213564839,3,2,6,5,25,28,6,-1
1512354213564839,2,-8,-22,14,9,-13,-4,5
1512354213579839,2,6,6,3,62,10,-2,-5
1512354213579839,-1,5,12,-8,-30,8,1,2
1512354213580839,-2,-4,-18,4,7,-8,-3,-5
1512354213580839,-4,2,15,-3,-16,-6,1,-3
1512354213601839,-4,-7,-15,-8,-1,-1,-3,-15
1512354213601839,8,12,19,1,-29,-2,4,21
1512354213603839,-7,-8,-8,11,39,-10,-5,-9
1512354213603839,2,-1,-9,4,17,17,3,9
1512354213615839,-2,-5,12,-6,-9,-5,1,2
1512354213615839,0,8,-11,5,19,-25,-5,-17
1512354213624839,5,9,31,-7,-24,6,-1,17
1512354213624839,-6,-30,-58,-4,17,-7,-8,-12
1512354213639839,4,2,8,14,-15,-27,1,9
1512354213639839,-1,6,15,-5,14,-2,-6,-20
1512354213640839,-1,4,8,0,11,-8,0,-6
1512354213640839,1,13,32,10,10,-15,-4,3
1512354213662839,-6,-23,-49,-4,-2,17,-5,-5
1512354213662839,-2,4,10,10,46,14,-4,0
1512354213667839,0,-1,-8,7,-4,-10,0,-3
1512354213667839,1,12,40,-21,7,12,3,-3
1512354213675839,-2,8,23,5,-10,-2,5,2
1512354213675839,-1,-16,-51,1,1,1,-5,-2
1512354213684839,-4,0,2,-10,-45,-2,0,-2
1512354213684839,1,6,13,1,9,-11,-2,6
1512354213699839,2,5,9,-1,37,17,4,-2
1512354213699839,-3,-12,-8,11,24,3,0,1
1512354213700839,-1,0,-4,-7,-25,-8,-1,6
1512354213700839,-4,-5,-9,-12,-42,-3,-3,-9
1512354213721839,-2,1,1,-6,1,7,8,16
1512354213721839,-2,3,11,-6,-20,-3,2,-6
1512354213723839,-2,-9,-21,1,10,-2,-3,-7
1512354213723839,2,3,6,11,42,3,2,10
1512354213735839,0,1,-4,-11,-19,-6,-8,-4
1512354213735839,0,6,17,5,-16,-8,2,-5
1512354213744839,-3,-7,-6,0,13,23,1,9
1512354213744839,1,1,-9,19,43,7,7,-5
1512354213759839,0,0,-6,0,-20,-1,-3,1
1512354213759839,0,2,11,-5,1,-17,-10,-11
1512354213760839,-5,0,-6,10,7,12,3,2
1512354213760839,2,-2,-4,-1,12,2,-1,1
1512354213781839,-2,1,5,10,23,-6,2,5
1512354213781839,0,6,13,-9,-20,5,-2,-6
1512354213783839,-3,-10,-27,-11,13,-11,-4,-16
1512354213783839,2,4,15,23,22,7,3,17
1512354213795839,-2,-4,-14,-21,24,-8,-6,-11
1512354213795839,0,4,18,10,24,22,1,4
1512354213804839,-3,8,5,5,-37,-13,-2,-6
1512354213804839,-3,-6,-6,-9,-20,-5,-3,-10
1512354213819839,-1,-2,-4,-13,-4,-15,-2,3
1512354213819839,1,1,2,6,-23,2,-3,1
1512354213820839,2,1,2,-12,2,-20,-1,4
1512354213820839,-1,2,1,4,-17,-6,-2,-6
1512354213841839,0,-1,-1,7,21,22,2,1
1512354213841839,-2,-4,-7,-6,-30,-20,-1,-1
1512354213843839,1,-2,9,1,-1,-8,-4,2
1512354213843839,-1,0,-11,-1,-11,-7,0,-9
1512354213855839,-2,-4,1,-10,-7,27,5,3
1512354213855839,-5,-2,-4,5,6,-5,-9,-16
1512354213864839,6,3,10,-5,-9,7,8,25
1512354213864839,-5,-10,6,-3,-16,-6,-7,-16
1512354213879839,-1,-1,-18,-3,-9,-1,-4,-2
1512354213879839,0,-4,-5,4,9,6,-1,-3
1512354213880839,1,7,31,-4,-7,-9,0,-6
1512354213880839,0,-2,-25,3,6,10,1,7
1512354213901839,1,1,-2,9,6,10,4,-7
1512354213901839,0,-3,11,-23,-33,-13,-1,3
1512354213903839,-2,-3,-21,27,32,-1,-3,-8
1512354213903839,2,3,16,-22,-14,-2,1,-1
1512354213915839,3,8,16,20,17,14,2,2
1512354213915839,-3,-9,-25,-2,-3,-2,4,6
1512354213924839,-3,3,5,5,-8,8,0,-4
1512354213924839,-2,-6,-10,-20,17,-1,-4,-14
1512354213938839,-1,5,9,-4,-4,-7,-2,15
1512354213938839,-2,-4,-8,9,6,7,-3,-27
1512354213945839,6,0,-6,-7,5,9,12,41
1512354213945839,-4,2,15,3,-2,-7,-6,-18
1512354213961839,3,-5,-9,-1,-21,-26,1,16
1512354213961839,1,3,-8,1,20,8,1,3
1512354213963839,-8,-11,-10,-3,0,1,-7,-14
1512354213963839,3,3,5,-2,-17,-2,4,4
1512354213975839,2,3,8,-2,-10,-8,-3,-3
1512354213975839,-3,-12,-19,1,10,-1,-1,3
1512354213990839,0,0,-10,-14,-20,-2,-2,-10
1512354213990839,-5,-5,8,-2,0,-5,-2,10
1512354213998839,-1,-7,-13,10,7,0,6,-4
1512354213998839,4,10,11,-6,3,14,2,5
1512354214005839,-1,-1,1,-15,-26,-2,-3,-6
1512354214005839,0,1,-2,13,10,18,1,-4
1512354214021839,-4,-3,-1,-3,52,-14,-6,-10
1512354214021839,1,2,5,-1,-22,0,6,8
1512354214023839,4,2,0,0,11,6,5,18
1512354214023839,0,1,-8,4,-19,-29,-1,5
1512354214044839,-2,-4,-2,1,-11,19,1,-4
1512354214044839,-1,2,7,2,7,-10,-4,-1
1512354214045839,-2,2,13,-1,-11,-3,-7,-23
1512354214045839,2,0,-18,-1,12,19,-3,-2
1512354214058839,-1,4,6,-17,-25,-14,0,10
1512354214058839,-1,1,12,1,-1,9,0,0
1512354214065839,-2,-8,-14,2,-8,-14,-6,0
1512354214065839,-2,-3,0,12,-13,-7,3,7
1512354214081839,-2,3,22,-16,-11,-14,-9,-18
1512354214081839,1,1,-19,-2,16,23,7,2
1512354214083839,0,2,14,-1,3,-11,-6,-6
1512354214083839,-5,-3,-12,5,-14,2,-4,-11
1512354214104839,6,3,-2,9,4,-1,6,18
1512354214104839,-1,0,12,-7,-18,-24,-3,-2
1512354214105839,2,0,-4,0,16,26,11,20
1512354214105839,0,0,1,-2,5,-9,-8,-5
1512354214118839,-4,-1,3,4,-25,-1,1,-3
1512354214118839,-3,2,2,0,17,-2,0,-4
1512354214125839,-3,1,8,-5,7,11,-2,-15
1512354214125839,-2,-13,-25,-4,-11,-6,2,6
1512354214141839,-4,-8,-23,-5,4,6,1,-3
1512354214141839,4,0,3,19,3,-12,-4,7
1512354214143839,-4,2,5,-18,-19,-2,-1,-5
1512354214143839,-1,9,21,4,2,10,3,-4
1512354214164839,-1,-2,-2,6,22,-18,-5,-9
1512354214164839,-3,-4,-14,-7,-26,-5,-4,-3
1512354214165839,-1,-5,1,21,40,-19,-7,-15
1512354214165839,3,4,4,-21,9,31,7,17
1512354214178839,-4,-6,-12,-1,0,14,-6,-21
1512354214178839,-1,-2,-10,2,-4,1,2,12
1512354214185839,0,1,-1,-4,-11,-7,3,0
1512354214185839,-2,-2,2,-5,-27,-19,-6,-9
1512354214201839,2,1,2,3,10,3,-1,-2
1512354214201839,-1,3,13,4,12,7,0,-6
1512354214204839,-3,-7,-13,-3,-16,2,-3,-9
1512354214204839,-2,-2,-2,-3,16,3,1,-1
1512354214224839,2,5,0,-3,-24,8,2,6
1512354214224839,2,8,26,-4,46,1,0,0
1512354214225839,0,-2,-32,4,-4,5,1,0
1512354214225839,1,1,11,6,2,-33,-1,6
1512354214238839,-3,-1,1,-2,-1,-4,-6,-16
1512354214238839,4,-1,-8,2,-15,2,8,28
1512354214245839,0,5,20,-8,0,-7,-2,-1
1512354214245839,1,-4,-2,0,15,-9,-5,2
1512354214261839,-2,-4,-10,7,-10,-3,-3,-8
1512354214261839,2,3,9,-8,7,4,3,9
1512354214263839,-1,-5,-1,3,-9,-4,5,8
1512354214263839,-1,-3,-10,-5,-23,-11,-2,-1
1512354214284839,0,-1,3,1,8,4,-7,6
1512354214284839,-3,0,4,3,-4,-12,-4,-12
1512354214285839,-1,0,-11,-6,12,26,1,-13
1512354214285839,-3,-3,-7,2,0,10,-1,-5
1512354214297839,-2,-5,-3,7,22,-1,0,3
1512354214297839,0,6,16,5,20,-13,4,6
1512354214306839,-1,-7,-26,-9,-27,3,-5,-1
1512354214306839,-3,-1,15,7,-22,10,3,-4
1512354214321839,1,-5,-11,-6,-1,-21,-2,1
1512354214321839,-4,-6,-12,-9,-3,21,-4,-13
1512354214324839,2,8,7,3,1,-2,3,13
1512354214324839,2,1,7,11,15,-3,1,6
1512354214344839,-1,0,10,1,-43,-9,-2,1
1512354214344839,-5,-6,-16,1,6,-13,-6,-23
1512354214345839,6,3,10,-1,15,9,0,26
1512354214345839,5,9,-8,-21,-35,10,-6,-4
1512354214357839,-5,-11,-8,4,-4,0,4,3
1512354214357839,0,2,6,-4,7,3,0,-7
1512354214367839,-6,-2,-1,10,-14,-9,-4,-17
1512354214367839,2,1,5,11,42,16,7,27
1512354214381839,3,4,9,-17,-30,-9,-1,-8
1512354214381839,-5,-14,-20,-1,-19,-5,5,14
1512354214383839,5,1,3,2,10,6,4,5
1512354214383839,-2,3,5,3,6,-16,-7,-12
1512354214404839,1,4,-5,-4,0,32,4,-10
1512354214404839,-2,-7,-8,-2,-3,0,-6,-2
1512354214405839,1,4,10,-7,-2,-10,3,8
1512354214405839,-3,-6,-13,-9,9,2,1,-6
1512354214417839,-2,-4,-5,-6,-8,1,0,3
1512354214417839,2,10,34,9,25,3,-7,-6
1512354214427839,-2,-2,-21,19,45,8,-6,-12
1512354214427839,-1,-5,-8,-5,8,-6,2,2
1512354214441839,-3,-2,0,-4,-6,-23,-3,2
1512354214441839,0,-2,-5,6,-14,24,0,-4
1512354214443839,-2,5,17,-9,-19,-20,-5,-10
1512354214443839,2,2,4,4,2,4,3,7
1512354214464839,2,1,-10,-1,5,-8,0,5
1512354214464839,-3,-4,6,7,-17,-22,-3,-6
1512354214465839,1,-6,-11,-6,-7,2,1,6
1512354214465839,-4,-4,-2,2,-11,-5,-5,-9
1512354214477839,-2,3,6,-1,9,10,6,-6
1512354214477839,4,6,-2,3,-1,-7,-6,-1
1512354214486839,-5,-6,1,-5,-22,-8,-4,-11
1512354214486839,2,2,6,3,19,2,3,15
1512354214501839,2,7,12,4,-4,-2,-2,-7
1512354214501839,-2,-7,-15,5,11,16,-2,4
1512354214503839,-1,-1,-4,-5,21,14,2,-4
1512354214503839,-3,1,-1,-6,-22,-4,-4,-9
1512354214524839,1,2,10,13,26,0,-6,14
1512354214524839,2,0,-4,-4,-22,-16,7,9
1512354214525839,-1,3,12,3,4,7,-1,-4
1512354214525839,-3,-6,-13,-9,-9,-2,-3,-12
1512354214537839,0,-4,-9,-4,-4,10,-2,8
1512354214537839,0,1,5,-15,-16,-15,0,-10
1512354214546839,-3,1,-11,8,2,-15,-6,-14
1512354214546839,1,-6,-9,-7,-10,7,9,14
1512354214561839,-2,-2,4,2,10,-5,-4,-10
1512354214561839,-1,-3,-12,-5,-10,-3,-6,-13
1512354214563839,3,2,13,-4,-11,-1,10,21
1512354214563839,-4,-5,-7,-1,10,-2,-1,-11
1512354214584839,0,-1,-7,-1,-14,0,3,11
1512354214584839,0,6,9,-9,-2,8,2,-1
1512354214585839,-1,-8,-7,5,15,29,8,-5
1512354214585839,-2,5,1,-13,-5,-9,-9,-6
1512354214597839,-3,-10,-5,-1,-27,8,-2,-1
1512354214597839,-1,5,5,7,47,4,-2,3
1512354214606839,-1,2,1,9,13,-10,-5,-8
1512354214606839,1,-6,-2,-12,-33,2,4,1
1512354214621839,2,6,6,-1,6,-6,-1,-8
1512354214621839,-4,2,1,2,-13,13,0,1
1512354214623839,2,-6,-13,-7,-25,-7,3,21
1512354214623839,1,-3,-2,2,13,-3,1,-3
1512354214644839,-1,0,2,4,15,4,1,-2
1512354214644839,-2,-3,-7,-4,-1,-18,-3,-5
1512354214645839,-1,0,0,-7,-12,-1,-3,-7
1512354214645839,-2,6,37,5,-9,11,6,5
1512354214657839,-3,-11,-44,-4,1,2,-1,-8
1512354214657839,-2,-5,-5,-10,-8,10,4,13
1512354214667839,1,9,23,7,-9,-13,-2,-15
1512354214667839,-1,2,-9,8,44,-2,-4,-5
1512354214681839,1,8,19,6,11,-6,-2,-6
1512354214681839,-1,-4,-2,-10,-29,-14,-2,11
1512354214683839,-4,-11,-16,-23,-2,9,-5,-9
1512354214683839,0,7,14,19,-1,-8,-7,-8
1512354214704839,1,4,0,-3,-5,-17,-1,7
1512354214704839,-3,-8,-7,2,47,36,13,19
1512354214705839,2,1,4,-6,13,-2,-3,2
1512354214705839,0,-3,-8,-7,-5,-6,0,1
1512354214726839,-4,0,0,5,-10,-14,-1,-6
1512354214726839,-3,-2,5,-17,-41,23,-6,-15
1512354214728839,6,-1,-15,-2,4,0,7,15
1512354214728839,-4,-2,-6,-1,14,4,-8,-13
1512354214741839,1,-3,12,-7,-9,-1,1,13
1512354214741839,1,6,-9,7,-24,-15,0,-9
1512354214743839,-5,-10,-4,-3,-2,-14,-6,-4
1512354214743839,-2,-5,-5,7,-17,8,-3,-3
1512354214764839,1,-1,2,1,18,0,6,15
1512354214764839,5,10,29,14,-2,-11,-4,-9
1512354214765839,-7,-12,-33,-14,-40,22,-1,-13
1512354214765839,2,-4,-18,1,40,8,6,6
1512354214778839,2,1,10,-5,-8,-8,2,13
1512354214778839,-2,-2,-5,-3,-2,1,3,4
1512354214786839,2,7,15,6,13,-37,-6,-5
1512354214786839,-3,1,7,6,-12,12,2,-4
1512354214801839,-3,-4,-10,-2,22,13,4,-2
1512354214801839,2,2,-2,-2,13,2,0,-1
1512354214803839,-8,-8,4,-5,-36,-15,-8,-8
1512354214803839,7,8,9,9,18,-15,3,20
1512354214824839,0,-2,-2,0,-2,7,0,-5
1512354214824839,-4,-7,-25,-4,-17,-36,-12,-15
1512354214826839,-3,4,10,9,23,42,7,13
1512354214826839,-2,-3,-2,-11,-43,-18,-3,-11
1512354214837839,0,5,6,7,17,7,-6,-2
1512354214837839,0,-1,1,0,17,-13,-3,3
1512354214846839,-1,2,4,7,0,10,0,-2
1512354214846839,0,-6,-12,-9,-24,-8,6,4
1512354214861839,-1,6,6,-6,6,-19,-8,-22
1512354214861839,0,-9,-7,-11,-48,8,6,19
1512354214867839,3,8,5,-10,6,-10,-2,2
1512354214867839,-2,1,7,15,-17,-1,-1,-3
1512354214884839,-3,-4,-7,7,2,6,-1,-6
1512354214884839,-2,1,7,-4,2,-12,-2,-6
1512354214885839,-1,-2,-9,0,0,5,-1,0
1512354214885839,2,-10,-28,-12,14,9,5,13
1512354214897839,-3,0,0,0,-6,0,0,-3
1512354214897839,-1,2,14,2,3,-3,-6,-2
1512354214906839,-1,-4,-15,5,11,-8,0,-3
1512354214906839,2,14,36,5,4,15,-2,8
1512354214921839,-1,-13,-35,-1,-29,-9,2,8
1512354214921839,-5,-11,-9,8,51,24,3,-15
1512354214927839,5,3,2,6,15,-7,1,18
1512354214927839,3,10,6,-14,-39,-7,4,-1
1512354214944839,-2,-2,9,-12,-1,-8,-8,-6
1512354214944839,1,4,-2,6,-2,2,5,4
1512354214945839,-3,-5,3,11,-11,-8,-4,-4
1512354214945839,-1,2,-15,-38,16,-4,-10,-8
1512354214966839,0,-1,1,-42,-4,-1,0,-5
1512354214966839,-1,0,9,39,-4,11,4,13
1512354214968839,-1,3,8,26,51,8,1,-13
1512354214968839,1,6,7,0,20,1,-5,-18
1512354214981839,1,-5,-10,-20,-27,-7,-1,7
1512354214981839,5,-1,-9,-17,-5,-7,7,21
1512354214987839,0,1,5,-14,-32,3,0,6
1512354214987839,-4,-2,5,37,17,-4,-5,-12
1512354215004839,0,6,11,13,17,58,6,-7
1512354215004839,1,1,9,-7,1,-18,-6,-6
1512354215005839,-5,-9,-23,14,9,0,0,-3
1512354215005839,-4,-13,-17,-27,-33,-19,-3,-3
1512354215026839,4,3,9,8,8,30,4,9
1512354215026839,0,3,9,8,3,-8,-1,-5
1512354215028839,-1,6,9,-19,-1,-15,-3,-7
1512354215028839,-2,5,12,9,23,10,2,-3
1512354215041839,-11,-36,-51,3,-38,-28,-9,-16
1512354215041839,-3,3,0,-14,10,-7,-2,-19
1512354215047839,5,4,2,-2,-10,16,5,23
1512354215047839,-1,-2,-2,-4,-12,-19,-6,9
1512354215064839,-3,7,27,7,-30,-29,2,-1
1512354215064839,-1,-5,-19,-12,12,12,-1,-6
1512354215065839,-4,-2,6,-3,-24,-14,-6,-11
1512354215065839,-3,0,1,7,18,20,2,9
1512354215086839,6,12,18,-4,-7,-3,0,9
1512354215086839,-1,4,-14,-8,-14,10,-11,-17
1512354215088839,0,-12,-16,22,27,-22,11,26
1512354215088839,-4,-2,5,-12,-8,11,-4,-6
1512354215101839,1,1,-4,16,20,-8,-1,-6
1512354215101839,5,6,15,-14,-16,23,10,18
1512354215107839,-2,0,1,1,5,4,-10,-17
1512354215107839,2,-2,-2,-5,-15,12,9,14
1512354215124839,-3,3,10,4,22,2,-10,-10
1512354215124839,-3,-14,-39,2,5,-18,3,6
1512354215125839,-2,5,7,-8,5,16,4,-7
1512354215125839,1,-5,-3,8,-14,-12,-3,-2
1512354215146839,3,9,15,6,17,0,-1,1
1512354215146839,-2,-2,6,-8,-12,4,0,6
1512354215148839,-4,-3,-9,-8,-24,-19,-7,-14
1512354215148839,4,7,9,7,20,-1,-2,-8
1512354215161839,3,4,10,4,15,0,9,29
1512354215161839,3,0,-15,-1,7,-1,-5,-3
1512354215167839,-8,-23,-21,-14,-36,16,2,0
1512354215167839,-2,2,12,6,11,-26,-8,-13
1512354215184839,0,-4,-13,-6,10,43,6,0
1512354215184839,0,-2,7,5,-9,-2,5,-1
1512354215185839,5,16,29,-6,-14,32,0,0
1512354215185839,-5,-9,-34,3,-32,-58,-21,1
1512354215206839,-3,-4,10,-14,25,8,7,-6
1512354215206839,-2,0,-8,12,51,21,9,0
1512354215208839,2,5,8,4,-8,-27,0,-1
1512354215208839,0,4,4,1,11,44,-2,-4
1512354215221839,-4,2,-4,-4,-54,-68,-27,-9
1512354215221839,-2,-2,25,20,32,39,4,-4
1512354215227839,0,-6,-21,-20,17,12,-2,-1
1512354215227839,-2,-3,-6,-19,-23,21,13,-1
1512354215244839,-1,-6,-16,7,-21,-5,4,2
1512354215244839,3,2,9,3,-1,-32,0,7
1512354215245839,-4,-2,3,-5,-9,-23,-19,-11
1512354215245839,1,-1,5,-2,1,-5,1,3
1512354215266839,1,0,-3,36,54,-15,4,-5
1512354215266839,-4,-5,-9,-17,-14,-9,-2,3
1512354215268839,-3,-5,0,-6,-8,37,10,-1
1512354215268839,-2,-2,-10,-11,12,0,-5,-21
1512354215281839,7,3,8,-1,36,0,6,44
1512354215281839,-6,-16,-11,-3,-48,0,9,-4
1512354215287839,6,8,8,5,29,-1,0,3
1512354215287839,-4,1,-2,12,2,19,-5,-3
1512354215304839,-6,-9,-12,1,6,14,2,-16
1512354215304839,3,10,-9,2,1,-35,-12,-15
1512354215305839,1,-1,6,-14,-6,-25,6,18
1512354215305839,-1,-1,8,9,10,-12,-6,-7
1512354215326839,-7,1,0,-16,-24,12,-2,-27
1512354215326839,1,-1,-3,-4,6,-17,-8,22
1512354215328839,-2,-2,-4,15,39,19,5,-23
1512354215328839,-2,-3,1,-24,-32,-1,-5,16
1512354215341839,-7,-5,-18,-29,-65,17,9,-14
1512354215341839,-1,-3,0,-13,4,-27,-13,-3
1512354215347839,3,8,20,19,-5,-21,-2,4
1512354215347839,-1,-7,-11,7,19,8,5,4
1512354215364839,1,-1,-20,-4,-16,-3,-6,-1
1512354215364839,-5,1,8,-9,-21,3,3,-3
1512354215365839,2,4,0,3,18,-10,-12,-18
1512354215365839,2,6,14,-3,-15,-4,6,21
1512354215386839,4,2,16,7,1,-12,11,12
1512354215386839,0,-6,-11,-2,14,20,-5,-6
1512354215388839,-6,-9,-18,-15,-3,-5,4,2
1512354215388839,-2,5,19,5,8,-4,2,-2
1512354215401839,0,-16,-48,-4,-10,-1,-2,13
1512354215401839,-1,9,17,-5,3,27,3,-6
1512354215407839,5,7,10,-2,-23,-18,0,14
1512354215407839,2,-7,-13,-11,0,-7,3,-5
1512354215424839,2,12,22,3,32,20,2,5
1512354215424839,-1,-8,-29,3,-25,-28,0,-5
1512354215425839,-3,1,6,-1,-3,0,-8,-9
1512354215425839,-4,-11,-20,-2,-12,4,7,1
1512354215446839,0,7,23,-1,9,-25,-10,-4
1512354215446839,-4,-2,9,-2,-18,24,1,-17
1512354215448839,4,2,-10,5,-10,-3,6,21
1512354215448839,0,-3,2,3,20,5,3,0
1512354215460839,0,2,8,6,21,10,-3,-6
1512354215460839,-3,-10,-15,12,24,0,-5,-6
1512354215469839,-5,0,0,13,-7,-10,-6,-4
1512354215469839,2,4,1,-21,3,16,8,1
1512354215484839,-5,-3,-3,4,3,3,-4,-7
1512354215484839,4,9,10,-3,-14,-9,-2,1
1512354215485839,2,4,10,3,6,14,4,15
1512354215485839,-1,1,-14,4,-18,-10,4,-4
1512354215506839,-1,-7,-6,-2,15,-3,-4,-4
1512354215506839,0,4,11,2,-2,-7,-6,-5
1512354215508839,-1,2,14,2,0,6,0,-5
1512354215508839,-6,-21,-35,-1,-6,-18,-5,-4
1512354215520839,2,9,23,-11,-31,8,1,-6
1512354215520839,1,3,-21,0,13,-11,-4,6
1512354215529839,-7,-19,-6,-1,12,16,3,-4
1512354215529839,2,8,12,10,6,-20,-5,-2
1512354215544839,3,2,-2,6,-4,3,4,5
1512354215544839,-5,-2,9,-8,28,9,0,2
1512354215545839,-2,3,-4,-6,-17,-25,-4,-8
1512354215545839,-1,0,6,5,17,6,-5,-6
1512354215566839,-3,-8,-13,4,32,6,-3,-7
1512354215566839,0,3,17,1,-11,-2,5,10
1512354215568839,-2,4,1,0,-7,6,-9,-25
1512354215568839,5,2,-3,9,5,16,10,34
1512354215580839,0,-3,-3,-7,-7,8,1,-12
1512354215580839,4,8,8,3,19,2,1,12
1512354215589839,-4,-2,-26,-14,-3,16,3,-3
1512354215589839,-9,-15,23,25,9,-16,-10,-15
1512354215604839,-1,8,25,8,-4,-11,-6,2
1512354215604839,1,-3,-19,-5,-29,-11,-7,-6
1512354215605839,-1,3,4,-4,1,18,2,0
1512354215605839,4,6,2,-1,-1,12,8,11
1512354215626839,0,-8,-15,-1,8,-7,-1,8
1512354215626839,1,3,22,-2,-7,-8,-3,-6
1512354215628839,-3,-6,-15,-4,-28,-12,-1,-1
1512354215628839,-1,0,-18,2,29,9,-1,-6
1512354215640839,-4,-3,-1,0,-7,-8,-5,0
1512354215640839,-1,-2,16,-4,-12,4,-1,-2
1512354215656839,1,-10,-25,1,-1,6,4,11
1512354215656839,-2,-5,8,-4,-35,-10,-5,-6
1512354215664839,-2,7,-2,-7,0,21,-1,-6
1512354215664839,0,0,8,5,13,-2,0,-1
1512354215665839,-4,-7,2,-3,-1,-9,-3,-12
1512354215665839,5,8,3,-3,-5,17,8,22
1512354215686839,0,-3,-5,-9,-19,3,6,2
1512354215686839,-6,-21,-37,-8,-4,2,1,-1
1512354215688839,-3,0,-6,-4,26,-14,-7,-4
1512354215688839,-1,3,-3,3,-10,-7,-6,-16
1512354215700839,1,4,17,-4,9,-10,-5,4
1512354215700839,3,6,12,5,-25,7,6,-1
1512354215709839,-2,-3,-7,-14,-30,-9,-2,-10
1512354215709839,-3,1,9,-13,-4,-9,2,5
1512354215724839,-3,-7,-15,-2,2,17,4,3
1512354215724839,-4,-5,-7,9,22,-3,-9,-14
1512354215725839,6,13,18,9,3,-20,2,5
1512354215725839,-5,-9,-16,-28,-78,18,4,-9
1512354215746839,-5,-7,7,0,13,-11,-1,-5
1512354215746839,5,5,-20,8,9,-1,-1,10
1512354215748839,-5,-10,1,4,-1,-7,-1,-4
1512354215748839,2,3,8,6,8,-6,-4,10
1512354215760839,0,3,-4,8,10,-7,-6,-8
1512354215760839,-5,-10,-2,-7,-6,-11,-7,-8
1512354215769839,1,4,16,5,23,1,6,17
1512354215769839,2,5,-14,6,0,13,-2,-10
1512354215784839,0,3,21,11,30,-9,1,0
1512354215784839,4,12,-7,8,17,10,-3,1
1512354215785839,3,3,12,9,-3,-5,-2,4
1512354215785839,-1,-9,-10,-6,5,-11,-2,4
1512354215806839,0,4,-3,-6,-42,0,0,-2
1512354215806839,-2,-4,5,5,15,-1,-1,-4
1512354215808839,0,2,3,0,-7,5,-2,-5
1512354215808839,-1,6,7,-8,1,-11,-2,-9
1512354215820839,-1,-4,-14,2,10,-13,-1,-3
1512354215820839,-5,-7,2,-1,-9,-4,-1,-3
1512354215829839,1,3,0,-5,-26,13,-1,2
1512354215829839,-1,6,27,2,-16,-10,-2,-10
1512354215844839,-3,-12,-45,-9,-4,3,-5,-5
1512354215844839,-3,-2,8,-3,-8,-5,4,6
1512354215845839,1,0,-1,3,9,-6,-3,6
1512354215845839,-2,2,4,0,4,24,0,-8
1512354215866839,3,5,8,0,-35,-22,5,17
1512354215866839,-3,-5,-7,-12,-6,24,3,-8
1512354215868839,5,5,0,7,-1,-3,-2,4
1512354215868839,-3,-15,-19,-8,19,18,5,2
1512354215889839,-2,1,-1,-4,-27,-3,-7,-14
1512354215889839,-2,5,-7,-2,3,-1,2,-1
1512354215890839,-4,-9,1,3,7,-1,-1,-1
1512354215890839,2,0,1,-16,-19,-20,-6,-3
1512354215904839,0,-2,-5,8,25,22,3,15
1512354215904839,4,8,15,-19,-39,-25,-3,-3
1512354215905839,-4,-4,-2,3,24,18,0,-13
1512354215905839,-1,-8,-5,6,18,-8,-1,-2
1512354215934839,-1,-4,-15,-1,12,-2,0,-3
1512354215934839,-1,2,10,8,3,-4,0,0
1512354215935839,4,6,6,13,23,4,2,12
1512354215935839,-2,1,-1,10,26,-18,-10,-9
1512354215949839,0,2,13,-4,-20,-3,-4,-15
1512354215949839,6,-3,1,21,57,16,8,27
1512354215950839,-3,-2,-5,-3,-8,-9,-3,-15
1512354215950839,1,0,-16,-4,-24,-5,2,14
1512354215963839,-3,2,10,-2,2,4,-4,-7
1512354215963839,0,0,-5,5,-21,6,7,1
1512354215970839,-3,-1,7,-2,3,-15,-8,-6
1512354215970839,3,8,11,15,19,3,0,4
1512354215986839,-1,-1,0,3,-2,-7,4,-10
1512354215986839,0,-2,0,-8,-3,2,-2,4
1512354215988839,7,8,22,10,16,-6,7,22
1512354215988839,-3,-1,-20,-2,-13,-13,-4,-15
1512354216009839,-3,-9,-3,9,27,-4,-1,3
1512354216009839,3,10,12,9,17,-10,-6,-6
1512354216010839,-6,-10,-20,-3,3,4,-4,-17
1512354216010839,0,1,4,3,12,13,-2,7
1512354216023839,3,2,11,0,-31,-28,-2,8
1512354216023839,0,1,-2,4,2,13,-3,-2
1512354216030839,-1,2,-2,-15,2,11,3,-5
1512354216030839,-6,-5,-2,0,-43,-10,-2,-4
1512354216046839,2,6,13,4,27,6,-2,3
1512354216046839,-8,-19,-42,-11,-17,-19,-3,-14
1512354216048839,-1,-1,1,1,26,24,-1,-1
1512354216048839,1,1,0,-3,1,-3,6,0
1512354216069839,-1,1,10,-1,1,18,4,5
1512354216069839,0,-1,-6,-17,-38,-10,0,2
1512354216070839,-2,0,-2,-4,-4,-16,-5,-2
1512354216070839,-7,-11,-7,-15,16,38,1,-22
1512354216083839,1,0,-4,-2,-15,9,10,25
1512354216083839,-2,5,8,-11,-21,-1,0,-3
1512354216090839,-5,-13,3,1,3,-3,-3,-1
1512354216090839,2,2,-11,-1,-31,4,4,2
1512354216106839,-2,-4,-17,-2,9,15,-4,-8
1512354216106839,-3,-1,1,-4,-16,-7,-5,-10
1512354216108839,4,7,1,0,-18,-1,11,20
1512354216108839,-1,1,11,2,-1,-20,-6,9
1512354216129839,-1,-2,-4,-2,3,-4,-1,-9
1512354216129839,-3,-1,2,1,14,13,5,0
1512354216130839,3,4,18,19,5,0,0,-1
1512354216130839,2,11,-11,-13,-22,-12,1,5
1512354216142839,-5,-15,-21,-3,-1,-1,-7,-11
1512354216142839,1,0,11,1,1,4,1,10
1512354216151839,-3,-2,-10,-14,-36,-10,-2,-7
1512354216151839,0,4,23,13,15,-3,2,3
1512354216166839,1,2,1,-6,-12,-1,-2,-2
1512354216166839,-3,-5,-8,4,9,2,-3,-6
1512354216168839,-1,-5,-8,-7,0,11,-1,2
1512354216168839,1,-2,-4,-2,14,-2,-2,2
1512354216189839,-6,-4,-7,-16,-54,15,-1,-16
1512354216189839,6,9,32,6,-22,-18,0,17
1512354216190839,-7,-17,-45,-13,14,7,1,1
1512354216190839,-3,-10,-16,-3,-5,4,-6,-7
1512354216211839,-2,0,5,9,52,-17,1,0
1512354216211839,1,7,5,-1,5,12,0,2
1512354216213839,-3,3,11,2,-14,-2,-7,-15
1512354216213839,3,-1,3,4,18,17,14,10
1512354216226839,4,8,22,-7,-15,-9,-2,15
1512354216226839,-1,0,-22,-12,-37,-11,-4,-14
1512354216228839,1,-6,-13,22,45,-3,4,8
1512354216228839,2,4,12,17,28,-19,-8,-4
1512354216249839,3,6,12,18,24,-11,-3,-6
1512354216249839,-3,3,21,6,15,-9,-1,4
1512354216250839,4,1,-6,-11,-21,26,4,-3
1512354216250839,0,1,-1,1,-14,-1,-3,-8
1512354216262839,-2,1,6,8,18,-2,2,1
1512354216262839,-3,-7,-5,12,66,-1,-5,-13
1512354216271839,3,3,-1,-6,-19,-1,4,9
1512354216271839,-4,2,10,5,7,-16,-4,-4
1512354216286839,-3,-5,-8,-3,15,33,1,-4
1512354216286839,1,-4,-8,-2,-1,0,0,5
1512354216288839,-5,0,4,-8,-15,0,-2,-10
1512354216288839,4,6,26,15,44,0,1,13
1512354216309839,3,-1,-28,-9,-18,-15,0,11
1512354216309839,-3,-6,2,-7,-18,-6,-2,-6
1512354216310839,0,0,-3,3,43,9,-4,-1
1512354216310839,-6,-6,-9,8,11,-7,1,-8
1512354216322839,0,4,5,4,-5,5,1,-5
1512354216322839,2,2,1,3,-1,-11,-1,6
1512354216331839,2,5,22,-4,-7,-12,5,3
1512354216331839,-7,-7,-22,-6,-5,10,-6,-13
1512354216346839,2,1,1,-1,-3,6,2,17
1512354216346839,0,1,0,4,-1,2,3,0
1512354216348839,-4,-6,-3,-12,-25,-2,-2,-5
1512354216348839,3,1,8,-6,-22,-2,1,0
1512354216369839,-5,-3,-3,-2,-24,-16,-6,-20
1512354216369839,2,-4,-5,-5,23,10,-2,3
1512354216370839,1,6,-1,3,8,-2,-4,9
1512354216370839,3,-4,-7,-9,-2,1,8,19
1512354216382839,-1,-7,1,1,-14,-21,-4,2
1512354216382839,-3,3,10,12,22,8,3,-12
1512354216391839,2,0,-11,-4,-4,-1,-3,-3
1512354216391839,-2,3,2,-13,-21,-24,-7,-7
1512354216406839,1,4,-1,6,10,28,2,3
1512354216406839,-4,3,31,4,-8,-9,-4,-3
1512354216408839,-1,-7,-44,-2,-13,13,-6,-11
1512354216408839,2,-3,-8,-3,20,-4,3,12
1512354216429839,-2,-2,6,-8,-8,3,-3,-7
1512354216429839,0,3,3,1,0,-6,-8,-7
1512354216430839,2,0,11,0,-5,77,34,16
1512354216430839,-2,-6,-19,-8,-15,-64,-34,-19
1512354216442839,0,-1,9,9,22,47,20,20
1512354216442839,-2,-4,-15,-15,-30,-12,-12,-13
1512354216451839,-2,8,33,9,-12,-28,-9,-6
1512354216451839,1,-15,-35,-2,14,33,15,2
1512354216466839,5,16,10,-6,-6,-38,-28,-1
1512354216466839,-6,-28,-46,-8,-7,44,32,10
1512354216468839,-6,-4,2,-7,-47,-92,-32,-6
1512354216468839,1,7,18,-5,-22,31,32,-2
1512354216489839,-3,-4,1,-6,5,-3,-15,-5
1512354216489839,1,3,0,-1,-7,16,-2,0
1512354216490839,5,7,5,-3,50,-5,-1,0
1512354216490839,-5,-10,-4,0,-2,4,-1,-5
1512354216502839,0,-5,-6,-8,-25,7,15,28
1512354216502839,-2,4,5,-6,-21,-29,-6,-5
1512354216511839,0,11,13,5,2,15,5,-4
1512354216511839,-6,-8,-20,7,3,4,-19,-12
1512354216526839,2,0,6,0,2,20,17,2
1512354216526839,0,3,6,-3,3,-1,-4,-8
1512354216528839,0,-4,-15,-10,-30,0,1,9
1512354216528839,-2,1,22,1,2,27,-5,-8
1512354216549839,-1,-4,-18,-2,-5,-12,-4,0
1512354216549839,4,7,24,6,3,12,4,2
1512354216550839,-5,-15,-34,3,9,-6,-8,-16
1512354216550839,3,7,17,0,-7,-2,13,7
1512354216562839,-5,-10,-13,-1,0,0,-3,-12
1512354216562839,-6,-1,-2,-15,-30,-16,-15,-14
1512354216571839,6,1,6,15,42,-2,14,44
1512354216571839,-3,-2,-2,-8,-12,17,-4,-15
1512354216586839,4,7,13,-1,-21,-30,-1,8
1512354216586839,0,-1,-16,5,-2,48,10,-2
1512354216588839,2,-5,10,-1,5,-47,-15,-12
1512354216588839,0,10,3,-2,-10,6,1,13
1512354216609839,-2,-13,-17,-8,-11,-2,-2,-15
1512354216609839,1,2,-5,24,55,-23,-5,4
1512354216610839,1,4,3,-4,-22,6,-1,3
1512354216610839,-1,0,17,4,21,-10,-1,11
1512354216622839,-3,4,4,-1,-3,-8,-8,-22
1512354216622839,3,-4,-9,0,16,7,9,10
1512354216631839,-3,-1,6,-3,-14,-16,-10,-15
1512354216631839,3,6,-1,-3,13,22,0,12
1512354216646839,-2,-3,-9,12,13,-18,-1,0
1512354216646839,-6,-8,-10,-3,-1,-7,-14,-7
1512354216648839,2,2,-2,-15,-31,38,24,4
1512354216648839,0,4,-1,6,17,-33,-7,-13
1512354216669839,-2,4,23,-10,-7,-6,1,2
1512354216669839,3,-5,-11,13,10,4,-3,1
1512354216670839,-1,-4,-16,-12,-16,25,-6,-16
1512354216670839,3,6,10,10,6,-15,3,29
1512354216682839,-2,0,-2,-7,2,9,2,-9
1512354216682839,0,6,16,1,5,-12,-1,0
1512354216691839,-4,0,8,4,8,4,3,2
1512354216691839,-3,-2,-16,-5,-15,-8,-10,-15
1512354216706839,-1,2,-1,3,1,-1,0,-3
1512354216706839,-4,-5,-5,-13,-25,26,7,9
1512354216708839,-4,-2,-4,7,-6,-43,-5,-5
1512354216708839,-2,-2,2,-14,-12,22,-7,-11
1512354216729839,2,-3,4,8,-16,-3,2,9
1512354216729839,-2,-3,-15,0,19,-5,2,-7
1512354216730839,1,1,3,-10,-4,-6,1,-1
1512354216730839,-2,-1,6,3,12,5,0,0
1512354216742839,2,5,22,5,7,10,6,11
1512354216742839,5,-2,-29,-9,-13,-11,2,20
1512354216751839,1,4,27,10,10,-13,0,-2
1512354216751839,0,-1,-14,-7,-20,-13,-9,-12
1512354216766839,-9,-14,-10,-4,9,-3,-3,-11
1512354216766839,3,5,2,1,0,24,5,3
1512354216772839,2,4,5,-2,-17,-19,-11,-4
1512354216772839,8,14,18,24,51,-9,2,13
1512354216789839,-4,0,4,-3,-13,-6,1,-7
1512354216789839,-5,-5,-8,-1,-4,-37,-14,-19
1512354216790839,-2,-1,-4,3,19,30,4,14
1512354216790839,3,-1,2,4,-8,-12,5,-1
1512354216811839,0,1,-6,14,31,1,-3,-1
1512354216811839,-2,3,3,-14,-26,-5,-4,-5
1512354216813839,-1,-4,-6,-2,-7,13,8,1
1512354216813839,-4,-7,-1,-5,-24,15,12,-2
1512354216826839,-3,-3,-14,-13,-11,-11,-9,-6
1512354216826839,2,1,8,-1,-22,-9,-3,2
1512354216832839,3,18,49,20,35,5,-1,-2
1512354216832839,-7,-30,-79,-10,-25,-16,-7,-8
1512354216849839,3,0,-5,3,9,14,8,7
1512354216849839,3,6,19,7,22,4,2,-5
1512354216850839,-4,-3,-11,-9,-7,-5,-12,-12
1512354216850839,-2,6,14,0,4,-10,8,4
1512354216871839,-5,-7,0,4,2,-5,-7,-9
1512354216871839,3,-3,1,-2,-31,-3,-1,16
1512354216873839,-2,-3,-19,-7,7,10,5,-7
1512354216873839,-6,-6,12,-7,-10,-6,-9,-8
1512354216886839,0,1,-8,-10,-21,-10,-6,-5
1512354216886839,3,5,16,-11,-18,8,7,2
1512354216892839,-3,-5,-16,5,-6,-9,-6,-16
1512354216892839,-1,-3,-13,-12,-13,2,-3,3
1512354216909839,2,4,4,-6,-5,11,7,14
1512354216909839,-7,-14,-10,-1,5,-17,-2,-6
1512354216910839,0,-4,-11,-6,4,8,0,8
1512354216910839,0,3,14,2,24,-10,-1,-14
1512354216931839,-3,-1,-7,-1,4,2,-4,0
1512354216931839,1,3,12,3,-16,-12,10,31
1512354216933839,2,2,8,-9,6,24,0,8
1512354216933839,-2,-6,-27,15,22,5,2,-1
1512354216946839,2,4,-1,1,-9,-14,-6,-14
1512354216946839,-5,-8,-7,-4,0,12,-6,-2
1512354216952839,-3,-4,1,7,9,-3,5,1
1512354216952839,3,9,25,18,45,21,5,5
1512354216969839,-2,1,-7,-7,-41,-30,-10,-9
1512354216969839,-2,-1,-6,4,47,-1,-1,-7
1512354216970839,0,-2,7,3,-1,-7,-4,1
1512354216970839,-2,0,-5,-16,-35,5,5,3
1512354216991839,-2,-5,-12,3,25,10,5,-9
1512354216991839,1,4,9,-1,-12,-4,-3,-1
1512354216993839,-5,-6,-9,3,10,5,-3,-16
1512354216993839,5,10,17,-7,27,-2,-8,11
1512354217006839,-5,-10,-6,7,4,-1,4,-6
1512354217006839,0,5,5,6,0,-3,1,-9
1512354217012839,1,-3,-13,-8,-6,-9,-7,0
1512354217012839,-1,3,28,-3,-27,-2,-6,-6
1512354217029839,2,-2,-28,-11,-27,11,1,4
1512354217029839,0,-2,-17,6,51,9,1,-7
1512354217030839,0,-2,1,-5,-35,-9,4,18
1512354217030839,-2,-6,3,-13,-53,-4,0,-4
1512354217051839,4,5,17,-2,-9,16,4,6
1512354217051839,-2,4,4,0,34,12,-5,-5
1512354217053839,-1,-7,-24,0,-6,-16,3,-2
1512354217053839,-2,-10,-26,-17,-17,30,1,-8
1512354217065839,4,4,24,7,-5,0,6,13
1512354217065839,-3,-3,-11,-4,-30,-4,0,-19
1512354217072839,0,5,11,-2,-2,-3,2,6
1512354217072839,-1,1,-1,10,5,-18,-7,-12
1512354217089839,-1,-5,-13,-18,-21,14,0,-9
1512354217089839,2,1,1,-5,-13,-10,-6,-3
1512354217090839,-3,-2,18,7,-8,-14,-8,-6
1512354217090839,-11,-16,-34,-24,-55,29,9,-8
1512354217111839,0,8,29,9,7,7,7,7
1512354217111839,-4,-3,-24,-6,-6,9,-5,-11
1512354217113839,1,-9,-9,1,6,-19,-5,4
1512354217113839,0,7,12,3,-2,9,-3,2
1512354217125839,5,0,-12,2,25,-14,5,11
1512354217125839,-2,1,27,6,-14,2,3,8
1512354217134839,5,14,8,6,21,-11,0,10
1512354217134839,-1,-1,-9,3,27,11,0,7
1512354217149839,-2,-13,-24,-1,34,3,2,-10
1512354217149839,-1,-3,-3,-2,-65,-37,-8,-8
1512354217150839,1,1,-6,-10,-6,26,-1,-9
1512354217150839,2,12,36,15,12,-37,-8,1
1512354217171839,0,-1,8,-15,-21,-15,-2,9
1512354217171839,4,-5,-30,-2,2,14,6,17
1512354217173839,-3,-2,24,-4,-7,0,-6,-10
1512354217173839,2,1,-7,2,5,0,1,0
1512354217185839,-5,-6,-4,0,-11,-10,-9,-14
1512354217185839,1,8,6,-3,14,-13,2,2
1512354217194839,-1,-3,-14,1,-7,9,4,2
1512354217194839,-2,-2,-4,5,-4,-3,-5,-11
1512354217209839,-3,1,-5,5,14,25,2,-4
1512354217209839,7,13,30,1,9,4,4,23
1512354217210839,-6,-3,-6,2,19,5,-5,-16
1512354217210839,1,-13,-35,-16,-13,-11,11,12
1512354217231839,1,6,15,12,-13,-25,-26,-9
1512354217231839,-7,-9,-19,1,21,10,-1,-6
1512354217233839,-1,1,2,-14,-31,47,25,7
1512354217233839,-5,-10,-10,-10,-19,-29,-17,-8
1512354217245839,-2,-6,-4,4,16,-11,-1,-2
1512354217245839,-1,4,12,3,24,5,-3,-3
1512354217254839,1,-2,-1,8,10,-13,-9,-7
1512354217254839,3,14,13,-12,-24,29,19,-5
1512354217269839,1,-8,-13,-12,-30,-13,-9,17
1512354217269839,-3,-5,-2,-10,-22,-10,-5,-14
1512354217270839,0,2,10,-2,-1,-23,0,3
1512354217270839,1,7,16,3,5,-1,-5,-4
1512354217291839,-3,-7,-12,-12,-9,-2,-1,-11
1512354217291839,-4,-13,-31,14,2,4,-2,-1
1512354217293839,-1,3,-1,-9,-14,-17,-10,-1
1512354217293839,-5,-9,-1,7,27,13,5,2
1512354217305839,4,5,13,7,8,1,10,17
1512354217305839,-2,-3,4,-13,-40,5,3,3
1512354217320839,-3,-3,0,-1,-22,-2,-3,-12
1512354217320839,-1,-2,0,-2,-3,-3,1,16
1512354217329839,1,11,13,0,16,5,-5,-17
1512354217329839,-2,-13,-13,-3,4,-11,-5,9
1512354217330839,3,1,-9,4,2,-23,4,18
1512354217330839,5,4,5,8,25,36,6,15
1512354217351839,-4,-2,-6,-9,-5,8,3,-8
1512354217351839,0,2,22,8,11,-9,-2,1
1512354217353839,-3,-3,-10,3,14,0,-4,-11
1512354217353839,-1,8,57,1,-9,-23,-8,-4
1512354217365839,-2,-11,-73,1,14,14,2,6
1512354217365839,6,12,21,15,54,-3,5,-3
1512354217374839,-6,-23,-20,1,8,28,0,4
1512354217374839,1,2,11,3,-5,-10,-2,-3
1512354217389839,-1,2,9,0,3,-2,-2,-8
1512354217389839,-1,7,16,10,43,7,-2,-5
1512354217390839,3,1,-12,3,13,0,0,2
1512354217390839,6,1,1,13,19,-12,-9,2
1512354217411839,-3,-1,14,6,3,-4,-5,-3
1512354217411839,-1,-3,-11,-4,2,-1,-3,-1
1512354217413839,-5,1,7,-3,-15,5,1,-2
1512354217413839,0,-9,-12,6,-5,1,2,-5
1512354217425839,2,7,8,-11,-16,7,6,12
1512354217425839,-2,-8,-13,-12,-27,3,5,-7
1512354217434839,5,12,22,3,-9,-2,-2,6
1512354217434839,-3,-6,-25,-20,-55,-22,-9,-14
1512354217449839,-1,-1,7,17,23,16,-1,3
1512354217449839,0,5,10,4,-29,-15,5,-9
1512354217450839,-1,-9,-30,-23,-10,13,6,2
1512354217450839,1,2,-12,-4,12,-8,-3,6
1512354217471839,1,6,26,2,2,7,7,-1
1512354217471839,-3,-6,-6,11,15,-33,-16,-10
1512354217473839,1,4,14,11,14,35,9,0
1512354217473839,-3,8,12,3,-4,5,-3,-8
1512354217485839,-1,3,-1,2,15,-19,-2,-7
1512354217485839,3,-2,-3,-5,-19,0,-2,8
1512354217494839,-2,-6,-24,3,26,-7,-1,2
1512354217494839,-1,6,32,2,-8,-5,2,6
1512354217509839,-4,-6,-30,-4,-6,2,-1,-5
1512354217509839,-5,7,18,2,-4,10,-8,-22
1512354217510839,0,-6,-1,2,-1,-10,6,29
1512354217510839,-1,-7,1,-2,17,10,3,-12
1512354217531839,-4,1,-8,-2,5,-1,-7,-12
1512354217531839,4,0,-8,-19,-37,-10,7,19
1512354217533839,0,9,12,9,9,12,-3,-12
1512354217533839,0,-2,-4,17,51,-8,-2,5
1512354217545839,2,1,12,6,-7,-27,3,6
1512354217545839,-1,-1,-9,-7,-13,-3,-2,-3
1512354217554839,-4,-4,6,2,0,-18,-7,-9
1512354217554839,2,8,-23,-14,0,22,5,2
1512354217569839,-3,-6,3,-3,-38,-9,-3,5
1512354217569839,-3,-12,-19,-4,29,10,-9,-25
1512354217570839,3,2,0,-3,-1,-14,7,30
1512354217570839,-1,-4,-5,10,0,-18,-6,-7
1512354217591839,3,5,-12,5,15,6,1,6
1512354217591839,-2,-1,7,-21,-55,23,5,-2
1512354217593839,-4,-5,-13,-12,-12,-5,-1,-12
1512354217593839,-2,-1,12,19,44,-16,-7,-13
1512354217605839,5,-3,-3,-7,-14,21,8,16
1512354217605839,-4,-1,6,5,21,-1,-7,-2
1512354217614839,1,9,2,-10,-31,-10,-8,-17
1512354217614839,-3,-6,-3,-10,-31,-7,10,25
1512354217629839,-1,2,18,5,5,28,-3,-18
1512354217629839,1,0,-9,-1,-18,2,3,2
1512354217630839,4,8,8,-10,-25,1,1,12
1512354217630839,-4,-7,-15,-1,9,-4,-3,-11
1512354217651839,-3,-1,-11,-4,17,-11,-2,-9
1512354217651839,6,2,14,24,31,3,0,11
1512354217653839,-7,-3,0,-11,-27,-18,-4,-10
1512354217653839,-1,-8,-13,-3,-18,9,4,6
1512354217665839,0,5,28,-6,-13,-4,-3,-12
1512354217665839,-1,1,-30,2,14,2,0,12
1512354217674839,2,1,6,3,1,-16,-4,-15
1512354217674839,-6,-10,-17,1,3,20,5,4
1512354217689839,-1,-2,-11,-9,-24,4,5,11
1512354217689839,1,-1,18,-2,3,-20,0,2
1512354217690839,2,13,31,18,50,4,-3,-3
1512354217690839,-3,-23,-57,-19,-27,-8,-5,-3
1512354217711839,-3,0,23,15,21,-12,-3,-6
1512354217711839,0,2,-8,-23,-35,12,5,5
1512354217713839,-2,-11,-4,10,9,4,5,5
1512354217713839,2,16,43,9,6,8,0,-12
1512354217725839,-1,1,2,-9,-6,-11,-9,1
1512354217725839,-1,-11,-40,-1,14,-2,4,3
1512354217734839,-4,-6,0,-8,-18,26,1,-9
1512354217734839,2,6,13,-5,-46,0,-3,1
1512354217748839,0,0,1,0,27,5,7,4
1512354217748839,-3,4,9,6,8,-5,-4,1
1512354217755839,-3,-6,-7,-5,-6,14,-6,-15
1512354217755839,2,-4,-26,-6,16,-4,3,12
1512354217771839,2,0,16,8,-5,-10,-5,1
1512354217771839,0,2,5,11,65,17,1,-7
1512354217773839,-1,-1,-3,2,-7,-12,-6,-14
1512354217773839,0,3,8,-5,6,12,0,1
1512354217794839,-5,-4,-14,-10,-27,-8,-2,-11
1512354217794839,3,2,11,2,1,-4,7,22
1512354217795839,-1,-4,-18,4,0,-13,-2,-1
1512354217795839,-1,-5,4,-6,-13,20,3,-3
1512354217807839,2,5,0,0,34,16,-2,0
1512354217807839,-7,-16,-7,3,-21,-9,-3,-6
1512354217816839,1,7,8,4,18,1,-3,-3
1512354217816839,10,14,30,11,5,-5,5,16
1512354217831839,0,-7,-30,-5,-16,-4,7,4
1512354217831839,-1,4,11,-6,1,-9,-4,-3
1512354217833839,-2,-3,22,-1,-8,-5,-5,-12
1512354217833839,-1,-1,-29,1,3,-7,2,13
1512354217854839,2,-3,2,-6,-8,-8,-7,-2
1512354217854839,2,10,22,8,-2,-15,2,9
1512354217855839,-2,-5,-27,1,8,27,9,6
1512354217855839,-1,1,17,7,14,-35,-6,-11
1512354217868839,-1,5,11,3,5,-10,-9,-17
1512354217868839,2,-7,-20,-8,4,6,8,22
1512354217875839,1,5,7,-8,-34,-12,-2,-6
1512354217875839,0,2,8,35,42,7,1,13
1512354217891839,-3,-12,-21,-5,13,19,9,-3
1512354217891839,-1,8,20,3,6,5,-9,-14
1512354217893839,2,-4,-29,-16,-21,0,3,10
1512354217893839,-6,-8,-11,-13,-5,-2,-4,-11
1512354217914839,-1,4,12,16,7,-4,0,2
1512354217914839,-3,5,11,-4,-14,-4,-3,-9
1512354217915839,6,2,1,3,14,6,2,14
1512354217915839,-4,-7,-25,-20,-56,-8,-8,-15
1512354217928839,-1,1,14,3,-7,10,3,1
1512354217928839,-1,0,-4,-4,1,-4,-4,-7
1512354217935839,-1,-1,7,-2,12,1,0,10
1512354217935839,0,-9,-22,-9,13,4,-5,-1
1512354217951839,-2,3,11,-1,-17,8,3,-7
1512354217951839,-3,-7,-17,-3,-21,-17,-2,-14
1512354217953839,2,4,5,1,19,11,2,12
1512354217953839,3,-3,4,-16,-26,4,2,7
1512354217974839,-2,-8,-6,-12,-18,0,3,-1
1512354217974839,-1,-5,-7,-4,-21,6,2,-7
1512354217975839,-2,1,16,11,21,-11,-2,7
1512354217975839,-1,1,-13,-16,-28,-21,-6,-7
1512354217988839,2,2,-6,-5,23,20,8,10
1512354217988839,-3,-8,-4,-3,-23,-11,-3,-2
1512354217995839,-1,0,-1,0,-7,-19,-4,-8
1512354217995839,1,7,13,5,20,18,0,-3
1512354218011839,-1,0,7,16,13,2,-1,1
1512354218011839,3,2,1,3,6,-2,6,16
1512354218013839,-5,1,15,-2,-4,24,-4,-20
1512354218013839,-2,-12,-36,4,11,-3,5,21
1512354218034839,1,0,1,-13,-18,-19,-5,-5
1512354218034839,-1,0,16,4,-17,13,0,-5
1512354218035839,-2,-4,-26,7,34,-14,-6,-10
1512354218035839,-2,5,17,-3,-38,-9,-3,-11
1512354218047839,-4,-2,1,-9,-53,-30,-4,-2
1512354218047839,1,0,2,-5,20,13,2,3
1512354218056839,-5,-5,2,0,-18,-20,-7,-8
1512354218056839,4,6,7,8,14,9,4,10
1512354218071839,0,-2,-19,-5,7,0,1,5
1512354218071839,0,3,4,5,8,-1,-4,-7
1512354218073839,-2,-7,-4,5,24,14,4,-3
1512354218073839,-2,2,9,-5,-8,6,1,-8
1512354218094839,0,1,3,11,19,12,3,12
1512354218094839,0,2,0,1,2,-1,-2,-5
1512354218095839,-1,-8,-13,-8,2,5,8,7
1512354218095839,-2,2,12,5,1,-12,-7,-10
1512354218107839,1,1,4,-2,-1,-18,-2,-1
1512354218107839,-1,4,-4,9,31,9,-4,-14
1512354218116839,3,-8,-8,3,-45,-14,2,19
1512354218116839,-1,2,11,2,57,18,6,-5
1512354218131839,-1,2,26,1,-8,-14,-11,-4
1512354218131839,1,11,-14,6,18,15,5,-5
1512354218133839,-2,-16,-42,-13,-11,-9,1,2
1512354218133839,3,-5,-9,-6,-29,-8,-3,9
1512354218154839,-4,-4,0,6,40,10,0,-3
1512354218154839,4,7,24,10,14,6,0,5
1512354218155839,-1,8,16,3,2,4,8,-5
1512354218155839,-1,2,3,-6,-24,0,-3,-3
1512354218167839,-4,2,-11,-3,15,-1,-6,-17
1512354218167839,-4,-8,-7,-10,-29,-18,-2,8
1512354218176839,0,6,5,5,31,18,-5,-13
1512354218176839,-5,-3,6,9,30,10,0,-8
1512354218191839,-1,-3,0,-3,19,27,6,2
1512354218191839,-3,-3,17,-8,-15,3,1,1
1512354218193839,-4,0,-4,-3,-17,4,-6,-7
1512354218193839,0,-8,-27,-4,6,-10,-3,-9
1512354218214839,2,-2,-16,-19,-77,-15,-5,15
1512354218214839,-5,-14,-12,4,21,23,7,-5
1512354218215839,4,7,18,8,23,-13,-1,7
1512354218215839,-5,3,10,-1,-8,4,-4,-9
1512354218227839,-1,-3,-5,5,4,-11,-3,-1
1512354218227839,2,1,-7,0,8,-4,1,4
1512354218236839,1,4,18,0,-12,5,2,-1
1512354218236839,0,5,10,1,-11,-2,-3,-6
1512354218251839,-7,-12,-24,-7,13,-6,-3,-12
1512354218251839,3,2,6,-8,-12,-13,0,9
1512354218253839,-1,0,0,2,13,0,-4,-6
1512354218253839,-3,0,2,-7,-28,4,4,-4
1512354218274839,6,5,14,17,50,14,-1,3
1512354218274839,-3,-2,-1,-23,-41,-17,-5,-2
1512354218275839,-2,-4,-14,6,11,9,4,1
1512354218275839,1,2,9,1,8,-14,-5,-1
1512354218287839,0,3,4,11,-17,-7,-3,-6
1512354218287839,-2,-1,-3,3,-2,-14,1,-1
1512354218296839,1,2,18,-9,-10,-12,-1,15
1512354218296839,-3,-10,-28,-3,13,7,3,-1
1512354218311839,-1,-14,-24,-2,-17,1,2,-2
1512354218311839,-1,1,-3,2,8,-3,-6,-8
1512354218313839,1,5,12,-7,-17,2,4,7
1512354218313839,1,7,27,10,0,-2,-6,-5
1512354218334839,2,6,14,2,-19,-9,-2,2
1512354218334839,-1,-12,-24,-10,-5,2,6,20
1512354218335839,-2,-1,-5,-9,-7,-2,5,-4
1512354218335839,-1,4,-1,5,10,8,-2,-5
1512354218347839,-3,3,2,8,27,2,-4,-4
1512354218347839,0,1,7,-5,8,13,5,-10
1512354218356839,-1,-2,4,-9,-16,2,-4,-6
1512354218356839,-2,-19,-46,-1,12,-7,-5,-4
1512354218371839,1,12,29,-3,-22,-35,1,4
1512354218371839,-4,-9,-24,11,34,-1,-7,-4
1512354218373839,0,1,3,2,9,-4,0,8
1512354218373839,1,10,39,-5,-6,-3,4,10
1512354218394839,-4,-8,-31,-5,6,11,-1,0
1512354218394839,6,9,14,-4,-3,-4,-1,3
1512354218395839,-1,-2,-8,3,-14,-10,-2,-9
1512354218395839,-1,2,1,-2,-3,-3,1,-9
1512354218407839,0,3,11,0,1,3,0,8
1512354218407839,-1,2,-5,-11,-10,8,-2,-6
1512354218416839,-5,-9,-4,9,0,-9,-12,-20
1512354218416839,5,3,-2,0,-1,0,12,45
1512354218431839,1,4,3,-9,-3,7,3,-11
1512354218431839,-2,-8,-7,14,16,13,4,-2
1512354218433839,2,-1,-5,-9,-32,-14,-2,-4
1512354218433839,-3,0,5,8,-6,3,0,-10
1512354218454839,-2,-1,-6,-10,11,-1,0,7
1512354218454839,-3,1,11,-2,-19,-16,-4,-3
1512354218455839,0,-8,-26,6,2,-10,0,4
1512354218455839,-1,3,17,-2,1,20,0,-4
1512354218467839,2,5,-10,1,-19,-3,4,10
1512354218467839,-3,-4,23,4,11,3,-2,-11
1512354218476839,-5,-2,-30,-3,17,10,1,2
1512354218476839,5,2,1,8,-47,-13,2,-2
1512354218491839,0,-2,6,6,16,8,-3,-2
1512354218491839,1,6,7,5,1,1,-3,-2
1512354218493839,-1,4,6,-3,7,2,2,3
1512354218493839,3,7,10,7,20,-6,3,2
1512354218514839,-1,-5,-5,-14,-27,11,-2,-9
1512354218514839,-2,-2,-2,-1,-14,-3,3,6
1512354218515839,2,2,3,-7,-29,-1,3,6
1512354218515839,-9,-9,-14,-10,6,-11,-4,-10
1512354218527839,2,0,3,-2,3,11,3,-3
1512354218527839,3,6,15,9,2,1,1,2
1512354218536839,-2,2,-6,-3,8,-11,-5,2
1512354218536839,1,-5,-16,5,-3,1,-1,-5
1512354218551839,-5,-8,-11,-19,-38,-3,0,1
1512354218551839,0,0,-3,-8,-12,-3,-4,3
1512354218553839,2,8,22,8,9,-5,1,-1
1512354218553839,-1,2,22,0,28,32,1,-3
1512354218574839,0,-9,-33,0,-11,-22,1,-4
1512354218574839,-1,1,6,11,9,-11,-4,-6
1512354218575839,2,-5,-2,-11,-1,-5,1,15
1512354218575839,0,-5,-17,-8,-3,27,5,13
1512354218587839,2,4,21,9,14,-9,-2,-5
1512354218587839,-7,-5,-16,-10,-22,-2,-3,-12
1512354218596839,2,7,9,0,33,1,3,6
1512354218596839,-2,-4,-1,-5,-2,2,5,1
1512354218610839,-1,-1,-1,-3,-20,-1,-4,-5
1512354218610839,2,-3,-9,-7,-33,-5,3,5
1512354218617839,-2,0,4,7,11,9,-5,-8
1512354218617839,-3,1,11,-7,-2,-3,-1,0
1512354218634839,-2,-5,-24,-4,3,-8,-1,-8
1512354218634839,5,4,-14,-3,7,-5,-2,14
1512354218635839,-4,-8,5,0,-6,14,1,-8
1512354218635839,2,0,-10,-2,5,-9,1,-3
1512354218647839,0,3,18,8,11,-6,1,8
1512354218647839,-7,-2,-3,-6,2,17,-3,-19
1512354218656839,7,5,-1,-3,-16,5,7,25
1512354218656839,-5,-2,-6,1,-1,-33,-11,-8
1512354218670839,-2,0,1,8,7,-4,-6,-4
1512354218670839,-2,3,4,9,-10,-18,-5,-7
1512354218677839,1,3,1,-7,-1,-9,-5,-13
1512354218677839,-3,-5,-3,5,12,-7,-1,4
1512354218694839,-4,-4,-3,-25,-53,11,-2,-7
1512354218694839,1,-2,-5,-6,-16,5,-1,2
1512354218695839,-3,-6,0,3,-2,6,-1,-4
1512354218695839,0,2,-2,-8,-12,-17,-4,-6
1512354218716839,-1,4,6,21,54,-2,-1,9
1512354218716839,2,-4,-9,-6,8,16,9,12
1512354218718839,-2,-4,1,-10,-32,-11,-3,-8
1512354218718839,1,-3,-18,2,9,8,0,0
1512354218730839,2,7,23,13,26,8,3,2
1512354218730839,-4,-6,-3,4,11,22,-2,-15
1512354218737839,1,7,7,-1,11,3,1,3
1512354218737839,0,-1,0,12,23,-7,-11,-12
1512354218754839,3,-1,-5,-8,-20,-1,5,14
1512354218754839,0,-2,-7,-4,20,3,0,-3
1512354218755839,-9,-15,-2,5,-8,-3,-8,-14
1512354218755839,6,9,9,-8,-17,0,4,6
1512354218776839,1,3,2,3,-8,14,1,-1
1512354218776839,-4,-8,-11,-24,-39,-17,8,6
1512354218778839,4,10,8,2,3,13,-1,-4
1512354218778839,-8,-6,14,7,27,-12,-8,-13
1512354218790839,1,-3,-16,-6,3,-1,1,9
1512354218790839,2,1,3,14,12,-15,3,15
1512354218797839,-1,-1,-15,-8,-11,3,0,-2
1512354218797839,-7,-9,-1,-14,-39,18,7,-6
1512354218814839,-4,-4,-4,-22,-34,8,-4,-9
1512354218814839,-4,2,15,16,19,-10,-12,-16
1512354218815839,1,-14,-27,4,4,6,9,19
1512354218815839,2,11,9,3,3,-4,-7,1
1512354218836839,-5,-6,-2,4,1,9,-2,-7
1512354218836839,-1,-1,-1,-3,-3,-8,-6,-6
1512354218838839,-2,-3,1,3,-28,-5,1,-4
1512354218838839,-1,-3,-9,-25,-29,25,9,9
1512354218850839,-1,1,1,4,-6,-31,-8,-9
1512354218850839,2,4,-3,-3,6,22,3,16
1512354218857839,-7,-2,8,-3,-3,-8,-11,-18
1512354218857839,4,4,-7,-2,-8,-13,9,10
1512354218874839,0,-2,-1,5,14,-12,0,0
1512354218874839,5,5,2,-7,2,-6,0,5
1512354218875839,-1,0,4,4,13,-8,0,3
1512354218875839,-1,3,12,26,58,10,-8,-11
1512354218896839,0,-1,6,0,6,7,7,12
1512354218896839,-1,-5,-14,0,16,-4,-3,-8
1512354218898839,1,0,-17,-16,-13,17,8,4
1512354218898839,-5,-8,-10,-3,-8,-25,-7,-4
1512354218910839,0,2,7,6,18,10,0,0
1512354218910839,2,4,8,1,-6,10,4,2
1512354218917839,1,3,18,16,33,-4,-1,-3
1512354218917839,1,2,-3,-8,-26,-12,1,0
1512354218934839,-1,-3,1,7,2,14,-6,-18
1512354218934839,-1,5,5,-5,-29,-7,9,8
1512354218935839,4,-2,-17,-1,77,29,8,-3
1512354218935839,-2,-8,-13,-15,-41,-3,-3,-3
1512354218956839,-1,0,3,3,-9,4,-2,-3
1512354218956839,-3,2,15,-1,-8,-19,-9,-17
1512354218958839,0,-3,0,4,-13,-12,1,10
1512354218958839,5,4,0,2,5,14,5,17
1512354218970839,-2,-9,-31,-12,14,-3,1,-11
1512354218970839,-5,-9,5,8,15,-2,-1,-4
1512354218977839,-5,-7,-23,-24,-38,-3,-2,-2
1512354218977839,1,2,-5,-10,-17,3,-2,1
1512354218994839,-1,5,34,11,-4,-6,2,1
1512354218994839,0,-11,-43,1,28,0,0,4
1512354218995839,-4,0,24,8,19,10,-4,-3
1512354218995839,-2,1,12,2,-1,-15,-4,-9
1512354219016839,3,2,-15,11,-3,-1,2,8
1512354219016839,4,4,-1,-14,-17,-13,-7,2
1512354219018839,-2,2,8,24,20,-22,-8,-12
1512354219018839,3,0,-2,11,19,-7,-7,-7
1512354219030839,0,9,18,4,18,-8,-4,3
1512354219030839,-3,-6,-3,-15,-35,28,9,-9
1512354219039839,1,4,8,-5,-22,-18,-2,7
1512354219039839,3,2,-9,16,22,8,-6,-11
1512354219053839,-2,-9,-11,-20,-23,-1,4,-4
1512354219053839,-2,-2,-4,-9,-25,-22,-7,2
1512354219055839,2,1,5,14,34,54,13,2
1512354219055839,-6,0,9,-8,-7,-9,3,2
1512354219076839,-2,-3,-20,-8,6,6,-3,-10
1512354219076839,0,-3,9,-7,-16,3,6,0
1512354219078839,-4,-9,-12,-14,-52,-17,-4,-3
1512354219078839,-1,-3,-5,9,54,19,0,2
1512354219090839,-4,-2,-9,-1,16,-22,1,6
1512354219090839,0,4,13,16,18,0,4,8
1512354219099839,-2,-1,6,0,22,-7,-14,-18
1512354219099839,8,7,9,6,-14,-2,7,25
1512354219113839,0,-7,-3,4,22,-15,-10,5
1512354219113839,-4,-3,-5,-2,-1,20,0,-2
1512354219115839,-1,3,-2,8,9,-8,-6,-12
1512354219115839,-2,1,2,-10,-21,-8,0,1
1512354219136839,5,8,12,14,22,32,8,20
1512354219136839,-3,-7,-24,-19,-19,-2,-5,-4
1512354219138839,1,-2,2,-4,-13,-8,-1,1
1512354219138839,2,5,0,-1,3,-15,6,15
1512354219150839,-4,-10,3,-1,-23,-2,-4,-20
1512354219150839,3,8,20,8,17,10,4,9
1512354219159839,-1,-3,-23,-18,-21,-4,3,5
1512354219159839,-2,-8,-4,-3,-24,10,0,-11
1512354219174839,-1,-4,-20,-12,29,5,1,3
1512354219174839,-5,-4,-1,20,15,-11,-12,-17
1512354219175839,2,5,7,-12,-46,-17,8,5
1512354219175839,-10,-8,-7,-41,-63,31,4,-9
1512354219196839,-2,2,7,5,-9,0,-2,9
1512354219196839,2,7,6,-4,-2,-3,-5,-5
1512354219198839,-1,-8,-13,-2,23,-11,-4,6
1512354219198839,0,2,3,26,11,12,-1,-13
1512354219210839,0,1,6,-10,1,16,-3,-11
1512354219210839,-1,-2,-5,0,-9,-18,2,8
1512354219219839,-3,-3,-12,2,-6,1,-1,-7
1512354219219839,3,4,4,12,32,-6,-11,-4
1512354219234839,-3,-5,-17,-24,-51,15,16,6
1512354219234839,0,-6,22,19,32,-5,-3,-2
1512354219235839,-1,-5,-14,1,12,-3,3,-1
1512354219235839,-3,-5,-2,2,12,-6,-4,6
1512354219255839,3,11,14,-13,-57,-3,-1,-2
1512354219255839,-1,-7,-22,0,9,16,3,7
1512354219264839,-2,6,21,5,-11,-7,-4,0
1512354219264839,-3,-3,-11,-10,-8,-2,-2,-7
1512354219270839,-1,9,13,5,-15,1,-6,-12
1512354219270839,2,-6,-17,9,56,21,6,15
1512354219279839,2,4,0,-1,16,5,-2,5
1512354219279839,0,-4,0,-11,4,-22,-5,-13
1512354219293839,3,-2,3,-7,-31,-7,6,25
1512354219293839,-2,2,5,-10,-14,-1,-4,-10
1512354219295839,1,15,23,3,-7,-4,-1,-11
1512354219295839,-2,-11,-28,-10,-12,10,7,11
1512354219316839,-2,-3,-8,-24,-18,-1,1,-13
1512354219316839,4,17,29,18,14,-9,-8,-8
1512354219318839,-6,-25,-33,-8,-22,7,-2,0
1512354219318839,3,5,8,2,-5,-2,4,26
1512354219330839,1,2,2,24,53,-1,-2,-4
1512354219330839,3,1,1,1,24,12,2,3
1512354219339839,-1,4,9,0,-25,0,-8,-7
1512354219339839,0,1,3,0,-11,-19,-5,-7
1512354219353839,-1,1,15,9,16,2,-6,-5
1512354219353839,-3,-3,-23,-12,-13,4,4,-9
1512354219355839,2,2,2,3,8,-17,-2,3
1512354219355839,-1,4,10,-1,5,6,0,-7
1512354219376839,0,-3,-6,-1,-29,-13,-9,-1
1512354219376839,-5,-13,-8,14,5,-20,-3,-11
1512354219378839,7,7,7,8,27,-4,10,24
1512354219378839,1,2,9,-2,-3,-7,1,2
1512354219390839,5,16,18,39,66,-10,-1,-7
1512354219390839,-5,-1,-1,-23,-44,-15,-9,-6
1512354219399839,1,-9,-17,18,-30,14,1,11
1512354219399839,-1,-1,-7,-10,31,-3,-2,-7
1512354219414839,5,6,12,7,23,12,7,21
1512354219414839,-4,-6,-16,-14,-26,2,-8,-2
1512354219415839,4,10,20,-1,5,1,0,2
1512354219415839,-2,3,4,4,-14,-10,-2,-9
1512354219436839,-7,-10,-3,-11,-13,-4,-5,-6
1512354219436839,1,-2,-16,-7,0,-12,1,6
1512354219438839,-4,0,10,4,15,-1,-4,-10
1512354219438839,0,-9,-27,5,7,4,1,6
1512354219450839,0,1,3,5,-3,-10,1,0
1512354219450839,2,6,13,-10,-20,1,3,4
1512354219459839,-2,-8,-23,-10,27,17,-2,-7
1512354219459839,-3,-3,17,7,-5,-1,-1,-4
1512354219473839,0,-4,-20,0,5,-12,-2,2
1512354219473839,1,7,16,6,-20,16,1,-3
1512354219475839,-1,2,5,-5,-3,-17,-3,-4
1512354219475839,-1,3,16,15,17,21,0,-6
1512354219496839,-2,-5,-12,-11,-20,-7,3,2
1512354219496839,0,-3,4,10,8,-16,1,-1
1512354219498839,-8,-3,-7,-17,-12,22,-9,-27
1512354219498839,6,0,-4,-2,-2,4,11,30
1512354219510839,-2,-5,-6,-2,-7,0,-4,-4
1512354219510839,-4,-3,4,11,14,-1,0,-4
1512354219519839,-1,4,20,8,18,-16,-6,-5
1512354219519839,4,1,-22,1,-15,6,2,0
1512354219533839,-4,-2,20,4,-3,17,-3,-7
1512354219533839,5,10,-9,7,19,-13,1,6
1512354219541839,-2,-5,0,-4,-15,-8,-1,-1
1512354219541839,-7,-29,-30,-7,-11,-16,-8,-8
1512354219556839,-1,0,0,-12,8,3,1,-2
1512354219556839,-1,2,9,3,14,11,0,-14
1512354219558839,3,8,8,-7,-19,2,4,26
1512354219558839,-3,4,9,-10,-20,-12,-1,-10
1512354219570839,-1,-1,-11,5,8,6,2,-7
1512354219570839,-4,-8,-10,-17,-39,-3,-5,4
1512354219579839,2,1,-4,11,54,13,7,14
1512354219579839,0,3,7,7,-9,-7,-7,-8
1512354219593839,-1,1,5,0,-22,-7,-3,-4
1512354219593839,-1,1,8,8,29,26,5,-2
1512354219600839,0,-4,-4,-6,-54,-5,-2,-9
1512354219600839,5,11,6,-1,8,-4,2,12
1512354219616839,-3,-3,-5,-8,-9,-9,-1,-2
1512354219616839,2,-6,-4,12,12,-4,3,6
1512354219618839,-4,-10,-24,-2,17,2,-2,-2
1512354219618839,-4,5,22,2,-4,-3,1,-6
1512354219630839,2,3,-5,-8,-6,11,-2,-1
1512354219630839,-3,-7,-3,1,7,13,2,4
1512354219639839,5,5,-1,5,13,-25,-5,1
1512354219639839,-2,-1,-2,-3,-14,-12,-2,3
1512354219653839,-3,-3,-3,2,5,-7,0,4
1512354219653839,-3,-2,2,-5,-4,-1,2,-9
1512354219660839,0,4,16,-3,19,-2,0,-7
1512354219660839,-1,-7,-20,14,72,14,1,-8
1512354219676839,4,2,14,5,0,4,5,2
1512354219676839,-1,8,-8,1,-22,-21,-8,-6
1512354219678839,-2,-6,5,-25,-17,-14,-1,8
1512354219678839,2,1,-10,12,5,16,-2,-12
1512354219698839,-2,-3,5,-12,-28,-7,4,5
1512354219698839,4,7,4,-3,-5,-14,-3,4
1512354219700839,-6,-5,-7,3,7,29,5,-4
1512354219700839,0,-2,4,-11,-14,-14,-6,5
1512354219713839,1,2,3,0,-3,5,2,9
1512354219713839,-2,-6,-15,-5,5,4,-7,-19
1512354219720839,1,-1,-3,2,-8,-10,9,19
1512354219720839,-4,1,3,-16,-15,14,-4,-13
1512354219736839,-3,-6,-8,11,-2,16,4,-11
1512354219736839,6,6,12,-6,7,0,3,11
1512354219738839,-1,-1,-3,4,-5,-1,2,12
1512354219738839,0,5,5,-26,-48,1,-2,-9
1512354219759839,-4,-15,-20,-12,-1,5,1,4
1512354219759839,-5,-9,-11,-9,-6,13,1,-5
1512354219760839,0,2,2,15,15,-17,-5,-9
1512354219760839,-1,1,-3,-11,-31,-3,5,11
1512354219774839,0,9,17,4,20,-1,-8,-11
1512354219774839,-4,-6,-10,1,3,-11,0,2
1512354219775839,-4,-10,-20,-16,-41,-2,1,-7
1512354219775839,-3,6,10,2,2,9,-6,-12
1512354219796839,-2,-7,-13,-16,-40,-4,4,9
1512354219796839,-3,-5,7,-15,-91,0,-2,-4
1512354219798839,3,8,27,-1,15,9,-2,-6
1512354219798839,-1,-4,-30,9,7,-12,-5,-10
1512354219819839,-2,2,2,1,17,16,-3,2
1512354219819839,2,7,11,20,2,-38,1,2
1512354219820839,0,-3,-6,-9,-12,44,7,5
1512354219820839,1,-2,15,-9,-20,-17,-4,-6
1512354219833839,-3,-4,-18,-5,20,9,-1,-10
1512354219833839,0,4,3,-10,-2,3,-1,9
1512354219840839,1,1,1,-4,-20,1,-5,-7
1512354219840839,-4,-5,2,29,61,10,-1,-1
1512354219856839,3,3,-3,-4,-9,-11,-3,11
1512354219856839,2,3,4,12,44,-6,1,-5
1512354219858839,3,2,11,9,-16,-25,-6,6
1512354219858839,1,1,-1,-9,27,3,4,9
1512354219879839,-3,-9,-17,5,-2,-11,-5,-8
1512354219879839,-2,4,3,-12,12,17,-5,-13
1512354219880839,-5,-13,-19,7,10,-7,1,-3
1512354219880839,3,1,10,1,5,17,8,14
1512354219893839,-1,2,2,-1,34,-8,3,2
1512354219893839,2,11,24,23,13,3,-1,0
1512354219900839,-5,-14,-36,-7,-4,-20,-11,-15
1512354219900839,8,3,4,-2,-16,-1,8,32
1512354219916839,-3,-2,-2,-4,-6,-6,-2,-10
1512354219916839,3,1,3,-3,8,21,2,5
1512354219918839,-2,7,12,7,24,6,-3,-7
1512354219918839,1,12,13,28,49,-13,-8,-12
1512354219938839,-4,-25,-44,3,26,-28,3,3
1512354219938839,-1,-2,6,-15,-44,-1,-3,0
1512354219940839,2,8,2,-6,-5,3,4,0
1512354219940839,-1,0,6,1,0,-13,-5,-7
1512354219953839,-1,2,7,-10,-51,-19,-5,-4
1512354219953839,-3,-7,-14,8,5,-17,-2,2
1512354219960839,1,4,9,2,25,-1,1,-2
1512354219960839,0,4,5,6,-1,-15,-8,-3
1512354219976839,3,8,29,18,-7,-9,-4,-4
1512354219976839,-7,-24,-54,-30,-53,0,9,5
1512354219978839,0,5,9,-1,-1,40,8,2
1512354219978839,-5,-6,-7,-5,-9,10,3,-2
1512354219998839,1,4,6,5,4,6,-1,-1
1512354219998839,1,1,9,-1,18,-13,-5,1
1512354220000839,-1,2,2,5,0,30,3,-3
1512354220000839,-5,-9,-17,-37,-78,-13,4,3
1512354220013839,-2,-1,3,1,-3,40,7,1
1512354220013839,2,6,8,-4,1,6,-2,-2
1512354220020839,-3,-2,-6,-2,-6,-45,-5,-6
1512354220020839,-6,-9,-7,-12,-37,33,-2,-6
1512354220036839,0,5,9,-6,-6,-6,-9,-9
1512354220036839,-3,1,11,3,-10,-6,-1,-5
1512354220038839,2,-9,-13,-2,-18,-15,-3,13
1512354220038839,-5,-3,-25,-4,35,27,0,-11
1512354220059839,-3,-5,-3,-4,-17,7,2,3
1512354220059839,4,4,6,0,16,5,0,9
1512354220060839,-3,-3,18,9,-5,3,0,-7
1512354220060839,-2,-8,-23,-7,-10,-17,-1,2
1512354220073839,4,6,11,9,24,-2,2,-1
1512354220073839,2,2,0,10,27,-14,2,5
1512354220080839,-1,2,1,-6,-24,19,-2,-3
1512354220080839,3,4,11,3,3,1,6,2
1512354220096839,3,10,4,6,10,-5,-2,-2
1512354220096839,-2,-6,-7,-12,-18,0,-5,0
1512354220098839,-2,2,5,9,19,-8,-2,-8
1512354220098839,-4,-1,-1,17,-22,-19,-4,-7
1512354220119839,0,0,5,-9,8,8,-2,1
1512354220119839,0,1,6,8,29,12,3,2
1512354220120839,-2,-8,-23,-4,3,-12,-9,-16
1512354220120839,6,4,6,4,9,-8,8,31
1512354220133839,3,4,7,27,39,-33,0,0
1512354220133839,-6,-3,5,-1,-11,7,-2,-9
1512354220140839,3,11,26,-9,-21,0,4,12
1512354220140839,-1,-7,-21,2,8,-5,-7,-10
1512354220156839,2,4,5,8,11,-2,-3,1
1512354220156839,0,13,7,3,3,-3,0,-2
1512354220158839,-5,-25,-37,-4,9,-5,1,0
1512354220158839,3,11,24,1,-13,-1,0,-2
1512354220178839,-3,-8,-8,-15,-31,29,13,10
1512354220178839,1,4,4,18,8,-20,-5,-10
1512354220180839,0,7,7,0,2,-2,-2,5
1512354220180839,-8,-10,-8,-6,-15,24,4,-4
1512354220192839,-3,4,-1,1,40,3,-1,-9
1512354220192839,-2,-11,-2,5,1,0,2,6
1512354220201839,-5,-1,-8,-1,9,-6,-3,-11
1512354220201839,4,4,20,3,20,5,-6,1
1512354220216839,2,-2,-21,-27,-40,-12,-7,-1
1512354220216839,-5,-10,-14,5,12,8,-2,-13
1512354220218839,3,3,-1,2,9,-19,-1,13
1512354220218839,-1,0,13,4,10,-5,5,5
1512354220238839,-3,-1,-1,0,-16,-6,-4,1
1512354220238839,0,-2,-2,-4,16,-3,0,4
1512354220240839,4,5,8,-4,-19,12,3,-9
1512354220240839,0,-2,-1,-12,5,-18,-1,2
1512354220252839,-4,-8,-11,26,46,10,-8,-7
1512354220252839,-3,-4,-4,3,-6,-6,-3,-10
1512354220261839,1,5,5,0,0,1,3,24
1512354220261839,-1,1,31,-3,-8,-3,-1,13
1512354220276839,2,-4,-45,-9,8,-7,-1,-1
1512354220276839,-8,-14,-9,-21,-74,8,6,-1
1512354220278839,2,1,1,8,0,17,2,-6
1512354220278839,0,4,3,6,16,-18,-8,-12
1512354220298839,-2,3,11,-22,-38,-16,-13,-3
1512354220298839,3,8,11,11,18,-1,15,25
1512354220300839,-7,-19,-34,-16,-28,-33,-9,-11
1512354220300839,1,1,1,1,-12,39,7,-8
1512354220312839,-8,-5,6,-10,-49,-8,0,-5
1512354220312839,-2,5,4,-5,5,20,-7,8
1512354220321839,20,5,10,4,12,4,14,24
1512354220321839,-4,-2,-14,-5,10,1,5,-4
1512354220336839,-2,2,7,5,5,-11,2,-8
1512354220336839,2,1,-2,14,18,-14,-13,-3
1512354220338839,-5,13,24,0,5,40,2,-9
1512354220338839,-7,-6,-7,-7,-22,4,-8,-12
1512354220358839,8,-12,-18,4,1,19,9,11
1512354220358839,1,6,8,-5,8,-2,4,9
1512354220359839,-5,-7,7,-4,-14,-1,-3,-8
1512354220359839,4,10,-9,4,44,-20,-9,-18
1512354220380839,-4,-13,-9,22,34,31,13,16
1512354220380839,2,0,7,-32,-32,-22,-3,-6
1512354220381839,-3,-2,-23,-8,-23,-2,-7,-11
1512354220381839,-2,-2,20,17,-9,-10,-2,3
1512354220395839,-3,0,5,-14,-14,11,1,7
1512354220395839,6,1,-5,10,22,-4,2,16
1512354220396839,3,2,11,7,12,-16,1,7
1512354220396839,0,1,-7,-11,-33,-5,4,-1
1512354220418839,1,-5,-10,-5,-9,8,-4,-7
1512354220418839,-4,1,2,4,-10,-12,-7,-12
1512354220419839,-3,2,1,-1,2,13,-6,-12
1512354220419839,2,-3,-1,7,9,-27,0,9
1512354220440839,-17,-12,-15,-36,-70,-2,-8,-28
1512354220440839,10,-3,-11,-11,-41,-34,-9,22
1512354220441839,-3,1,3,-5,7,20,3,-10
1512354220441839,-5,-6,-6,18,5,3,0,-4
1512354220455839,3,8,6,-5,6,-4,-2,3
1512354220455839,-4,-8,-28,-14,-18,7,9,-12
1512354220456839,3,4,5,8,21,-17,-5,8
1512354220456839,-1,12,16,-2,-4,12,-9,-13
1512354220478839,1,-8,14,11,19,-13,0,2
1512354220478839,-2,-4,-10,5,-1,4,1,-16
1512354220479839,5,1,3,6,61,4,4,23
1512354220479839,-2,-5,-10,-13,-33,0,-5,-5
1512354220500839,4,10,19,0,1,19,4,16
1512354220500839,-1,-2,-13,-5,10,-9,-5,-7
1512354220501839,-10,-6,-9,-17,-29,-12,-3,-22
1512354220501839,3,1,0,9,-22,2,6,15
1512354220515839,-1,4,18,-3,27,-32,-6,-5
1512354220515839,-4,-1,-7,14,28,44,1,-13
1512354220516839,1,7,15,-9,-24,-13,-2,5
1512354220516839,-4,-13,-31,-3,19,2,-2,-2
1512354220538839,6,13,15,2,-4,-10,-5,-2
1512354220538839,-4,1,22,-9,-21,11,4,-3
1512354220539839,-1,-2,-18,11,6,-3,-8,-8
1512354220539839,3,-2,3,1,13,-6,3,8
1512354220560839,1,2,-5,2,3,3,-1,-5
1512354220560839,-3,5,14,-7,-10,-24,-7,-13
1512354220561839,2,0,-3,5,13,8,6,20
1512354220561839,-1,-1,6,-8,-20,-8,-8,-4
1512354220575839,-3,-11,-26,-5,-18,15,4,3
1512354220575839,3,7,6,-2,4,3,2,2
1512354220576839,-4,-4,3,5,-13,-15,-2,-11
1512354220576839,-5,-10,-20,-18,-27,-3,1,-7
1512354220598839,1,-1,8,15,32,-7,-2,7
1512354220598839,-2,-3,3,-9,-5,10,-2,-1
1512354220599839,-6,1,9,-7,-33,10,1,-2
1512354220599839,8,9,-4,-3,-5,-19,-12,-9
1512354220620839,3,2,-1,2,-6,-4,1,11
1512354220620839,0,-6,-2,2,43,8,3,7
1512354220621839,1,10,8,0,-12,-18,-7,-9
1512354220621839,-7,-4,11,2,51,16,11,16
1512354220635839,2,-5,-10,-1,-8,19,0,-13
1512354220635839,-1,2,-2,16,34,-24,-8,3
1512354220636839,-3,-8,-6,5,-19,-3,-1,0
1512354220636839,-1,3,-2,2,39,-2,1,-8
1512354220658839,1,8,15,4,-7,-4,-1,-3
1512354220658839,-4,-2,15,-7,-23,27,-2,3
1512354220659839,0,-1,-22,-7,17,0,2,-7
1512354220659839,-2,-4,-2,5,-4,6,8,5
1512354220680839,1,-1,-4,5,-1,-22,-2,-5
1512354220680839,0,3,7,23,49,-5,-2,-7
1512354220681839,5,-2,-4,-7,-31,-11,0,10
1512354220681839,-1,5,13,-4,-7,9,-4,-7
1512354220695839,-1,-6,-16,-3,9,-12,0,7
1512354220695839,1,4,-5,-4,-18,-10,-5,3
1512354220696839,-2,3,16,10,22,42,6,-3
1512354220696839,-2,-6,3,10,26,-20,-6,9
1512354220718839,1,3,0,-7,-26,-6,0,1
1512354220718839,-1,-7,-5,19,32,-1,2,-7
1512354220719839,3,9,4,-4,3,-12,-7,-7
1512354220719839,4,-1,-8,-1,-25,-25,4,15
1512354220740839,0,4,1,-1,13,15,3,1
1512354220740839,-2,-8,-12,-2,-3,-9,-4,6
1512354220741839,-5,-2,-5,-11,0,-7,2,-13
1512354220741839,-4,-3,-7,2,10,15,2,7
1512354220755839,2,7,12,5,12,-9,-6,-7
1512354220755839,0,-4,-4,-11,-22,-8,-1,-4
1512354220756839,-1,2,14,16,31,24,-3,2
1512354220756839,-2,-7,8,-19,-48,-9,1,-3
1512354220778839,-1,-6,-27,15,34,1,-1,-5
1512354220778839,-1,-3,-9,-12,-25,6,-1,4
1512354220779839,-4,-9,-2,7,14,-9,-6,-7
1512354220779839,3,0,3,-5,4,20,9,13
1512354220800839,-4,-2,13,-9,-17,-8,-1,4
1512354220800839,1,3,0,5,10,21,1,-11
1512354220801839,2,0,2,-12,-39,-22,2,11
1512354220801839,-3,-5,-21,0,6,-3,-8,-14
1512354220815839,0,1,-6,-4,-1,-10,1,2
1512354220815839,0,0,-3,-2,7,11,2,8
1512354220816839,-3,-11,-5,-4,-13,12,3,-8
1512354220816839,0,7,14,-2,-2,1,-9,-14
1512354220838839,-3,-3,-3,17,30,10,4,3
1512354220838839,0,0,0,-3,-15,-26,-2,1
1512354220838839,-2,-4,-12,2,28,4,-3,-1
1512354220838839,-1,0,-11,-4,-8,-15,-9,-6
1512354220860839,3,2,21,-1,-22,5,2,12
1512354220860839,3,5,1,6,7,-12,0,4
1512354220861839,-2,-5,10,-2,-19,-12,-6,-14
1512354220861839,1,2,-20,-1,29,25,5,12
1512354220875839,-5,-5,4,0,3,5,-1,-4
1512354220875839,-2,2,2,-3,-8,1,-11,-29
1512354220883839,3,2,19,-10,-16,-16,6,31
1512354220883839,-5,-5,-24,8,8,25,-4,-23
1512354220898839,-3,0,6,-5,-23,-16,-7,-9
1512354220898839,-2,-5,-9,-10,-4,18,2,6
1512354220899839,1,2,10,9,8,0,4,10
1512354220899839,0,2,9,-21,-62,-23,0,3
1512354220920839,0,-8,-12,-1,3,14,1,0
1512354220920839,-3,-6,3,0,-14,22,0,-1
1512354220921839,-3,0,-19,-10,-7,5,-6,-19
1512354220921839,1,1,9,5,3,-4,1,10
1512354220935839,-1,2,-9,-23,-15,11,0,1
1512354220935839,-5,-9,-3,-1,-6,-31,2,-3
1512354220943839,2,-2,-8,2,1,14,7,7
1512354220943839,7,3,4,13,52,-5,3,16
1512354220958839,-5,1,6,-9,5,13,-3,-38
1512354220958839,9,5,6,17,13,-15,7,37
1512354220959839,-1,9,19,1,22,-1,-5,-20
1512354220959839,-3,-5,3,8,3,3,1,-4
1512354220980839,-3,-6,-26,-15,-36,-8,-4,-2
1512354220980839,3,9,3,13,34,-14,-3,-15
1512354220981839,-2,-7,-3,9,16,16,0,10
1512354220981839,0,4,19,-5,-38,-14,-4,1
1512354220995839,5,7,15,10,33,-3,-4,-2
1512354220995839,-4,0,-7,-11,-29,-11,-2,3
1512354221003839,-2,-4,-17,-7,-3,-5,-11,-21
1512354221003839,-1,-5,9,5,-3,0,14,3
1512354221018839,-2,0,0,1,7,-14,0,21
1512354221018839,-2,0,-2,-9,-13,-17,-10,-27
1512354221019839,8,6,2,7,14,48,16,39
1512354221019839,-7,-13,-17,-7,9,-20,-4,-12
1512354221040839,-1,-1,-1,6,19,23,7,-7
1512354221040839,-3,-5,6,-8,-11,8,-6,0
1512354221041839,1,10,22,3,-29,-42,-11,-9
1512354221041839,-1,-16,-38,4,41,30,0,-4
1512354221054839,1,5,4,-8,-56,6,2,12
1512354221054839,-2,-4,-6,-9,2,14,-1,-6
1512354221063839,0,8,17,11,33,-16,-5,-4
1512354221063839,1,7,4,-12,-29,-18,0,8
1512354221078839,-1,-10,-16,-5,-26,-19,-1,-2
1512354221078839,2,4,7,0,-10,16,6,3
1512354221079839,-6,-14,-26,0,15,0,-5,2
1512354221079839,2,3,16,-8,4,-7,-1,-3
1512354221100839,2,2,5,12,-4,13,6,15
1512354221100839,3,1,-10,-12,-19,5,4,17
1512354221101839,-2,-5,-13,-11,-9,3,1,-7
1512354221101839,-5,-4,-2,-2,-10,7,-3,-13
1512354221115839,-3,2,8,8,12,-14,-9,-9
1512354221115839,3,-1,3,11,26,22,17,16
1512354221123839,-1,-3,-12,-9,-8,-26,-3,-2
1512354221123839,3,5,6,17,19,16,3,1
1512354221138839,2,1,2,-5,-7,9,4,5
1512354221138839,-1,1,1,-7,-8,-6,-8,-16
1512354221138839,-1,-3,-2,-7,-27,-6,5,9
1512354221138839,-4,1,-9,7,-19,11,-3,-14
1512354221160839,5,2,3,6,49,-23,0,25
1512354221160839,-4,5,12,0,-15,-27,-11,-16
1512354221161839,-8,-23,-35,-4,1,40,12,-6
1512354221161839,8,8,11,6,8,24,6,17
1512354221175839,4,11,29,-5,-21,-10,-3,-4
1512354221175839,-6,-23,-49,-9,-3,9,-1,1
1512354221183839,0,9,16,4,21,-24,-8,-12
1512354221183839,-4,-2,3,10,33,11,-2,5
1512354221198839,-1,5,6,-5,-41,-6,-4,-13
1512354221198839,4,4,7,4,-1,23,5,0
1512354221205839,3,8,11,-11,-54,-34,1,14
1512354221205839,1,-5,-16,-6,26,32,8,5
1512354221220839,-1,0,1,5,16,-14,-7,11
1512354221220839,-1,-8,6,17,23,1,4,-4
1512354221221839,0,-2,-9,0,-17,2,0,4
1512354221221839,-6,5,9,-17,-32,-15,-11,-18
1512354221234839,1,5,11,-9,-15,20,11,-2
1512354221234839,4,-2,-8,8,26,-15,-2,12
1512354221243839,1,11,31,10,19,-21,-3,-8
1512354221243839,-6,-25,-58,-20,-48,-25,-14,-6
1512354221258839,-5,-27,-24,14,-1,-2,-7,-7
1512354221258839,2,5,5,-1,37,0,2,1
1512354221258839,-2,0,12,17,3,-4,1,2
1512354221258839,-2,0,40,-5,-3,17,-2,-13
1512354221280839,0,12,-12,10,16,-21,-4,-5
1512354221280839,-3,-10,-14,7,-29,-13,-3,5
1512354221281839,7,9,0,-1,-20,-19,-2,1
1512354221281839,0,10,29,9,10,-17,-6,3
1512354221295839,-4,-12,-31,-22,8,5,0,-6
1512354221295839,7,23,54,36,41,-15,-1,6
1512354221303839,-12,-40,-82,-15,3,-8,-13,-5
1512354221303839,2,7,15,-1,-21,-19,3,-3
1512354221318839,0,5,-6,-21,-2,-1,-3,-8
1512354221318839,-5,-4,11,-14,-17,34,0,-14
1512354221318839,2,-1,5,5,-13,20,8,24
1512354221318839,-1,3,3,-1,1,8,2,2
1512354221340839,-1,1,10,1,-10,-18,-7,-5
1512354221340839,-1,3,-16,-3,29,0,-1,1
1512354221341839,0,5,10,13,17,-22,-11,-13
1512354221341839,2,0,-6,0,-14,5,1,13
1512354221355839,1,2,0,-6,-8,-11,3,-4
1512354221355839,-5,-6,4,0,-19,-12,-12,-25
1512354221363839,1,3,3,-12,16,28,10,23
1512354221363839,6,10,16,-4,-29,-5,0,13
1512354221378839,0,3,-13,-5,8,8,2,-2
1512354221378839,-10,-25,-32,-16,-18,-17,-5,2
1512354221378839,0,-6,-16,14,11,9,10,-11
1512354221378839,-5,-4,3,-2,34,-3,-4,-10
1512354221400839,2,6,26,16,10,21,5,19
1512354221400839,2,5,3,-9,-14,3,4,4
1512354221401839,-4,5,3,-9,1,24,-1,-13
1512354221401839,-2,-2,-11,15,21,9,2,0
1512354221415839,2,-2,2,-4,-2,-13,1,0
1512354221415839,-4,1,5,0,-9,-14,-2,-11
1512354221423839,-5,-6,-17,-15,-19,45,5,15
1512354221423839,1,-5,-7,-13,21,10,1,2
1512354221438839,-3,-2,2,10,1,-25,-17,-14
1512354221438839,4,5,38,-1,19,14,16,14
1512354221438839,2,4,-38,5,19,8,-1,-20
1512354221438839,-5,-12,-2,6,-10,-11,-2,-6
1512354221460839,-4,2,10,4,27,9,-1,-16
1512354221460839,-2,1,-7,-11,-14,31,13,9
1512354221461839,-1,2,24,-8,-5,-18,-8,2
1512354221461839,4,12,7,7,4,1,6,-6
1512354221475839,-7,-17,-9,-11,-16,8,10,12
1512354221475839,-13,-22,-50,-6,-2,-6,-24,-39
1512354221483839,-5,-25,-34,-13,-33,-30,-8,5
1512354221483839,0,16,-9,-10,9,-35,-19,-20
1512354221498839,5,21,98,6,-5,24,9,14
1512354221498839,-1,16,-75,-18,6,-7,6,23
1512354221498839,25,11,85,-2,-25,18,2,38
1512354221498839,-2,12,64,30,55,-8,-5,-24
1512354221520839,-11,-5,18,-5,-7,-24,5,-2
1512354221520839,5,33,69,3,4,0,-23,-2
1512354221521839,-9,-11,-54,5,-17,-16,1,-22
1512354221521839,4,-17,-21,-26,-44,-8,-1,23
1512354221544839,1,10,-40,-19,31,-4,-15,-37
1512354221544839,2,-6,-23,21,16,18,18,13
1512354221544839,-10,-1,25,14,8,11,-16,-27
1512354221544839,-3,-2,10,0,-6,-7,9,12
1512354221558839,-11,-9,-25,2,-8,16,-1,-37
1512354221558839,8,-1,14,-10,-28,18,0,33
1512354221558839,2,-3,-6,-9,8,-1,-3,-3
1512354221558839,-8,7,19,-5,9,8,9,-5
1512354221580839,1,-13,-54,5,1,7,2,-3
1512354221580839,1,-1,17,13,-28,-29,-5,-19
1512354221581839,-2,13,17,-6,9,0,-12,-2
1512354221581839,1,-7,-18,9,19,17,16,15
1512354221603839,3,10,14,0,-34,-10,1,23
1512354221603839,-8,-26,-17,-2,-13,-1,-2,-15
1512354221604839,-4,-2,-5,4,20,-29,0,1
1512354221604839,7,6,17,-16,26,67,11,7
1512354221618839,2,0,-2,13,-53,10,-5,7
1512354221618839,-1,6,-4,-9,-37,-9,-7,-9
1512354221618839,-3,0,12,2,14,5,15,16
1512354221618839,-3,-6,-25,-4,-35,14,-4,-4
1512354221640839,10,12,21,0,38,-8,-1,14
1512354221640839,-6,-8,13,-8,-6,16,4,-3
1512354221641839,-3,9,1,-8,18,-24,-13,-16
1512354221641839,-1,0,-27,5,-18,23,20,17
1512354221663839,5,-9,-21,6,0,-15,2,11
1512354221663839,2,12,24,0,32,-25,-10,-17
1512354221664839,-7,-11,-5,-4,31,64,15,5
1512354221664839,-3,8,16,9,4,-43,-17,-25
1512354221678839,-2,-2,-3,-5,-22,0,-14,-5
1512354221678839,-2,-5,-16,2,30,16,17,18
1512354221678839,-4,15,29,2,2,-15,-35,-58
1512354221678839,18,0,-19,1,-20,19,27,81
1512354221700839,-3,-13,-12,-7,-1,-7,4,7
1512354221700839,2,8,17,11,-7,-29,-15,-27
1512354221701839,9,11,10,-1,-7,7,15,42
1512354221701839,-10,-16,-39,-2,4,-15,-18,-40
1512354221723839,5,-5,4,7,18,-19,3,32
1512354221723839,5,1,3,-11,-2,7,-2,5
1512354221724839,-4,-2,22,7,24,16,6,0
1512354221724839,0,4,-31,-13,-22,-45,-6,-8
1512354221738839,-4,-3,23,10,18,3,-4,-8
1512354221738839,-16,-2,15,-4,-14,-12,-14,-37
1512354221738839,4,-15,-55,-17,-33,8,14,29
1512354221738839,-2,4,36,15,13,-10,-14,-21
1512354221760839,0,2,-13,-1,11,19,6,-6
1512354221760839,1,-15,-12,-4,13,-13,1,31
1512354221761839,-11,0,-2,1,-14,-3,-13,-60
1512354221761839,-5,-6,-2,-16,-22,-15,2,14
1512354221784839,7,14,6,-5,-23,12,9,21
1512354221784839,-4,-14,-11,3,-5,-9,-12,-19
1512354221784839,-3,14,12,10,21,30,33,0
1512354221784839,1,-6,4,-7,10,-10,-22,-10
1512354221798839,-12,-9,11,-8,-16,-6,13,-43
1512354221798839,-10,1,31,-7,-42,-2,-44,-40
1512354221798839,28,-13,-64,21,38,28,50,83
1512354221798839,3,7,1,-31,-88,-2,-7,18
1512354221820839,1,-7,5,42,75,20,6,21
1512354221820839,6,5,-37,-33,-4,-10,1,-21
1512354221821839,-19,-6,38,0,-32,-12,-48,-51
1512354221821839,29,23,59,9,-6,9,69,106
1512354221843839,-21,-40,-96,-11,-12,-16,-38,-20
1512354221843839,1,8,8,13,14,22,-1,-49
1512354221844839,4,11,19,-19,3,-27,-32,-27
1512354221844839,13,19,27,-9,21,19,73,61
1512354221858839,1,12,-13,10,-19,-25,2,-4
1512354221858839,-9,-42,-60,11,-26,19,-10,39
1512354221858839,3,6,-10,-32,-2,-28,7,-10
1512354221858839,-16,-5,25,33,35,11,-42,-93
1512354221880839,6,9,39,-13,0,10,7,1
1512354221880839,-9,-7,-22,6,5,15,-4,-24
1512354221881839,7,-3,27,-3,-50,-25,18,79
1512354221881839,-11,-10,-97,-35,-11,17,-12,-43
1512354221903839,14,-3,22,9,-2,-2,22,56
1512354221903839,8,22,47,-16,-27,-7,15,21
1512354221904839,-12,-14,-24,27,46,11,-29,-49
1512354221904839,14,14,26,21,53,6,7,-11
1512354221918839,-8,4,8,-3,2,-11,-12,-35
1512354221918839,9,-3,-32,-6,3,9,37,65
1512354221918839,6,17,37,0,-11,-3,-5,-18
1512354221918839,-16,-23,-12,18,15,-16,-18,11
1512354221940839,-5,7,-1,-15,9,-6,-36,-64
1512354221940839,6,31,105,0,-9,-3,13,18
1512354221941839,-13,-28,-121,8,-9,-37,-10,-20
1512354221941839,11,4,14,-4,46,27,-8,36
1512354221963839,-4,2,21,6,-30,2,-6,-10
1512354221963839,1,12,28,-13,20,3,-1,-9
1512354221964839,-11,-5,4,35,18,2,-1,-14
1512354221964839,-8,-13,-26,-7,-24,-11,-10,-25
1512354221978839,1,-4,-18,-24,-35,-10,7,7
1512354221978839,10,4,-13,16,13,9,25,27
1512354221978839,3,9,31,-6,-3,8,7,18
1512354221978839,-11,-6,15,2,-9,1,-18,-38
1512354222000839,-3,19,1,-12,-17,16,11,-12
1512354222000839,-8,-30,-34,8,6,-18,-7,-10
1512354222001839,-2,0,30,-11,-43,17,-3,8
1512354222001839,3,-8,-17,-3,-10,2,22,47
1512354222023839,4,12,-10,-22,-59,2,-6,-21
1512354222023839,-8,-8,-18,-1,3,-5,0,-4
1512354222024839,-5,-13,-14,-5,-3,6,-3,-11
1512354222024839,-3,4,8,11,5,-14,-26,-37
1512354222038839,0,6,23,16,-21,21,1,21
1512354222038839,4,-11,-22,0,60,24,11,13
1512354222038839,5,5,-9,-26,-36,22,8,7
1512354222038839,-13,-11,-20,6,-26,-33,-12,-24
1512354222060839,-8,-26,-8,-13,37,-1,-20,-29
1512354222060839,17,16,31,0,-36,11,13,62
1512354222061839,5,3,-26,-9,23,-12,3,-9
1512354222061839,-2,16,42,10,-3,11,-8,-21
1512354222083839,5,-13,-36,6,30,-18,21,36
1512354222083839,-7,5,-9,4,-10,0,7,-22
1512354222084839,3,0,13,-4,-21,-34,-1,24
1512354222084839,-11,-6,-9,-26,-52,9,-3,-33
1512354222098839,5,5,19,9,27,4,10,27
1512354222098839,-6,13,39,16,-2,-17,-23,-43
1512354222098839,-5,3,-28,-31,-14,0,-4,-38
1512354222098839,-4,-42,-25,22,-14,-40,-36,-35
1512354222120839,-1,0,14,5,19,23,11,0
1512354222120839,2,8,-2,-4,-4,2,31,73
1512354222121839,-12,7,5,-5,2,-17,5,-77
1512354222121839,-12,2,1,-24,-33,14,-31,-78
1512354222143839,-4,-11,-32,-6,5,16,7,-5
1512354222143839,23,4,5,8,-1,-19,8,52
1512354222144839,-2,-2,1,-17,6,10,6,22
1512354222144839,5,11,5,26,20,23,-26,-23
1512354222157839,8,-5,-1,-1,38,12,53,82
1512354222157839,-2,0,-11,26,-16,3,7,-82
1512354222165839,10,7,37,-40,-15,-22,5,36
1512354222165839,-5,8,3,39,45,19,10,-5
1512354222180839,-7,-12,-8,-14,-37,-41,-50,-31
1512354222180839,-7,-29,-71,-2,10,0,1,17
1512354222181839,10,18,57,19,15,-14,7,20
1512354222181839,1,-7,-35,-10,30,-28,17,23
1512354222203839,-22,-5,27,8,-13,2,-11,-80
1512354222203839,8,4,1,-17,-30,-28,-39,73
1512354222203839,3,7,22,20,15,-1,9,-25
1512354222203839,1,9,12,-14,13,-4,0,17
1512354222217839,-7,-20,-39,-4,0,6,-24,-16
1512354222217839,-9,-1,25,-2,4,-13,-23,-68
1512354222225839,5,-15,-56,13,4,19,0,28
1512354222225839,5,14,-1,10,15,-10,8,17
1512354222240839,4,8,12,-8,-35,5,-8,-9
1512354222240839,-15,3,54,-6,-1,41,0,-60
1512354222241839,2,-17,-30,-10,-26,14,14,52
1512354222241839,1,-13,-61,-13,5,-1,30,29
1512354222263839,-1,3,36,15,7,14,6,14
1512354222263839,-7,-1,-10,-10,-3,-36,-21,-26
1512354222263839,-10,8,28,29,52,22,-16,-38
1512354222263839,8,4,13,-11,-26,6,-6,26
1512354222277839,9,4,6,-12,14,5,9,36
1512354222277839,-2,2,7,12,11,12,1,-37
1512354222285839,-6,-11,-21,9,-3,-25,-15,44
1512354222285839,9,10,6,-14,-18,-12,9,5
1512354222300839,-4,4,-11,2,13,-5,2,-15
1512354222300839,-4,2,7,15,7,19,0,-23
1512354222301839,1,15,28,4,16,-7,-39,-34
1512354222301839,-2,-16,-16,-17,-13,21,60,17
1512354222323839,4,2,15,0,-10,-34,2,31
1512354222323839,2,-13,-35,-20,6,-7,-6,7
1512354222323839,-11,-10,19,19,17,47,10,-5
1512354222323839,-3,1,11,-16,-41,-28,-16,6
1512354222337839,0,10,-1,5,11,-13,-18,-38
1512354222337839,-1,-5,0,-2,11,9,27,44
1512354222345839,-1,4,-12,-2,-13,-17,-3,-63
1512354222345839,4,16,51,-7,-5,3,-3,-14
1512354222360839,4,-32,-55,2,-5,27,41,73
1512354222360839,-6,-5,-17,-27,-36,9,-32,-17
1512354222361839,20,7,-27,23,17,3,60,94
1512354222361839,-5,0,16,-5,-34,-13,-23,0
1512354222383839,0,20,41,10,15,-6,-5,-24
1512354222383839,18,15,5,2,-5,0,11,23
1512354222383839,-4,8,11,-8,0,-22,-29,-43
1512354222383839,-13,-34,-24,-6,19,31,-14,-22
1512354222397839,4,7,-2,16,50,7,-11,6
1512354222397839,-4,-6,-12,0,-11,-15,21,9
1512354222405839,-2,-2,11,13,4,-1,-4,-18
1512354222405839,-4,7,10,0,2,2,-4,18
1512354222420839,11,21,19,-15,-18,-16,-22,-20
1512354222420839,-4,-30,-70,21,29,23,27,25
1512354222421839,-9,-3,6,-4,9,-14,-2,-31
1512354222421839,-3,-13,-26,-4,5,9,35,35
1512354222443839,-6,-6,12,-17,-44,5,-21,-44
1512354222443839,-2,19,17,3,14,14,-6,-15
1512354222443839,6,3,32,-2,-4,2,-6,22
1512354222443839,-9,-10,-33,5,2,-2,3,-39
1512354222457839,-8,-1,7,7,30,-33,-4,11
1512354222457839,9,9,23,-4,-8,-9,-10,0
1512354222465839,-2,-17,-16,-2,-16,-3,21,29
1512354222465839,4,5,10,10,35,15,-5,-7
1512354222480839,-5,-27,-49,-6,-29,-18,-8,-6
1512354222480839,-7,2,-6,-15,-24,9,6,-26
1512354222481839,-5,-7,11,-5,-20,3,-12,-1
1512354222481839,10,22,54,9,17,-29,10,51
1512354222503839,-12,-35,-92,-21,-35,5,-8,-38
1512354222503839,11,5,19,6,7,-24,17,46
1512354222503839,-3,-12,-24,-17,-18,-3,-9,-10
1512354222503839,-5,7,21,20,34,-3,-21,-41
1512354222526839,0,19,54,10,-20,12,6,-1
1512354222526839,-6,-10,-26,-8,46,-6,-6,-8
1512354222527839,-6,0,-7,-7,-18,9,-13,-13
1512354222527839,5,-13,-12,-11,0,-19,11,18
1512354222540839,-3,3,7,10,-29,-4,9,-8
1512354222540839,-2,12,37,-32,-50,-1,-14,-5
1512354222541839,16,6,-44,24,87,-3,31,35
1512354222541839,-13,-19,7,6,-21,0,-16,-23
1512354222563839,1,15,-14,1,31,17,-11,2
1512354222563839,7,6,45,3,-33,-46,-12,-30
1512354222563839,-12,-8,-27,-15,-24,-19,-20,-51
1512354222563839,8,3,-3,19,43,-2,3,39
1512354222593839,1,5,17,-7,-18,-3,-6,-3
1512354222593839,-4,1,1,0,-2,6,3,6
1512354222594839,-1,-5,0,-4,2,-12,-7,-6
1512354222594839,1,7,2,8,2,11,-11,-15
1512354222600839,-4,-6,13,-8,15,15,-13,-14
1512354222600839,5,5,-3,28,29,22,28,11
1512354222601839,6,12,50,7,3,4,0,27
1512354222601839,-4,1,-45,-16,-38,-33,-9,-25
1512354222623839,5,-5,1,7,30,51,20,24
1512354222623839,-3,-6,-25,-9,-16,0,-10,0
1512354222623839,-13,-7,7,-21,-35,-7,1,-29
1512354222623839,18,17,32,1,-19,25,9,69
1512354222646839,3,12,12,-3,-8,-29,4,-1
1512354222646839,-11,-15,-42,2,-1,4,-14,-10
1512354222647839,-3,-15,-16,2,-5,5,5,4
1512354222647839,-5,1,10,-24,-24,-2,-8,-26
1512354222660839,0,-9,-6,19,42,-20,9,13
1512354222660839,0,12,16,7,24,41,4,2
1512354222661839,3,-6,-11,-7,-17,2,2,23
1512354222661839,-5,-7,-3,2,18,-11,-2,-9
1512354222683839,3,3,-6,-6,-18,-18,5,1
1512354222683839,-2,8,30,-1,-8,19,2,-2
1512354222683839,-8,-14,-24,5,22,-2,-5,-8
1512354222683839,9,14,18,1,6,6,-11,-5
1512354222706839,-4,-3,-17,-4,-5,-8,18,49
1512354222706839,0,-11,-21,-11,-15,-11,-7,-7
1512354222707839,0,13,32,23,42,3,0,-17
1512354222707839,-1,-2,8,2,-20,-2,-2,-14
1512354222720839,2,19,8,-12,31,-3,-6,-12
1512354222720839,-3,-12,-9,5,2,11,1,-1
1512354222721839,4,7,19,3,-2,12,7,24
1512354222721839,-11,-4,-22,8,26,4,-12,-32
1512354222743839,5,1,2,-14,-29,-6,4,3
1512354222743839,0,-8,-3,18,52,-22,-5,6
1512354222743839,-3,-7,-22,-27,-65,8,-5,-13
1512354222743839,-5,-5,-8,7,2,12,-11,-20
1512354222766839,7,6,22,2,-14,5,29,61
1512354222766839,-7,6,3,0,6,-13,-23,-54
1512354222767839,12,2,-18,11,27,10,12,69
1512354222767839,4,3,12,-11,-44,-21,20,3
1512354222780839,-4,-20,-39,2,2,6,-3,5
1512354222780839,-5,0,10,2,-5,-21,-18,-17
1512354222781839,2,13,24,-7,-2,-5,5,13
1512354222781839,2,-2,-1,4,-10,4,-2,-3
1512354222803839,-1,-1,-1,-3,13,0,-6,-16
1512354222803839,-3,-8,-14,-13,-14,-3,14,28
1512354222803839,-3,-2,-2,27,38,-5,-8,-25
1512354222803839,-5,-8,-16,-23,-28,5,7,2
1512354222826839,-4,2,17,8,24,7,-20,-34
1512354222826839,4,4,-3,-9,-12,23,18,49
1512354222827839,2,4,33,12,-22,-26,-5,-7
1512354222827839,-7,-13,-55,-2,30,33,14,-13
1512354222840839,-1,4,33,14,22,-19,-15,-9
1512354222840839,3,5,1,-8,-25,-11,4,-2
1512354222841839,-4,3,3,-2,15,-28,-7,-35
1512354222841839,8,9,43,20,5,-1,14,54
1512354222863839,-1,0,-29,-10,-3,3,-13,-29
1512354222863839,5,-9,-11,-6,-8,7,22,48
1512354222870839,-4,-3,0,-5,-5,3,-10,-23
1512354222870839,-6,-4,2,-2,-6,-30,-9,-8
1512354222886839,0,3,1,-3,-22,12,7,-3
1512354222886839,-2,1,3,-1,-13,-40,-20,-19
1512354222887839,-1,-3,-7,-8,23,42,5,10
1512354222887839,-6,0,0,0,-4,-1,-4,-27
1512354222900839,8,0,-3,-3,1,8,28,54
1512354222900839,0,3,10,5,-8,-11,-14,-20
1512354222901839,-5,-8,-15,-18,-58,-6,8,-6
1512354222901839,-1,-15,-29,10,61,5,1,27
1512354222923839,-4,1,13,3,-31,-8,-4,-27
1512354222923839,-5,-19,-24,-4,29,6,1,-11
1512354222923839,8,13,15,-15,-10,-3,1,18
1512354222923839,-6,-9,-11,-4,-8,-14,-11,-22
1512354222946839,-3,-4,5,7,2,7,-3,-4
1512354222946839,3,4,2,3,6,-9,4,15
1512354222947839,-1,-1,4,-9,-20,-10,-12,-29
1512354222947839,3,6,-3,-11,2,12,11,19
1512354222960839,-3,-1,4,11,14,-2,-2,-10
1512354222960839,-1,0,-4,-4,-13,28,3,5
1512354222961839,-6,-3,-2,4,4,13,-2,-22
1512354222961839,5,11,12,-7,-8,3,0,29
1512354222983839,-3,2,-2,-4,1,18,-18,-21
1512354222983839,2,-27,-33,14,59,6,23,34
1512354222983839,1,0,12,19,-12,-10,5,7
1512354222983839,-1,7,22,-11,-25,-3,-8,-23
1512354223006839,-4,-9,-16,11,11,0,-10,-3
1512354223006839,4,10,7,-8,3,16,4,4
1512354223007839,-1,5,1,0,23,-8,-4,11
1512354223007839,-2,-10,-20,0,6,23,2,-4
1512354223020839,1,3,5,-12,-23,-22,2,-2
1512354223020839,-1,4,8,-2,11,22,-11,-39
1512354223021839,0,3,9,-5,-16,21,-4,2
1512354223021839,8,13,10,3,4,5,21,68
1512354223043839,-7,-16,-18,-9,-29,-37,3,10
1512354223043839,2,13,24,1,0,14,2,-19
1512354223043839,-5,-26,-49,-11,-3,-27,-17,-10
1512354223043839,-3,10,19,19,38,14,-8,-28
1512354223066839,0,-10,5,-12,-18,7,12,16
1512354223066839,-6,2,4,-13,-26,-21,-7,-11
1512354223067839,2,-6,-16,9,7,-17,12,7
1512354223067839,-3,1,-4,-11,-47,-22,-7,-13
1512354223080839,-1,3,8,13,44,-8,-21,-29
1512354223080839,2,10,17,2,-1,18,4,8
1512354223081839,2,-6,-17,13,14,-25,9,21
1512354223081839,-4,-8,-8,-10,-4,32,-3,-10
1512354223103839,4,12,2,0,-4,52,7,-19
1512354223103839,-1,-5,9,0,-33,-30,-2,20
1512354223103839,-3,-9,-9,-18,-24,45,11,19
1512354223103839,-2,-1,9,16,63,10,-8,-10
1512354223126839,0,4,-6,-21,-47,-13,1,4
1512354223126839,-1,8,10,29,28,-18,-7,-14
1512354223127839,1,-7,-3,-23,-8,29,9,16
1512354223127839,-7,-12,-13,-9,-24,-46,-9,-3
1512354223148839,-1,-1,-3,0,7,13,7,-3
1512354223148839,1,2,-6,-12,-21,-4,-2,5
1512354223149839,0,9,18,20,80,0,-7,-15
1512354223149839,1,2,-5,-17,-49,-10,-2,8
1512354223163839,-7,-12,-11,8,4,-35,6,4
1512354223163839,-1,-2,7,0,-11,2,-6,7
1512354223163839,2,14,26,2,-26,-27,-8,-19
1512354223163839,3,-10,-42,-1,2,-17,7,23
1512354223186839,0,-6,-7,17,25,14,2,-4
1512354223186839,-1,1,2,-11,-20,-14,-5,0
1512354223187839,-4,0,12,-2,7,6,-4,-9
1512354223187839,2,11,23,5,25,-13,-11,-16
1512354223199839,3,3,-6,-18,-34,-25,-2,24
1512354223199839,-7,-15,-22,6,8,-10,-1,-16
1512354223208839,4,-1,-5,23,-8,13,-1,4
1512354223208839,0,-3,5,13,58,-14,-5,-6
1512354223223839,2,3,3,-5,27,29,4,-7
1512354223223839,1,1,-1,-7,-2,20,0,-1
1512354223223839,2,6,-3,-5,-37,-23,3,19
1512354223223839,-2,-5,0,6,10,-8,-4,-17
1512354223246839,0,-10,-2,17,-2,2,-7,-2
1512354223246839,5,2,-8,-14,2,16,20,43
1512354223247839,0,-6,-24,-12,-5,0,-6,-2
1512354223247839,-7,-6,-3,-11,-27,-5,3,-32
1512354223259839,1,2,12,7,-7,13,4,37
1512354223259839,1,3,6,-8,-5,21,-8,-37
1512354223268839,3,7,28,5,-3,-4,2,11
1512354223268839,0,-6,-15,-4,-22,6,1,-6
1512354223283839,-7,-2,-27,-11,-4,0,0,-9
1512354223283839,-6,-9,-6,8,-2,-9,-2,-15
1512354223283839,0,-3,1,-2,-6,-5,-1,5
1512354223283839,-4,-2,10,-4,-13,12,-1,-10
1512354223306839,9,26,46,12,27,-13,2,15
1512354223306839,-11,-28,-46,14,-8,-30,-9,-3
1512354223307839,3,5,-7,-5,-7,9,-3,-11
1512354223307839,6,7,13,11,-2,19,7,14
1512354223319839,3,11,54,-2,4,-33,-4,2
1512354223319839,-5,-14,-49,6,-25,-1,-2,-14
1512354223328839,-3,3,14,17,54,30,0,-8
1512354223328839,5,10,21,-11,-30,-19,-1,11
1512354223343839,-8,-8,-25,-7,-14,6,-11,-19
1512354223343839,0,0,-2,-6,14,-19,-12,-14
1512354223343839,0,-11,-9,0,-13,-5,14,24
1512354223343839,1,3,-2,4,9,1,-2,6
1512354223366839,-2,8,22,-7,-12,-6,-6,-22
1512354223366839,3,10,23,1,7,-21,-6,5
1512354223367839,1,4,-20,0,17,7,8,2
1512354223367839,-4,-9,-23,-16,-23,-31,-3,4
1512354223379839,-2,-11,-7,1,1,15,2,-5
1512354223379839,0,10,9,8,23,5,-2,2
1512354223388839,1,5,20,-6,-9,-3,7,-2
1512354223388839,-4,-1,0,0,-19,-18,-6,-12
1512354223403839,6,5,18,-1,-6,19,11,10
1512354223403839,-6,-24,-54,11,41,1,-3,-5
1512354223403839,-4,4,12,0,-19,46,4,-2
1512354223403839,-7,2,21,5,2,1,-1,-20
1512354223433839,7,-3,-38,-14,-22,-2,2,13
1512354223433839,2,14,35,-8,-5,7,4,5
1512354223434839,-7,-5,0,-6,14,-3,-5,-16
1512354223434839,0,-9,-28,-8,-9,13,2,3
1512354223456839,-4,-4,7,3,-4,-19,-8,-8
1512354223456839,3,3,-2,9,18,4,5,4
1512354223457839,0,-3,-7,-11,-30,5,-6,-5
1512354223457839,1,9,15,4,11,2,2,0
1512354223463839,-2,-9,-15,-6,1,2,-3,-10
1512354223463839,2,8,16,-8,-47,-15,-3,4
1512354223463839,-1,-4,-8,-6,-12,-25,-10,1
1512354223463839,-3,-1,11,-3,5,31,6,-20
1512354223486839,3,4,-9,-15,-8,6,1,15
1512354223486839,-2,-6,-3,-10,-37,-26,4,19
1512354223486839,-4,-4,-8,13,26,-14,-3,-15
1512354223486839,-4,-3,-6,-8,-2,19,-6,14
1512354223508839,-4,-4,-5,12,-4,3,2,-5
1512354223508839,2,9,22,7,54,-2,6,10
1512354223509839,1,9,21,-3,-13,-8,-4,-2
1512354223509839,1,-10,-36,-10,4,-17,-4,7
1512354223523839,-4,-18,-29,-2,-6,5,3,9
1512354223523839,-1,7,17,-12,-25,1,-5,-13
1512354223523839,-1,1,0,5,10,4,-1,3
1512354223523839,-1,-3,-1,7,6,-12,-5,6
1512354223546839,1,7,15,6,12,-6,2,-17
1512354223546839,-5,-18,-28,-26,-35,-10,-6,-8
1512354223547839,-3,-5,4,14,21,25,-7,-18
1512354223547839,6,0,2,-3,34,11,12,25
1512354223568839,-3,2,5,2,22,4,3,7
1512354223568839,3,4,3,-6,-18,2,-4,-1
1512354223569839,-6,1,-6,-6,-3,-18,-9,-22
1512354223569839,3,4,9,3,-21,-6,-1,4
1512354223582839,-1,-6,-4,14,18,-13,-7,4
1512354223582839,0,-3,-7,-6,25,22,-1,-13
1512354223583839,4,4,6,-17,-34,-14,18,45
1512354223583839,-3,4,30,26,14,-18,-10,-25
1512354223606839,-4,1,-30,-11,-25,-14,5,2
1512354223606839,-1,4,10,24,34,38,0,-6
1512354223607839,3,2,-9,-3,-5,-12,-12,-10
1512354223607839,3,0,2,-12,-16,2,3,14
1512354223628839,1,-1,15,2,9,1,3,14
1512354223628839,-4,2,5,1,-9,11,6,-1
1512354223629839,-4,-11,-25,-7,15,-10,-7,-10
1512354223629839,-1,9,24,4,-39,12,7,-3
1512354223643839,2,-3,-24,-10,-16,-6,-4,6
1512354223643839,0,-5,-9,2,6,3,-1,-4
1512354223643839,5,11,20,3,30,-2,0,6
1512354223643839,-4,1,-3,-22,-71,-10,-9,-13
1512354223666839,-4,-5,-4,-5,8,11,-5,-6
1512354223666839,0,6,41,-3,-25,-43,4,10
1512354223667839,-1,-7,-43,3,4,30,-2,-15
1512354223667839,1,-3,-8,-1,5,20,8,19
1512354223688839,4,13,30,-3,-24,-14,-5,9
1512354223688839,-2,5,-10,-6,-48,-14,-6,-9
1512354223689839,-4,-18,6,12,-3,-12,-2,-2
1512354223689839,1,0,-28,-7,5,1,9,8
1512354223703839,-3,-4,9,-7,0,10,0,-19
1512354223703839,1,4,9,1,17,27,-2,11
1512354223704839,3,4,13,3,-5,-7,7,4
1512354223704839,1,-6,-10,-1,6,5,-4,-5
1512354223726839,-5,2,8,3,1,18,3,-17
1512354223726839,2,-4,-20,-12,-6,6,3,12
1512354223727839,-4,7,5,-1,-10,-15,-2,4
1512354223727839,1,-5,7,5,28,3,0,3
1512354223748839,-4,-7,-11,-4,-8,0,-7,-15
1512354223748839,-5,-3,0,28,38,-2,-1,-13
1512354223749839,6,4,12,-17,-52,-9,6,30
1512354223749839,-2,3,3,4,-6,-20,1,3
1512354223763839,-3,-6,-28,8,16,-4,-8,-8
1512354223763839,0,1,-7,-14,1,20,-3,-8
1512354223763839,2,1,4,0,10,1,0,6
1512354223763839,-4,-6,-5,3,-14,-15,-12,-18
1512354223786839,1,3,10,-2,8,4,8,3
1512354223786839,-1,2,-4,12,18,-15,-3,1
1512354223787839,0,0,-19,-13,-5,7,-5,-16
1512354223787839,3,-9,5,11,26,-9,2,35
1512354223808839,-4,-7,-16,3,-10,12,2,-13
1512354223808839,5,14,32,0,6,-9,7,20
1512354223809839,-3,-9,-1,2,2,8,1,-4
1512354223809839,0,6,-20,-5,24,5,-2,-14
1512354223823839,-5,-7,18,4,-46,-26,-5,-5
1512354223823839,4,-2,-5,4,47,61,7,-7
1512354223823839,-3,-1,-8,-8,-17,-4,1,9
1512354223823839,-4,-2,-14,-8,5,-8,0,-15
1512354223846839,4,11,20,2,-10,-10,-7,-14
1512354223846839,2,2,18,-1,-5,-10,4,11
1512354223847839,0,-12,-39,9,35,9,-1,1
1512354223847839,-5,-7,-2,-6,-16,-3,-6,-11
1512354223868839,-3,-4,3,-17,-20,-8,7,13
1512354223868839,-3,-7,-19,-2,0,-12,-6,-9
1512354223869839,-4,10,32,8,23,15,-3,-16
1512354223869839,-4,-13,-35,-21,-60,2,7,21
1512354223883839,7,7,6,31,115,14,4,14
1512354223883839,-2,-6,0,-50,-69,-22,-6,-6
1512354223883839,-3,-3,5,18,-3,-10,-2,2
1512354223883839,0,9,10,9,24,3,-7,-13
1512354223906839,4,3,0,16,16,-6,-2,5
1512354223906839,3,1,11,-16,-47,-3,4,7
1512354223907839,-9,-10,-13,-26,-38,8,1,0
1512354223907839,2,0,-2,17,44,-11,-8,-4
1512354223928839,2,-4,-11,0,-11,2,1,5
1512354223928839,-2,-1,-9,16,33,-19,-4,-6
1512354223929839,2,8,12,0,11,-4,1,-1
1512354223929839,6,12,34,4,-6,5,0,-2
1512354223943839,-14,-20,-37,-30,-33,-6,-7,-9
1512354223943839,1,8,3,14,25,32,10,2
1512354223943839,-9,-11,-17,-2,2,-14,-10,-6
1512354223943839,13,4,7,2,14,1,3,4
1512354223966839,5,15,30,6,-3,-9,-2,-3
1512354223966839,-3,0,20,23,62,0,-1,-4
1512354223967839,5,5,-15,1,-18,-10,-6,-2
1512354223967839,-5,0,-7,0,30,2,9,15
1512354223988839,1,-5,-2,-10,-27,-4,-6,-3
1512354223988839,0,12,32,9,-2,3,-1,-5
1512354223989839,1,-20,-39,-8,12,2,4,0
1512354223989839,-7,0,10,15,23,-7,-7,-8
1512354224002839,-1,-5,-33,-19,-45,11,-1,-5
1512354224002839,-6,-5,10,10,10,5,3,0
1512354224010839,1,18,20,0,-4,-16,-7,0
1512354224010839,-4,-23,-46,-27,-66,2,1,-7
1512354224026839,3,9,23,2,36,2,3,10
1512354224026839,-2,-7,-16,-18,-33,-19,-4,1
1512354224027839,2,14,45,12,16,2,3,0
1512354224027839,-3,-18,-40,-14,-14,2,-3,-4
1512354224048839,-8,-1,8,13,12,1,-7,-19
1512354224048839,6,-1,-18,15,-1,-9,1,7
1512354224049839,4,13,18,-13,-39,5,6,5
1512354224049839,-4,-8,11,7,25,6,2,-3
1512354224062839,-2,-5,-21,-1,-9,-10,-6,-2
1512354224062839,-6,-2,17,-5,-13,-9,-5,-10
1512354224070839,-2,-7,-32,17,19,10,5,0
1512354224070839,-1,4,19,-2,35,-3,-2,5
1512354224086839,4,-2,-10,5,19,-4,-1,-1
1512354224086839,2,0,-11,-12,-28,-11,-6,-5
1512354224087839,-5,-2,1,-4,3,-5,-3,-14
1512354224087839,-4,2,16,-7,-48,-16,1,13
1512354224108839,-2,1,11,16,27,7,-3,-3
1512354224108839,1,-4,-5,-20,13,24,10,17
1512354224109839,1,-6,-6,-2,-23,-18,-5,-8
1512354224109839,3,9,18,2,0,10,2,-2
1512354224122839,3,8,-9,-14,-15,-1,2,4
1512354224122839,-1,-7,-21,15,-8,1,-2,-2
1512354224130839,-1,5,39,18,56,10,4,-6
1512354224130839,4,8,-6,7,-8,0,-2,0
1512354224146839,1,-1,1,-11,-6,-1,1,0
1512354224146839,1,-4,-24,10,71,12,2,-7
1512354224147839,-3,-7,-3,-17,-35,-4,0,18
1512354224147839,-2,5,19,36,36,2,0,-15
1512354224168839,7,23,45,0,-6,0,-1,4
1512354224168839,-5,-34,-54,-26,-36,-9,1,-1
1512354224170839,-1,-9,-14,3,8,-4,-2,-2
1512354224170839,-6,-5,-4,-12,-6,18,7,-9
1512354224182839,-11,-1,-9,-5,4,-7,-9,-13
1512354224182839,2,12,26,11,0,-8,-6,0
1512354224191839,3,2,18,22,8,2,-2,-2
1512354224191839,9,0,-30,-21,-29,-5,-3,1
1512354224206839,-6,-10,-31,-16,8,-3,-1,-12
1512354224206839,-3,-5,-5,-10,0,0,0,12
1512354224207839,-12,-12,-10,-14,-17,-7,-1,-2
1512354224207839,11,14,20,8,-4,2,-3,-1
1512354224236839,8,3,11,4,1,-7,0,9
1512354224236839,-10,1,15,0,-22,4,4,-6
1512354224237839,3,0,-19,-2,5,5,9,7
1512354224237839,-3,0,5,-21,-5,-17,-7,-9
1512354224242839,-6,-5,11,7,1,3,-6,-5
1512354224242839,3,-5,-9,-1,7,-9,0,1
1512354224251839,-6,-8,-12,-1,3,15,3,-8
1512354224251839,-9,10,24,1,-22,-9,-11,-17
1512354224266839,9,-14,-38,2,29,5,8,27
1512354224266839,0,12,46,5,-30,3,-3,-14
1512354224267839,3,-1,-38,-21,15,5,3,4
1512354224267839,-6,-3,-21,4,-6,-14,-7,0
1512354224288839,3,-3,2,17,66,18,2,-5
1512354224288839,1,4,0,-1,-5,-11,2,-4
1512354224290839,7,15,34,-7,-12,-9,-7,3
1512354224290839,-4,-11,-9,8,-3,0,3,3
1512354224302839,-7,-4,4,2,-13,-5,-1,-5
1512354224302839,-11,-3,0,5,6,3,-9,-23
1512354224311839,8,2,-1,-6,-13,-7,7,28
1512354224311839,0,5,20,-9,16,-1,-7,-27
1512354224326839,5,3,-10,-9,-49,-3,9,39
1512354224326839,-3,-9,-23,-3,12,-1,3,-2
1512354224327839,-5,4,13,16,10,-5,-10,-19
1512354224327839,-2,-5,3,2,1,15,7,1
1512354224348839,1,9,29,2,0,0,-2,-2
1512354224348839,2,-2,-44,-6,-9,-1,0,4
1512354224350839,0,3,8,-6,-14,-9,-3,-7
1512354224350839,1,-6,-1,-17,21,12,5,10
1512354224362839,-4,4,43,-14,-40,-17,-7,-13
1512354224362839,0,4,-25,0,0,2,3,7
1512354224371839,-12,-15,-8,-2,8,-2,-11,-41
1512354224371839,17,-4,-33,-14,-5,-4,-1,41
1512354224386839,-10,1,18,20,11,8,7,10
1512354224386839,8,3,10,-8,4,-11,-11,-2
1512354224387839,2,15,32,31,14,4,0,-6
1512354224387839,-11,2,30,-2,-13,15,5,-7
1512354224408839,4,-18,-83,-17,-20,-11,-6,-17
1512354224408839,0,17,52,21,8,-4,-9,-3
1512354224410839,16,-9,-45,-23,3,22,27,40
1512354224410839,-18,-16,-4,1,0,-11,-7,-29
1512354224431839,25,22,27,25,10,19,13,24
1512354224431839,-1,9,16,-13,-6,5,3,-10
1512354224432839,-15,-14,-22,2,26,2,-9,-26
1512354224432839,12,4,-6,1,16,-3,4,26
1512354224446839,-11,-9,-3,-21,-36,-2,5,-14
1512354224446839,1,-17,-37,6,14,-1,-1,4
1512354224447839,-5,4,19,-1,-33,0,-4,0
1512354224447839,5,2,-6,9,14,0,6,1
1512354224468839,-3,5,28,6,0,-5,-2,-1
1512354224468839,-6,-1,-14,4,-35,-3,-4,-12
1512354224470839,-9,-24,-16,-18,-45,-28,-16,-6
1512354224470839,5,11,15,-12,-29,0,-2,-9
1512354224491839,1,-11,-13,-22,4,-9,2,19
1512354224491839,-4,4,3,24,5,-3,-2,-3
1512354224492839,-6,4,-9,-19,-30,1,2,1
1512354224492839,0,0,-6,15,4,-6,-8,-29
1512354224505839,-7,-6,4,8,23,9,9,32
1512354224505839,3,0,14,-8,7,0,0,-8
1512354224512839,16,14,10,24,37,-8,2,13
1512354224512839,-14,-10,-23,-7,18,2,-2,-10
1512354224527839,1,-4,-8,5,-29,14,3,-10
1512354224527839,-7,-5,-1,-14,12,11,-1,-9
1512354224536839,8,10,31,12,7,1,8,36
1512354224536839,3,9,9,0,-12,-6,4,3
1512354224551839,-3,-11,-28,4,26,-10,-4,-12
1512354224551839,-4,5,16,3,-18,-22,-17,-14
1512354224552839,-1,-5,-6,0,26,15,2,-6
1512354224552839,7,0,-9,4,7,-3,1,22
1512354224565839,-12,0,3,3,-20,-8,-5,-19
1512354224565839,4,11,37,10,33,11,5,-2
1512354224572839,6,-1,-22,-4,6,-13,-2,6
1512354224572839,-9,-8,-26,2,-7,18,5,-6
1512354224588839,-3,-5,4,-10,-9,-3,-11,-15
1512354224588839,9,-7,-3,4,-7,0,12,38
1512354224590839,-11,-6,-1,-26,-44,-1,-9,-29
1512354224590839,12,19,32,4,9,0,4,32
1512354224611839,-4,-14,-33,10,48,8,-1,-11
1512354224611839,-6,-3,2,-13,-8,9,0,3
1512354224612839,3,0,18,16,29,0,5,17
1512354224612839,-6,-7,-12,5,0,-6,-5,-13
1512354224625839,-3,-9,-18,-4,-11,1,3,4
1512354224625839,-1,5,4,-9,-3,-17,-10,-15
1512354224632839,1,-3,-1,3,-11,0,2,3
1512354224632839,-12,-23,0,17,8,5,7,2
1512354224648839,6,14,4,-3,0,-6,-7,-10
1512354224648839,9,-4,-23,-12,14,9,10,26
1512354224650839,2,10,17,-6,15,-2,1,-4
1512354224650839,-1,3,2,-4,-10,-5,-1,3
1512354224671839,-2,-10,7,-1,34,7,2,-10
1512354224671839,-2,3,2,9,8,-4,-2,-4
1512354224672839,-4,-18,-22,6,15,11,-1,0
1512354224672839,2,9,17,2,-8,-5,13,16
1512354224685839,-4,1,-18,0,1,-1,-9,-18
1512354224685839,2,6,28,1,-6,-8,1,11
1512354224692839,-1,-4,-10,4,-4,-1,-2,3
1512354224692839,-5,-12,-20,-4,16,-14,-11,-19
1512354224708839,-3,8,48,10,-5,12,2,0
1512354224708839,5,-16,-53,-24,-15,16,6,12
1512354224710839,3,10,10,1,-12,-3,-3,9
1512354224710839,-3,-2,9,-1,7,1,-8,-4
1512354224731839,2,16,15,0,-65,-32,-1,-6
1512354224731839,-8,-23,-23,8,51,34,8,1
1512354224732839,-10,-4,3,-16,-1,-7,-14,-23
1512354224732839,11,-2,-19,-6,3,17,6,18
1512354224745839,-1,6,15,-11,-17,6,3,-2
1512354224745839,-2,3,-6,11,-10,-6,0,-6
1512354224752839,-3,6,16,-5,-25,-3,1,-2
1512354224752839,0,-8,-24,-1,15,1,-4,-4
1512354224768839,-2,6,9,6,26,-2,-6,-6
1512354224768839,0,6,-2,4,-35,-6,-2,-2
1512354224770839,-4,-16,-25,4,26,10,3,1
1512354224770839,-1,1,8,-20,-35,7,-3,-18
1512354224791839,-3,0,-1,3,29,5,2,18
1512354224791839,5,13,10,6,-13,-3,2,13
1512354224792839,3,-4,-3,-4,24,-10,-5,-12
1512354224792839,-4,1,-2,-1,-15,1,2,13
1512354224813839,-1,3,11,0,6,-3,-2,-1
1512354224813839,1,-8,-4,0,-2,5,-1,2
1512354224815839,6,6,5,-1,-9,0,4,16
1512354224815839,2,7,7,0,-5,-13,-4,-3
1512354224828839,-5,-13,-19,-7,-7,1,1,-6
1512354224828839,2,2,2,-4,-2,-7,-3,3
1512354224830839,2,7,17,11,-20,-1,2,-1
1512354224830839,-5,-4,-24,-5,-26,-1,-8,-14
1512354224851839,2,-4,-4,1,18,3,0,-7
1512354224851839,-8,-9,-14,-6,-8,-14,-5,0
1512354224852839,3,8,17,1,-13,0,-3,-16
1512354224852839,0,5,22,9,20,4,13,30
1512354224864839,4,2,-12,-13,-16,-1,-4,-12
1512354224864839,-2,-7,-14,-7,-18,1,2,1
1512354224873839,-2,8,36,0,5,0,1,-3
1512354224873839,-2,-11,-47,-2,25,-1,1,1
1512354224888839,-3,-6,-13,3,-21,-18,-1,7
1512354224888839,2,3,20,-4,18,-16,-5,-1
1512354224890839,0,3,-3,-11,-33,-7,-2,-1
1512354224890839,-3,-5,22,8,-46,2,-3,-13
1512354224911839,2,3,-21,-14,10,7,2,8
1512354224911839,-2,1,34,12,20,0,-2,-11
1512354224912839,-2,-4,-16,20,25,14,9,12
1512354224912839,0,14,3,-2,1,-18,-12,-17
1512354224924839,-1,-18,-24,-26,-62,8,4,8
1512354224924839,3,5,8,14,46,-4,5,8
1512354224933839,1,-6,-18,-7,-13,-1,2,11
1512354224933839,2,5,23,8,5,-3,-6,-12
1512354224948839,2,7,14,-2,-7,3,3,9
1512354224948839,-11,2,5,-3,-2,-20,-12,-36
1512354224950839,-1,-19,-34,-2,4,8,8,19
1512354224950839,-5,3,3,-4,9,-5,-2,-11
1512354224971839,7,2,7,0,14,-11,-6,5
1512354224971839,-2,-8,-19,-7,-12,12,2,6
1512354224972839,-11,-4,2,-8,8,0,0,-26
1512354224972839,8,5,17,-6,-5,-5,0,22
1512354224984839,0,-2,-13,3,14,0,5,4
1512354224984839,1,0,-7,-1,-20,1,-7,-12
1512354224993839,-2,1,-3,-2,24,13,3,11
1512354224993839,-8,-7,-2,-3,5,-6,6,-8
1512354225008839,2,1,13,21,39,21,5,2
1512354225008839,3,5,9,1,-2,-17,0,13
1512354225010839,-6,-4,7,-10,-12,-11,-9,-23
1512354225010839,1,-7,-15,-3,-5,11,2,5
1512354225031839,0,-8,-8,1,10,-13,-2,7
1512354225031839,-4,-2,-3,2,-13,1,-2,-10
1512354225032839,5,16,28,-9,-17,4,-2,-3
1512354225032839,-4,-3,-23,-10,-13,-2,-3,-7
1512354225044839,-10,-13,-1,9,-12,-11,-10,-20
1512354225044839,2,-4,-1,-5,-9,3,2,13
1512354225053839,4,5,-1,7,13,7,-1,-5
1512354225053839,0,0,12,-2,2,-6,-4,-8
1512354225068839,1,4,-2,0,2,0,-5,-10
1512354225068839,-4,-3,-6,-2,-2,-12,-3,-5
1512354225070839,-1,-1,-2,0,5,7,1,11
1512354225070839,2,3,4,-3,-11,-9,-6,-16
1512354225091839,-4,0,2,5,35,8,-15,-15
1512354225091839,11,1,-4,12,19,11,22,49
1512354225092839,5,2,-5,-15,-21,-20,1,1
1512354225092839,0,7,14,10,23,9,1,-1
1512354225104839,-2,3,-18,7,-11,-1,0,-4
1512354225104839,-6,-5,0,-14,-8,4,-9,-21
1512354225113839,0,2,-1,10,14,0,6,13
1512354225113839,4,3,11,-2,1,9,-3,-3
1512354225128839,1,19,32,-2,1,-7,3,-2
1512354225128839,-7,-20,-33,2,-11,-9,5,0
1512354225130839,-3,-11,-19,6,12,2,-5,-18
1512354225130839,-2,0,6,-3,1,-14,-2,-2
1512354225151839,-2,1,1,-2,4,22,6,7
1512354225151839,1,3,8,4,-10,-2,-3,-3
1512354225152839,0,-1,-4,-10,-18,-12,-12,-5
1512354225152839,-2,-10,-13,2,9,9,5,8
1512354225164839,2,-3,-3,-3,-13,-16,1,-3
1512354225164839,-3,7,23,8,15,12,-2,-5
1512354225173839,-6,-11,-9,8,18,-2,-4,-12
1512354225173839,3,-2,-7,-4,-9,0,3,9
1512354225188839,2,3,24,-5,-7,6,1,-2
1512354225188839,4,17,16,-19,-5,5,4,-4
1512354225190839,-8,-21,-62,-4,-47,-9,-5,2
1512354225190839,1,2,14,4,7,6,2,1
1512354225211839,0,4,-4,-1,0,1,4,2
1512354225211839,-3,-3,-1,-2,8,-5,-7,-13
1512354225212839,-2,5,19,0,3,3,-6,-10
1512354225212839,-4,-4,-13,-7,-12,5,0,-2
1512354225224839,5,11,13,6,-2,-12,-2,-2
1512354225224839,-5,-14,-15,-7,-6,-3,-5,-3
1512354225233839,5,9,10,22,35,13,8,10
1512354225233839,0,-4,-2,-7,-23,-3,-1,5
1512354225248839,-4,-3,1,0,2,-10,-9,-11
1512354225248839,2,5,1,-2,-20,2,4,5
1512354225254839,3,1,9,6,7,-6,3,2
1512354225254839,-1,2,0,1,8,-8,-9,-12
1512354225271839,-4,-16,-12,-3,4,8,5,23
1512354225271839,-7,-5,-9,4,-12,-4,-10,-30
1512354225272839,11,11,11,-1,-17,-3,11,41
1512354225272839,-2,10,22,-14,4,-1,1,-2
1512354225284839,-5,-6,-19,-2,-10,2,-1,-19
1512354225284839,-7,-18,-39,-5,24,-7,-4,-5
1512354225293839,-9,2,15,-5,-17,-12,-8,-37
1512354225293839,1,-6,-12,-6,-21,-2,-2,9
1512354225308839,2,-1,8,17,51,2,3,10
1512354225308839,-1,-2,-8,-14,-26,16,6,-6
1512354225314839,-4,-2,-6,-6,-15,-6,-3,1
1512354225314839,-1,2,1,1,9,2,2,-8
1512354225331839,0,1,6,5,3,-1,-5,2
1512354225331839,-2,-3,-1,2,4,-5,-10,-14
1512354225332839,-1,1,9,4,5,5,10,17
1512354225332839,5,2,-2,11,-15,-7,4,8
1512354225353839,-1,2,13,-5,3,-6,3,1
1512354225353839,-1,-5,-18,0,0,9,1,4
1512354225355839,1,2,3,-2,8,-9,-2,-5
1512354225355839,-9,-6,0,17,28,2,-14,-26
1512354225368839,8,5,-3,-2,-23,10,17,45
1512354225368839,2,6,13,-2,-6,-13,-2,6
1512354225374839,0,7,9,14,22,6,-7,-11
1512354225374839,-2,-7,-11,-4,-1,-5,1,6
1512354225391839,-2,-4,-13,-9,-5,4,-11,-19
1512354225391839,2,7,16,2,12,14,2,9
1512354225392839,-3,3,28,0,-20,-16,-6,-3
1512354225392839,1,-4,-23,8,28,17,2,-8
1512354225413839,-2,0,-28,-16,-27,-24,-13,5
1512354225413839,5,6,24,13,21,-6,-2,-8
1512354225415839,2,-10,-16,-6,1,6,8,23
1512354225415839,0,-5,-5,-14,-14,-8,2,14
1512354225428839,-5,-1,11,1,-18,-1,0,-14
1512354225428839,7,12,12,0,9,3,3,9
1512354225434839,-4,-28,-52,-12,-4,1,-1,-5
1512354225434839,0,7,16,12,37,-4,-1,5
1512354225451839,-1,-1,-11,-1,7,-12,-2,-7
1512354225451839,-2,3,7,1,11,1,-11,-27
1512354225452839,5,6,17,5,-19,14,24,52
1512354225452839,-1,-6,-27,-14,5,1,0,-2
1512354225473839,3,-4,9,3,7,9,-1,1
1512354225473839,-2,-1,9,0,0,9,-5,-14
1512354225475839,1,2,-21,0,-1,-6,-6,-5
1512354225475839,-6,-3,2,-12,-46,24,1,-16
1512354225488839,-6,-1,8,3,-6,0,3,9
1512354225488839,1,-1,0,-20,-51,-26,-3,1
1512354225494839,0,6,13,-13,-13,9,-5,-5
1512354225494839,4,6,-11,7,10,-13,2,12
1512354225511839,-5,-19,-22,-3,-31,-5,-2,-15
1512354225511839,2,3,0,4,27,-6,6,16
1512354225512839,-4,4,9,-8,-12,-14,-5,-17
1512354225512839,-7,8,30,4,7,1,-3,-23
1512354225533839,6,6,8,0,-10,10,6,15
1512354225533839,-2,-13,-22,4,0,-12,-1,-2
1512354225535839,-1,6,18,-6,-7,13,-2,-8
1512354225535839,-3,-5,-3,3,-30,-7,-2,7
1512354225548839,0,-2,-9,-19,-16,-8,-3,-8
1512354225548839,-2,-2,1,4,-26,5,10,22
1512354225554839,-3,-1,-3,-5,-10,-17,-9,-28
1512354225554839,-1,-2,-1,-2,-7,-3,0,7
1512354225571839,-10,-6,-6,-6,-14,-12,-19,-24
1512354225571839,2,7,10,8,28,28,12,16
1512354225572839,5,-8,-8,-14,-11,3,17,55
1512354225572839,-4,-1,-2,-3,12,-13,-4,-19
1512354225593839,0,2,14,-8,-42,18,1,4
1512354225593839,-1,-2,-16,-1,-7,-30,-10,-8
1512354225595839,-9,-4,2,-3,-10,25,-7,-22
1512354225595839,6,-6,-19,-3,7,1,10,22
1512354225607839,-2,3,12,2,15,-2,0,-17
1512354225607839,-1,3,9,17,-1,4,-3,3
1512354225616839,-3,-3,3,11,53,2,-9,-22
1512354225616839,-1,3,-7,-10,-31,4,-4,-6
1512354225631839,4,4,14,0,8,-5,-6,-1
1512354225631839,-5,-8,-37,-17,-24,-1,-1,-3
1512354225632839,-3,-10,8,5,-21,1,-1,2
1512354225632839,-1,-3,-5,-10,-16,2,1,2
1512354225653839,-2,-3,-11,7,10,-3,3,-1
1512354225653839,5,23,47,21,-9,21,-10,-4
1512354225655839,-4,-21,-50,-8,-14,-2,9,2
1512354225655839,-1,-1,7,2,-1,-12,-5,-4
1512354225667839,3,3,-6,-5,-7,4,12,15
1512354225667839,-1,0,20,-4,15,-17,-9,-15
1512354225676839,0,11,6,8,25,7,-3,-6
1512354225676839,0,-10,-17,13,28,-35,-5,-3
1512354225691839,-2,3,13,3,12,19,-6,-7
1512354225691839,3,-2,-5,-2,11,-2,12,19
1512354225692839,-5,2,2,11,19,1,-4,-24
1512354225692839,0,1,17,2,-10,-3,6,7
1512354225713839,0,2,2,0,23,-5,3,10
1512354225713839,-6,-3,-19,-2,9,-8,-8,-31
1512354225715839,0,-4,2,-4,-21,-18,-2,21
1512354225715839,1,7,29,10,21,18,0,3
1512354225727839,-4,-6,-32,-8,-53,-22,-15,-17
1512354225727839,4,-3,-2,2,44,18,23,34
1512354225736839,2,8,12,5,15,-17,-8,-22
1512354225736839,-2,2,11,4,-1,4,2,8
1512354225751839,-2,-3,-2,-5,-7,-3,-2,-2
1512354225751839,-6,-9,-9,-9,-18,-4,-3,-3
1512354225752839,-2,-1,-18,3,9,-24,-14,-19
1512354225752839,4,4,15,0,-15,30,10,23
1512354225773839,-4,-3,-2,2,16,9,-2,-22
1512354225773839,-2,-10,-16,-4,-14,10,9,25
1512354225775839,1,-3,5,6,16,1,-3,-6
1512354225775839,-3,0,-4,1,-6,-5,-7,-17
1512354225787839,3,-3,1,3,21,11,7,6
1512354225787839,-7,-1,6,-6,-24,-3,-16,-22
1512354225796839,7,6,6,-4,-7,3,13,52
1512354225796839,0,2,-8,-3,5,9,-8,-28
1512354225811839,2,0,11,4,6,-13,9,21
1512354225811839,7,-2,-17,-5,1,11,4,14
1512354225812839,-6,3,6,0,12,-1,-4,-18
1512354225812839,-5,-5,1,1,-12,-15,-7,6
1512354225833839,-4,-3,-3,-1,-10,18,5,3
1512354225833839,4,1,2,-8,-3,-7,0,21
1512354225835839,3,8,29,-3,8,11,6,-3
1512354225835839,-2,-10,-20,-8,11,-5,2,3
1512354225847839,-2,-3,-22,15,11,5,-3,-10
1512354225847839,-3,-3,8,0,12,-2,6,0
