timestamp,emg1,emg2,emg3,emg4,emg5,emg6,emg7,emg8
1511884143546085,0,0,-1,0,-1,-1,2,0
1511884143546085,-1,1,-1,-1,-1,0,-3,-3
1511884143547088,-1,-1,-1,1,0,0,3,2
1511884143547088,0,-1,-3,-6,3,0,-1,-2
1511884143548126,0,0,-1,-1,-1,-2,-2,1
1511884143548126,0,-1,-2,-2,-1,0,1,1
1511884143549099,-1,1,2,-1,-1,0,1,-2
1511884143549099,-1,-3,-2,2,-1,2,-1,1
1511884143550095,1,-1,0,-2,0,-1,1,-1
1511884143550095,1,-1,-1,0,0,-1,1,0
1511884143563672,-1,0,0,1,-2,-1,-2,-1
1511884143563672,-1,0,0,1,0,-1,2,2
1511884143571770,-2,0,1,-1,-2,0,-1,-2
1511884143571770,0,-1,0,-1,-1,-2,-1,-1
1511884143579791,-1,-1,-1,2,-4,-4,-1,-2
1511884143579791,-1,1,2,1,-1,-1,-3,-2
1511884143592825,-2,0,-2,0,-2,1,-1,1
1511884143592825,-1,1,1,0,-1,-1,-1,-1
1511884143608871,1,-1,0,-1,-1,-1,-3,0
1511884143608871,0,-1,0,-1,-4,-1,1,1
1511884143609870,-2,-1,1,-1,1,1,1,0
1511884143609870,-1,0,-4,1,-2,-1,-4,0
1511884143657115,-1,-2,-2,-2,-1,0,0,0
1511884143657115,0,0,0,-1,-1,0,1,2
1511884143657602,0,-1,-2,-3,0,-1,-1,-2
1511884143657602,0,-1,1,1,1,-1,-2,-1
1511884143658700,-1,-2,1,1,-2,-2,-3,-3
1511884143658700,1,0,-2,0,0,0,3,1
1511884143661615,-1,1,-1,0,-1,1,-2,0
1511884143661615,-2,-1,-2,-1,-1,-2,1,1
1511884143668634,0,-1,-1,-1,-1,-2,-3,0
1511884143668634,-1,-1,-2,-1,-1,-1,-3,-1
1511884143676792,-1,-1,0,0,-1,1,1,0
1511884143676792,0,-1,-1,0,-1,-3,-2,-2
1511884143682806,0,1,-1,-1,-1,-1,1,0
1511884143682806,0,-1,0,-1,-1,1,-3,-1
1511884143698849,-1,-4,-4,0,1,1,1,1
1511884143698849,-2,-1,-1,-2,-3,0,-1,-2
1511884143705865,0,-2,0,-2,1,-1,1,-1
1511884143705865,-1,1,0,0,0,-4,-2,-1
1511884143720905,-2,-1,0,-1,-1,-1,-1,-2
1511884143720905,0,-1,-1,1,-1,-2,-1,-1
1511884143729950,-1,-1,-2,-1,-1,0,-1,0
1511884143729950,-2,-1,-1,0,-2,-1,0,0
1511884143743993,-2,1,1,-1,-1,-2,-1,0
1511884143743993,-1,1,1,0,-1,-1,-3,-1
1511884143745973,0,1,-3,-1,0,1,1,0
1511884143745973,0,-1,0,0,1,-1,-1,-2
1511884143767029,-1,-1,0,-1,-2,-2,-3,-3
1511884143767029,0,1,-2,-4,0,0,0,-1
1511884143769065,0,-1,1,0,-1,-3,-1,-1
1511884143769065,-2,-2,-1,-2,1,-1,0,-2
1511884143789120,2,0,-3,-2,3,-1,-2,-1
1511884143789120,1,-1,-3,0,-1,0,2,0
1511884143791139,1,-1,-1,2,1,1,0,0
1511884143791139,0,-1,-1,-4,0,1,-2,0
1511884143804190,0,0,3,0,-3,-4,-2,0
1511884143804190,-2,-1,1,-1,-1,1,-1,-2
1511884143806166,0,-1,-1,1,-2,-2,1,-1
1511884143806166,-1,-2,-1,2,-1,0,-1,-2
1511884143827245,0,0,-1,0,-2,-3,-1,0
1511884143827245,1,0,0,0,0,-2,-2,1
1511884143828223,-2,-2,-1,-1,-2,-1,-5,-3
1511884143828223,-1,-1,2,0,0,0,6,0
1511884143849279,0,-1,-1,-1,0,2,1,1
1511884143849279,-2,-1,-1,-1,-2,-1,-2,0
1511884143851285,0,-1,-4,-3,0,-1,-3,3
1511884143851285,1,1,-6,-1,0,-1,-2,2
1511884143864850,-1,0,-2,-2,-1,0,-1,-2
1511884143864850,1,-2,1,1,-1,1,2,1
1511884143866354,0,0,1,4,0,1,1,-5
1511884143866354,-1,0,-1,2,0,-1,-1,-1
1511884143886445,1,0,-1,-1,-3,-2,1,1
1511884143886445,-2,0,0,-2,3,2,1,-1
1511884143888418,0,-1,-1,-5,-2,-2,-3,0
1511884143888418,-1,1,1,0,-2,-2,-1,-1
1511884143909501,-2,-2,0,1,-3,-2,-4,-1
1511884143909501,-1,-1,0,1,0,-2,-1,-2
1511884143911507,-2,-2,0,1,0,0,1,0
1511884143911507,-1,-3,-1,-3,-2,-2,-1,-3
1511884143923539,-2,-1,-1,-2,2,1,1,-2
1511884143923539,0,0,-3,1,-1,5,4,0
1511884143930530,-3,0,1,0,-6,-9,-11,-7
1511884143930530,0,0,0,-2,-2,-4,2,2
1511884143946598,-2,1,-1,1,0,3,-1,-1
1511884143946598,-2,-1,1,1,3,4,-2,-2
1511884143948579,0,2,-1,-3,-5,1,-2,3
1511884143948579,0,0,0,0,-1,-8,4,1
1511884143969676,-3,-9,-5,-5,-16,-6,-2,-3
1511884143969676,1,3,1,2,14,2,-1,-2
1511884143971154,-3,-8,-6,-4,-5,1,0,-2
1511884143971154,3,13,7,3,5,3,-4,-1
1511884143983668,2,-4,-2,-2,-22,3,9,3
1511884143983668,-2,-2,-1,4,9,-10,-8,-3
1511884143990690,-2,0,-1,-6,-40,-8,-4,-2
1511884143990690,-3,-4,-6,-3,40,-1,-6,-3
1511884144006702,1,-1,-1,1,-2,2,0,0
1511884144006702,0,-3,-1,-3,-12,0,2,1
1511884144008707,2,7,3,8,8,-1,4,1
1511884144008707,-4,-5,-2,4,0,2,-2,-3
1511884144029787,1,2,-3,-9,-2,-5,-3,-2
1511884144029787,3,-7,-6,2,25,1,3,4
1511884144030766,-4,6,2,-9,-23,-2,-3,-4
1511884144030766,2,-6,-3,2,10,7,10,8
1511884144042826,1,9,5,3,-9,-4,-2,2
1511884144042826,-7,4,5,3,-8,-3,-4,-8
1511884144051833,10,-4,-4,-3,27,8,9,9
1511884144051833,-3,-9,-5,-3,-20,3,-3,-2
1511884144067398,2,0,4,7,8,-3,-4,-1
1511884144067398,-5,-2,-3,-12,-6,3,2,-2
1511884144068900,2,5,5,13,16,0,-4,0
1511884144068900,-6,-3,-8,-14,5,-10,-7,-3
1511884144089798,1,2,-4,-7,17,7,10,0
1511884144089798,0,-4,0,7,-13,-5,-6,-3
1511884144090800,-3,-6,-3,-10,1,4,5,6
1511884144090800,5,1,2,4,-14,2,-1,0
1511884144102832,-3,2,2,4,11,-1,-4,-8
1511884144102832,-4,-4,1,-4,-9,-3,-3,2
1511884144111857,-5,-6,-3,21,14,2,9,-5
1511884144111857,14,6,0,-19,-10,-8,-10,0
1511884144126925,-14,-6,-3,2,-48,-3,0,-26
1511884144126925,3,8,-3,-1,16,-6,-20,15
1511884144128903,13,-7,-4,11,44,15,27,30
1511884144128903,-10,4,-1,-37,-87,-9,9,1
1511884144148979,3,-7,-2,-8,32,6,-7,-15
1511884144148979,-2,0,0,32,31,-5,1,-7
1511884144151008,-16,-3,-12,-33,-45,-6,-23,-18
1511884144151008,3,-2,1,14,2,3,1,-17
1511884144163521,4,1,5,21,82,0,2,33
1511884144163521,-1,-6,-5,-11,-58,8,1,-11
1511884144171542,-4,9,4,-9,-6,-17,-17,-3
1511884144171542,-10,-5,-2,7,33,-2,11,-12
1511884144186810,0,0,-3,-8,-10,0,-17,-10
1511884144186810,11,16,11,-5,-24,-5,5,8
1511884144188789,3,-2,4,27,5,6,7,1
1511884144188789,-14,-19,-11,-14,18,3,-8,-5
1511884144209874,-8,-7,-1,26,16,8,-6,2
1511884144209874,10,4,3,-10,26,-10,11,19
1511884144210847,-8,-3,-2,-2,-28,-6,-4,-18
1511884144210847,2,4,5,8,16,5,-4,4
1511884144222906,6,11,2,4,-15,2,10,11
1511884144222906,-8,-15,-10,0,-2,-11,-11,-12
1511884144237920,-3,-2,-2,-18,6,-1,-1,-4
1511884144237920,3,3,5,23,20,0,-5,7
1511884144246970,-4,-2,-6,-10,13,6,2,0
1511884144246970,1,1,3,-16,-11,5,7,-3
1511884144248972,-1,-12,-2,4,22,3,-5,0
1511884144248972,-1,5,-3,-7,-61,-17,-6,2
1511884144269529,1,1,2,3,-22,-7,3,-1
1511884144269529,-1,2,1,2,4,-1,7,3
1511884144271535,0,4,-1,-8,-3,3,-3,-1
1511884144271535,0,-2,2,16,10,6,-4,0
1511884144283620,7,10,-5,-20,-11,-8,10,6
1511884144283620,-3,0,-2,8,0,4,-2,-6
1511884144292606,-4,-15,-9,-26,-4,-1,-4,-1
1511884144292606,3,4,2,-7,1,-3,-4,3
1511884144306638,-2,-5,4,18,-6,-4,-7,-5
1511884144306638,1,8,0,2,4,4,2,-1
1511884144308643,3,3,9,36,10,17,12,-1
1511884144308643,-1,1,-5,-20,16,12,8,1
1511884144329726,2,4,7,12,-28,-47,-33,-1
1511884144329726,-8,-10,-15,-41,-21,3,1,-6
1511884144330729,5,4,4,40,40,-5,-5,1
1511884144330729,0,-4,0,-22,2,14,-2,-5
1511884144342761,0,-3,-12,-40,-1,17,21,4
1511884144342761,2,6,27,65,4,-17,-5,3
1511884144351774,-3,-12,-17,-40,-21,-14,5,1
1511884144351774,4,12,22,100,61,7,-9,0
1511884144367329,-14,-15,-40,-106,-46,10,-2,-5
1511884144367329,2,6,16,59,18,7,-3,-1
1511884144368834,9,12,54,109,48,30,30,0
1511884144368834,-8,-23,-49,-92,-65,-45,-34,10
1511884144389895,8,22,8,110,27,-29,18,9
1511884144389895,1,33,-5,-56,-29,21,-2,-4
1511884144390898,-19,-58,-22,-29,22,22,-25,-17
1511884144390898,9,26,19,91,-47,14,5,0
1511884144402957,15,-14,64,124,3,-84,18,19
1511884144402957,-20,-35,-112,-115,-90,18,-18,-9
1511884144411954,6,91,47,118,79,49,21,-6
1511884144411954,-3,-59,19,86,-32,-68,-3,3
1511884144427021,-14,-22,-17,46,30,103,-13,-21
1511884144427021,9,15,36,71,74,-30,10,14
1511884144429026,0,-6,-29,-85,-128,-37,2,3
1511884144429026,-3,15,-11,-52,35,42,10,7
1511884144449081,7,23,14,-39,-14,-49,-18,4
1511884144449081,-3,-23,2,-12,24,-14,-17,-8
1511884144451066,-8,31,-8,-24,2,11,-29,-67
1511884144451066,6,-25,4,-39,37,-16,23,62
1511884144463598,-4,-15,-17,-21,-8,56,17,-23
1511884144463598,1,6,11,3,22,36,-1,-2
1511884144471754,6,-14,-12,-37,-32,-50,1,34
1511884144471754,4,26,14,15,7,15,20,-14
1511884144486080,-12,-10,-12,-36,-6,-9,-18,-14
1511884144486080,-8,-19,-5,-10,-13,1,-15,-36
1511884144493088,8,10,8,15,3,-30,-6,35
1511884144493088,-2,0,-4,-12,1,12,7,-7
1511884144509017,3,1,-5,-15,5,12,4,29
1511884144509017,5,12,17,25,4,-20,5,0
1511884144510020,-6,-19,-8,-7,-10,1,-7,-10
1511884144510020,-8,8,-1,-5,21,11,-10,-35
1511884144531075,4,9,-2,-29,-25,-8,-2,7
1511884144531075,3,-13,3,17,8,-4,7,17
1511884144532075,5,5,2,-4,42,8,10,12
1511884144532075,-4,-13,-22,-19,-43,3,-3,-15
1511884144546117,-5,8,12,22,36,-2,-2,-7
1511884144546117,0,-7,-10,-11,2,-2,0,3
1511884144553174,1,-4,-7,-6,-6,-4,-4,7
1511884144553174,13,36,23,21,88,6,0,1
1511884144569185,-6,-30,-12,-9,-36,-12,-8,-8
1511884144569185,3,9,11,10,-45,-12,10,11
1511884144569706,-5,-13,-12,-18,18,11,-7,-6
1511884144569706,-2,4,6,13,11,-2,3,-1
1511884144590922,6,15,6,-11,-16,-3,2,2
1511884144590922,-3,-8,-2,6,7,-5,5,0
1511884144591898,0,4,6,0,14,26,0,2
1511884144591898,1,-6,-4,2,-14,-33,-4,-2
1511884144605934,1,5,-2,-5,1,-7,-4,0
1511884144605934,1,0,1,4,-7,-2,3,1
1511884144612956,1,-2,4,12,11,-2,9,5
1511884144612956,-2,1,-6,-10,-42,7,-9,-2
1511884144636113,-3,-1,5,8,19,0,2,-3
1511884144636113,2,4,6,10,8,2,2,0
1511884144637015,-3,-9,1,6,-7,2,-3,-1
1511884144637015,-6,-7,-5,-10,-11,-1,-2,-2
1511884144651163,1,3,0,-1,3,-3,-3,-1
1511884144651163,1,-2,-1,-1,-10,7,-1,-1
1511884144652056,-1,-4,-6,-22,-44,-12,-3,0
1511884144652056,-1,-1,-1,7,-7,-7,2,1
1511884144673780,4,10,1,45,13,9,-1,-1
1511884144673780,-5,-12,-21,-80,72,20,3,1
1511884144674778,-1,-5,-1,-2,-48,-24,0,-3
1511884144674778,-1,1,-1,0,35,10,-3,-3
1511884144695839,-1,-1,-7,-13,14,13,2,0
1511884144695839,1,1,6,17,-16,-9,-1,0
1511884144696837,2,1,4,42,15,-6,1,2
1511884144696837,-3,2,-1,2,-9,14,1,0
1511884144710880,-5,-9,-19,-74,-13,-4,-6,-8
1511884144710880,0,2,5,10,-9,-11,-1,0
1511884144711878,-4,-3,-7,-19,-1,-2,-1,-2
1511884144711878,5,6,6,4,28,15,8,3
1511884144733963,5,0,-1,-2,-4,-7,-6,3
1511884144733963,-1,8,11,49,-14,-2,-3,-2
1511884144734967,1,-3,1,-8,6,-5,-4,0
1511884144734967,-4,-4,-1,-3,-8,4,2,-3
1511884144756498,-1,1,5,-2,-3,1,2,-1
1511884144756498,3,17,5,11,9,1,-1,-1
1511884144757501,1,-14,-13,-30,-18,-6,-2,0
1511884144757501,10,28,9,7,-12,-2,-2,4
1511884144771565,-19,-13,-4,8,-13,-2,-4,-9
1511884144771565,-13,-60,-7,25,-8,-4,-2,-2
1511884144771565,-2,-2,-7,-8,-1,-2,2,-1
1511884144771565,-1,0,-6,-36,-10,-3,-4,-1
1511884144793823,14,45,20,9,6,6,1,4
1511884144793823,-1,-24,-8,-15,13,-1,-2,-1
1511884144794852,-3,4,-1,14,-7,-2,2,1
1511884144794852,-7,-19,-15,-43,-9,-8,-13,-6
1511884144815911,1,-1,0,8,5,-2,0,0
1511884144815911,2,26,5,-4,-34,-1,3,4
1511884144816883,5,-4,-4,-6,0,0,2,3
1511884144816883,0,4,-2,20,-7,14,22,0
1511884144830920,-1,-14,-5,1,5,-2,-7,2
1511884144830920,7,60,19,-10,-3,-7,-4,-1
1511884144831923,-12,-74,-19,9,4,6,-1,-4
1511884144831923,-6,-16,-9,11,-7,-11,0,-2
1511884144853982,-2,4,3,-9,1,20,16,-1
1511884144853982,6,31,10,15,16,6,-1,-2
1511884144854985,-5,-7,-5,6,-12,-12,-10,1
1511884144854985,-12,10,-10,6,-6,3,7,-5
1511884144875779,-8,-60,-25,29,2,-7,-10,2
1511884144875779,2,18,8,15,3,-3,-7,-4
1511884144876781,8,30,20,51,22,6,3,2
1511884144876781,14,54,7,-86,-17,-7,-7,1
1511884144890818,-4,0,3,-26,-5,2,7,-1
1511884144890818,-1,37,-7,61,7,6,4,-2
1511884144891821,-4,24,-8,-77,-10,-4,-3,-5
1511884144891821,-8,-69,-8,33,3,1,1,1
1511884144913880,1,25,7,-21,-5,-8,-8,-6
1511884144913880,5,-17,1,-38,-6,-6,1,5
1511884144914882,1,-1,-3,5,0,2,4,2
1511884144914882,3,16,13,27,6,-2,-9,0
1511884144935939,1,-14,-19,-7,14,4,6,5
1511884144935939,-2,-9,-1,19,-4,2,-6,-2
1511884144936942,-12,-53,-12,-4,0,-3,-2,-3
1511884144936942,9,39,6,12,4,1,-5,0
1511884144950979,-1,9,10,6,1,-6,0,-2
1511884144950979,-5,-28,-13,-18,-8,-2,1,-3
1511884144951982,6,30,13,-1,1,3,-5,-3
1511884144951982,-4,-15,5,40,2,-1,-1,0
1511884144973803,-6,-14,-9,15,-25,-12,-3,-2
1511884144973803,-1,6,-8,-53,11,3,-4,-4
1511884144974779,0,25,19,15,-18,-7,-3,-4
1511884144974779,1,-8,2,-29,-24,0,4,4
1511884144995835,7,32,37,10,-2,0,-4,-2
1511884144995835,-13,-41,-52,-15,4,8,-9,-11
1511884144996838,4,18,1,4,8,3,7,2
1511884144996838,2,-7,-10,13,8,-9,2,5
1511884145012881,-5,0,20,4,13,3,-4,-3
1511884145012881,2,8,24,9,-4,-7,6,4
1511884145013883,4,-17,-48,-19,-9,12,0,1
1511884145013883,-12,26,83,7,15,10,-10,-12
1511884145033972,4,0,-46,0,2,6,8,8
1511884145033972,-5,-18,4,-10,9,-40,-5,-3
1511884145034965,8,50,82,34,28,24,26,19
1511884145034965,-24,-84,-90,-28,-40,-54,-38,-24
1511884145056522,-6,4,18,-3,19,76,-4,-13
1511884145056522,18,8,0,16,25,-25,26,20
1511884145057023,-15,1,-1,-25,-46,29,-27,-23
1511884145057023,10,12,-6,14,19,13,11,7
1511884145071572,-2,1,-1,-4,-53,-99,-21,-7
1511884145071572,-6,-26,-48,-44,-26,12,-1,-4
1511884145071572,17,21,24,44,69,7,45,26
1511884145071572,0,5,4,-20,-37,-6,-2,4
1511884145093856,-6,-10,-36,-10,6,41,-15,-17
1511884145093856,8,28,57,39,26,19,5,7
1511884145094827,-9,-24,-28,-4,4,-14,-10,-7
1511884145094827,6,15,7,-6,-17,27,29,11
1511884145115911,11,6,15,5,57,-28,23,19
1511884145115911,-13,-12,-10,17,-43,9,-18,-11
1511884145116886,-4,1,-13,-35,-18,-37,-32,-20
1511884145116886,-1,10,4,40,21,7,5,-1
1511884145130952,2,-7,-1,-20,-11,8,4,5
1511884145130952,-9,-4,-8,-10,3,23,-9,-10
1511884145131926,-1,0,-11,17,24,36,16,5
1511884145131926,0,-8,-14,-20,-10,-2,-23,-11
1511884145154011,1,34,26,-1,-21,-26,-8,-4
1511884145154011,0,-4,0,-10,8,31,5,3
1511884145155017,2,-7,2,6,-1,-9,1,5
1511884145155017,7,19,2,7,26,22,9,5
1511884145175808,1,-6,14,21,2,13,7,2
1511884145175808,-11,-29,-18,3,5,-18,-5,-5
1511884145176788,-5,-11,-11,-46,-50,-17,-12,-8
1511884145176788,3,4,-3,9,13,-16,1,2
1511884145190855,4,13,-5,56,22,-7,-2,1
1511884145190855,8,10,33,-44,-2,15,5,6
1511884145191847,4,39,-4,8,-19,-26,-2,1
1511884145191847,-21,-78,-18,-26,-7,12,-4,-9
1511884145213913,0,-3,-6,-1,-6,7,4,0
1511884145213913,6,26,8,65,13,3,8,4
1511884145214919,3,16,27,-43,16,0,0,1
1511884145214919,12,45,9,25,14,-30,-13,1
1511884145236975,-15,-42,-11,-58,-6,-5,-6,-7
1511884145236975,1,7,2,10,-8,-10,0,-2
1511884145237982,1,-10,0,23,-2,-15,-1,0
1511884145237982,-6,-5,-4,-23,3,14,3,-1
1511884145251012,16,56,25,27,13,5,6,7
1511884145251012,0,-22,-12,14,-2,1,1,2
1511884145252026,-21,-78,-58,-96,-37,-4,-12,-15
1511884145252026,4,88,27,74,9,2,7,-1
1511884145273680,18,57,7,21,-1,12,12,8
1511884145273680,-13,-60,4,-4,-14,-49,-51,-15
1511884145274660,-20,70,-9,114,18,13,10,3
1511884145274660,16,77,21,84,5,9,20,-2
1511884145296719,-14,-30,-3,-63,3,-6,-7,4
1511884145296719,-8,-29,-46,-28,-18,8,16,2
1511884145296719,28,80,70,111,20,1,5,3
1511884145296719,-4,-22,-1,58,16,9,3,4
1511884145311757,20,53,29,102,1,28,26,4
1511884145311757,-36,-96,-48,125,11,-47,-38,-3
1511884145311757,9,61,10,64,-29,-25,-32,-8
1511884145311757,-7,-14,34,63,6,13,9,0
1511884145333817,25,23,29,-28,4,37,46,12
1511884145333817,-20,-17,-72,-122,-46,30,-19,-14
1511884145334820,-4,-56,-27,71,21,-13,-8,-1
1511884145334820,-1,10,29,-61,12,-17,-5,-4
1511884145356407,-12,-28,-16,-35,-21,2,-24,-8
1511884145356407,8,-3,46,44,38,4,34,6
1511884145357409,8,30,26,-20,-12,27,4,0
1511884145357409,-17,-95,-80,-107,-47,-55,-31,-2
1511884145371444,22,54,46,117,34,6,7,8
1511884145371444,-36,-24,-46,-127,-7,-8,4,-11
1511884145371444,15,60,28,8,-7,-2,-1,2
1511884145371444,3,35,19,54,29,15,8,6
1511884145393869,-18,-39,-36,-33,-9,-7,-11,-9
1511884145393869,48,127,65,26,8,9,10,14
1511884145394845,-14,-104,-13,4,24,10,7,0
1511884145394845,-6,10,-26,-53,-8,-8,-8,-7
1511884145415931,-11,-5,-21,23,3,-8,-9,-2
1511884145415931,11,55,30,-24,3,-8,-6,-2
1511884145416905,-16,-71,-57,-117,-14,-4,5,-3
1511884145416905,19,54,17,-18,15,36,15,4
1511884145430968,-11,-53,-21,49,-12,-11,-14,-2
1511884145430968,1,-7,-6,21,-9,-9,11,4
1511884145431945,10,49,32,64,27,-16,-11,0
1511884145431945,2,-29,-9,-6,-4,19,16,5
1511884145454134,-8,19,-25,-58,-35,-16,-16,-12
1511884145454134,-4,-26,26,127,26,23,15,-1
1511884145455141,-2,9,-18,-121,-10,-2,1,-1
1511884145455141,4,55,12,-23,-18,10,1,1
1511884145476605,-19,-120,-48,1,7,14,20,-2
1511884145476605,20,81,66,69,-14,-33,-20,7
1511884145476605,-13,-35,-53,-57,-2,-13,-21,-13
1511884145476605,-12,-48,-12,-35,4,-2,0,-2
1511884145491845,5,58,16,-20,-12,0,2,-1
1511884145491845,11,19,3,69,9,-14,-11,1
1511884145492681,-8,-31,2,-15,15,10,9,6
1511884145492681,7,3,-12,-79,-15,-6,-8,0
1511884145513724,0,3,5,-1,3,-7,-4,3
1511884145513724,-10,-43,-38,-120,-24,0,9,-4
1511884145514704,0,3,-6,-5,-22,15,9,-2
1511884145514704,-6,-68,4,119,-2,-11,-13,-6
1511884145536797,-3,34,-4,-40,14,-33,-24,-5
1511884145536797,8,36,1,-27,4,12,3,0
1511884145536797,2,-24,7,28,-11,-2,3,0
1511884145536797,-10,-43,-7,-1,-13,11,9,-3
1511884145551803,-3,-10,15,36,38,-1,-4,0
1511884145551803,2,13,-24,-81,73,36,15,0
1511884145551803,1,-5,8,-13,-37,-39,-19,4
1511884145551803,7,23,13,42,5,1,-2,1
1511884145573431,1,29,8,70,-21,17,11,-1
1511884145573431,-17,-76,-9,-63,-43,-42,-24,-9
1511884145574433,0,-1,-7,66,20,0,-6,-6
1511884145574433,-4,-4,-6,10,30,0,0,1
1511884145596490,-1,-3,7,-66,39,10,11,-1
1511884145596490,14,71,28,35,32,5,-4,2
1511884145597493,-5,-28,1,-32,-66,-6,-2,-5
1511884145597493,-1,-13,-4,22,22,-3,1,4
1511884145611526,3,-11,3,12,15,4,-4,-2
1511884145611526,6,12,7,99,-74,28,31,3
1511884145612533,-12,-11,-19,-39,27,-18,-13,0
1511884145612533,3,-5,-17,-72,-24,-31,-22,-2
1511884145633584,-13,-10,-1,12,-2,9,5,-3
1511884145633584,-7,-4,-22,31,-8,-8,-5,-4
1511884145634588,8,58,10,-3,8,2,-2,-2
1511884145634588,0,-6,7,19,-15,5,6,3
1511884145656814,4,-14,5,96,17,2,7,8
1511884145656814,-1,26,-11,-70,-18,-6,-8,-6
1511884145657150,-6,-30,-12,69,43,49,32,5
1511884145657150,-2,-1,-1,-61,-8,-32,-23,0
1511884145671210,-3,-18,-20,38,-45,-7,-5,-3
1511884145671210,7,39,22,4,4,-3,-3,-1
1511884145678905,8,45,47,-16,-11,25,13,0
1511884145678905,-11,-22,-23,4,56,-41,-28,-4
1511884145693944,-9,-35,-14,-39,-49,-9,-7,-5
1511884145693944,23,79,43,19,9,9,5,9
1511884145694819,-28,-67,-56,-30,-7,6,9,-4
1511884145694819,3,29,-1,-3,-19,34,24,-1
1511884145715875,9,76,45,-10,-7,-32,-24,3
1511884145715875,-15,-18,-35,-75,21,2,-2,-8
1511884145716878,6,8,37,33,79,-6,0,6
1511884145716878,-7,-14,-6,22,-6,16,4,-11
1511884145730942,10,22,10,-5,-16,-17,-8,3
1511884145730942,0,-6,8,32,18,21,15,-1
1511884145738936,-2,-25,0,43,2,-9,-14,-1
1511884145738936,-11,-23,-25,-60,14,0,-2,-5
1511884145753976,-2,-16,-11,-30,34,7,-3,-6
1511884145753976,1,-16,-6,26,-3,-5,-3,1
1511884145754979,2,-5,2,-6,-35,7,9,-2
1511884145754979,1,7,4,28,-12,3,-2,-1
1511884145776557,-1,-21,-14,-11,-81,-2,3,-3
1511884145776557,-6,-19,-6,36,-4,-22,-10,2
1511884145776557,11,49,10,-61,-14,-12,1,1
1511884145776557,3,5,7,3,-14,-1,-5,0
1511884145790594,-7,1,-10,-44,-18,12,15,2
1511884145790594,-15,-46,-12,-17,17,2,-11,-10
1511884145798615,12,33,10,22,20,11,5,4
1511884145798615,7,32,17,12,-5,-8,1,1
1511884145813682,-4,-11,-18,-17,22,7,-3,-5
1511884145813682,-1,1,4,6,-12,-3,7,0
1511884145814685,-5,-32,-4,-12,24,-16,-15,-1
1511884145814685,7,43,8,-10,14,7,1,0
1511884145836726,-12,-43,-17,11,34,-2,-7,-4
1511884145836726,-1,5,6,-15,-72,-2,7,-3
1511884145836726,0,7,-8,7,5,-11,-17,-7
1511884145836726,7,11,12,30,-10,6,9,3
1511884145850781,3,22,15,3,11,3,6,7
1511884145850781,-2,-24,-6,-14,10,5,-5,-1
1511884145858806,0,9,-3,-13,9,6,6,2
1511884145858806,-2,-6,-8,-17,6,-23,-20,-8
1511884145873843,-5,2,-2,-7,-5,-5,-6,-2
1511884145873843,-1,-15,2,8,9,9,5,2
1511884145874851,3,11,3,8,-20,8,10,0
1511884145874851,1,3,16,14,-11,4,3,2
1511884145895880,1,-13,-6,-26,-19,-10,-8,-3
1511884145895880,-3,0,-7,18,25,7,5,1
1511884145896882,1,2,3,-12,-29,-3,-5,-4
1511884145896882,-1,-8,0,7,-12,1,7,2
1511884145910932,6,13,-5,-20,14,1,1,2
1511884145910932,-6,-14,8,52,13,5,3,2
1511884145918967,2,6,-15,-46,-26,-10,-7,0
1511884145918967,-5,-7,-10,3,-26,-10,1,-2
1511884145933981,-1,-10,1,38,21,-15,-14,-5
1511884145933981,0,-9,-7,-8,-6,-3,-2,-1
1511884145934984,-1,-8,1,-1,-2,-1,1,0
1511884145934984,3,5,3,-4,7,27,17,6
1511884145956598,-2,5,-3,-31,-2,-3,-1,-1
1511884145956598,5,-1,13,-9,2,-6,-5,1
1511884145957070,-1,6,5,37,17,-5,1,2
1511884145957070,-2,-3,-3,-4,-29,-8,-5,-5
1511884145970636,2,-2,0,-15,17,5,1,-3
1511884145970636,2,11,-3,-4,27,11,3,3
1511884145978978,4,-7,8,43,-23,-2,1,2
1511884145978978,-5,4,-8,-9,2,0,-2,-1
1511884145994016,-1,-8,-4,15,-2,-16,-8,-1
1511884145994016,0,12,0,-20,-19,-2,0,-2
1511884145995043,-2,10,1,15,-2,-1,-2,-1
1511884145995043,-4,-10,7,26,-3,-1,-2,0
1511884146016076,4,7,-12,-76,-26,2,4,0
1511884146016076,-8,-20,-5,-3,-11,0,-4,-6
1511884146017091,2,3,-8,-16,-23,-5,1,4
1511884146017091,-5,-14,1,19,10,-1,-1,-1
1511884146030113,-3,1,0,-1,-5,9,2,0
1511884146030113,6,12,8,5,4,-7,-1,1
1511884146039137,-7,-17,-3,-22,-19,1,-2,-6
1511884146039137,1,3,2,7,-3,-6,-6,-2
1511884146054200,2,1,0,8,-49,-4,9,4
1511884146054200,2,-1,-4,-2,-3,-1,-3,0
1511884146054200,-2,9,7,19,6,6,6,-2
1511884146054200,1,-11,-15,-24,15,-3,-7,-1
1511884146076264,-3,-2,8,5,16,10,-2,-3
1511884146076264,-1,-2,-2,5,5,-14,-7,-4
1511884146077267,1,6,-4,-1,10,8,6,4
1511884146077267,4,2,-1,16,9,-10,-15,-3
1511884146090329,-2,2,8,55,21,17,13,0
1511884146090329,-1,-1,-10,-61,-14,0,8,3
1511884146098323,2,9,0,6,0,-4,-11,0
1511884146098323,-9,-16,1,16,-12,-4,4,-5
1511884146113387,0,-7,-5,-4,-20,-2,-5,0
1511884146113387,3,10,11,29,49,-3,1,5
1511884146114366,1,-1,-3,-26,-13,6,8,-1
1511884146114366,-3,0,-7,-4,-31,-11,-12,-4
1511884146136451,-3,6,-4,4,15,2,0,-4
1511884146136451,0,-7,-2,-6,-7,1,3,-1
1511884146137454,-1,1,0,30,21,7,3,-3
1511884146137454,5,14,4,-55,-9,-14,-10,1
1511884146159544,-7,-28,-16,-24,2,-2,-6,-7
1511884146159544,-1,-2,-2,-3,7,3,-6,-5
1511884146160520,2,7,10,59,-2,-10,-5,4
1511884146160520,2,-3,-14,-30,5,20,16,3
1511884146173563,-9,-13,2,-13,25,2,0,-1
1511884146173563,0,1,4,-3,-34,2,3,1
1511884146174540,-2,-7,-14,-14,23,9,7,-1
1511884146174540,0,1,8,19,-4,-15,-19,-5
1511884146196621,6,10,14,28,4,-5,1,3
1511884146196621,-3,-11,-18,-26,-14,2,1,-2
1511884146196621,-2,17,8,3,18,6,-1,-3
1511884146196621,-3,-22,-11,-49,-20,-1,8,3
1511884146219685,2,9,2,-13,2,-8,-6,1
1511884146219685,-3,-6,0,-16,-5,-3,-5,-4
1511884146220689,0,6,-2,-9,0,-3,-2,-2
1511884146220689,5,11,8,41,16,11,8,3
1511884146233726,-10,-6,-5,-36,-23,3,2,-7
1511884146233726,5,9,12,46,18,-1,-1,6
1511884146234699,-5,-16,-10,-20,2,-25,-12,-3
1511884146234699,1,7,8,15,-13,2,7,1
1511884146255755,1,4,9,27,30,9,0,-1
1511884146255755,-3,-9,-11,-9,-3,10,5,0
1511884146257316,-1,-7,5,4,-12,1,5,-2
1511884146257316,0,11,1,-4,-8,-3,-5,-3
1511884146279544,3,-12,-11,7,16,6,6,3
1511884146279544,-4,6,5,16,-41,-18,-13,-8
1511884146280547,-4,-18,-25,-42,-11,10,3,-1
1511884146280547,3,11,12,14,36,14,20,6
1511884146293582,-5,-4,-15,-26,-79,-32,-18,-3
1511884146293582,2,7,14,14,-3,10,7,2
1511884146294586,0,-2,7,35,15,-6,-9,-2
1511884146294586,-1,-4,-1,-13,-19,10,-1,-2
1511884146316670,6,9,-1,13,-12,2,5,3
1511884146316670,-3,-14,-2,11,-7,-28,-10,2
1511884146316670,-6,-15,-12,-40,-60,-6,-1,-6
1511884146316670,1,-4,-2,10,17,9,5,1
1511884146339731,0,9,-1,-3,14,6,6,-3
1511884146339731,2,15,13,24,2,-1,-5,-3
1511884146339731,-2,-20,-11,-19,27,-12,-11,0
1511884146339731,-8,-16,-6,53,-5,-3,-6,-5
1511884146353769,8,14,17,-5,-1,6,11,7
1511884146353769,-6,-5,-16,-34,-18,-26,-21,-6
1511884146354771,1,5,11,15,-2,4,1,2
1511884146354771,0,1,-4,31,-14,-7,-4,1
1511884146376572,1,9,9,29,15,8,3,-1
1511884146376572,0,-4,-9,-42,9,11,7,-1
1511884146376572,5,18,16,16,14,0,0,-1
1511884146376572,-1,-20,-9,-28,-8,-1,3,-1
1511884146399637,-7,-6,-10,-38,-13,-8,-1,-2
1511884146399637,0,5,-7,17,8,6,7,5
1511884146400639,-4,3,-8,-43,2,10,4,-10
1511884146400639,1,10,7,17,13,-9,-5,2
1511884146413674,2,8,-4,-34,8,-27,-30,-2
1511884146413674,-3,-30,-14,4,26,21,14,3
1511884146414676,3,19,15,57,22,9,7,5
1511884146414676,-5,-7,0,-3,2,2,-1,-3
1511884146436724,0,-2,-14,-13,1,9,4,2
1511884146436724,4,10,10,21,7,2,4,1
1511884146436724,1,3,5,4,-6,-6,-2,1
1511884146436724,-1,-4,5,4,-15,1,2,-2
1511884146459839,-6,-15,-14,-22,-52,-13,-10,-5
1511884146459839,1,9,3,1,-10,2,4,-1
1511884146460314,-1,-4,-4,-4,1,15,8,0
1511884146460314,-4,4,-7,-40,5,-19,-4,1
1511884146473443,0,1,3,46,10,8,5,-2
1511884146473443,1,-3,9,-8,-8,-5,-9,-1
1511884146474422,0,1,-8,-22,18,11,6,1
1511884146474422,5,13,6,3,11,-7,-7,4
1511884146496481,0,-7,-6,12,-17,8,7,0
1511884146496481,-5,-16,-8,-23,17,1,3,1
1511884146497484,0,0,2,16,-3,-6,2,-2
1511884146497484,-4,-1,-5,-15,20,33,1,-8
1511884146519543,6,15,10,21,16,-12,3,5
1511884146519543,-5,-14,-2,-14,-19,-3,-6,-4
1511884146520545,1,-6,-3,11,-4,-1,0,1
1511884146520545,4,8,3,-8,8,-8,0,-2
1511884146533639,-7,-5,1,11,-14,-8,-7,-5
1511884146533639,-3,2,-4,-2,26,1,-5,-3
1511884146534595,3,4,15,22,8,-10,-6,1
1511884146534595,-6,-15,-14,-14,12,-5,12,-1
1511884146556672,-6,-5,1,6,31,23,-13,-9
1511884146556672,2,8,-1,9,-12,-9,1,2
1511884146557181,0,1,5,-6,-21,-11,-11,-1
1511884146557181,-2,-7,-8,-17,-8,2,3,-1
1511884146579766,9,15,12,7,5,0,9,4
1511884146579766,-1,0,-12,-17,-10,6,2,-3
1511884146579766,1,5,0,2,-6,-5,-6,-3
1511884146579766,-2,-3,10,18,-6,-5,3,3
1511884146593846,-5,-10,-9,-5,20,-8,-5,-4
1511884146593846,2,11,10,16,-21,-4,0,0
1511884146594806,-2,-10,-9,-6,-16,-5,0,-1
1511884146594806,0,5,5,14,36,2,9,3
1511884146615864,-2,-5,-4,-12,-3,-2,-2,-2
1511884146615864,5,7,1,-18,-7,-4,0,-1
1511884146616863,-5,-9,-14,-13,-11,-5,-1,-2
1511884146616863,-3,-3,5,-6,-1,10,0,-4
1511884146640050,3,2,-1,3,-11,-13,-6,2
1511884146640050,1,-1,4,-1,14,2,0,0
1511884146640928,0,7,8,0,1,-3,-3,0
1511884146640928,-9,-22,-19,-19,-9,7,-10,-7
1511884146654145,1,4,2,1,0,3,7,4
1511884146654145,2,0,-2,-8,-6,-2,1,1
1511884146655109,-8,-13,-4,5,21,2,-3,-4
1511884146655109,1,10,13,5,-8,-2,-8,-2
1511884146676570,0,-1,2,-15,-38,2,4,-1
1511884146676570,-2,-4,-7,1,-30,-17,-9,-1
1511884146677573,1,-1,-17,-1,4,2,-1,-1
1511884146677573,-1,1,9,27,-13,-5,6,1
1511884146699809,-4,-7,3,-6,-1,2,-6,-4
1511884146699809,3,6,-4,-13,22,5,7,2
1511884146700796,3,1,2,-9,-14,-6,-1,3
1511884146700796,0,0,-6,-7,0,-2,-4,-1
1511884146713688,3,2,7,26,4,-1,5,2
1511884146713688,-4,0,0,-23,-3,6,5,-3
1511884146714668,0,-9,5,12,1,-7,-8,-1
1511884146714668,5,10,-15,-33,-2,-3,-2,1
1511884146736725,-6,-8,11,-12,-2,-3,-3,-5
1511884146736725,-2,-5,-20,30,11,4,1,0
1511884146736725,0,9,0,-55,-8,2,-3,0
1511884146736725,3,5,0,13,5,3,1,3
1511884146759792,4,3,24,-6,-3,-9,4,6
1511884146759792,-3,-1,-15,-53,3,12,0,-4
1511884146760293,-3,0,7,-9,-10,-10,-2,-2
1511884146760293,2,-9,-10,63,2,4,1,2
1511884146772853,3,1,-16,-45,10,-5,-4,-1
1511884146772853,0,-3,11,13,-17,-13,-4,2
1511884146780898,-2,-3,8,20,26,18,2,-3
1511884146780898,-2,-2,-6,-3,17,5,3,1
1511884146795936,-2,-6,-34,7,36,20,7,-2
1511884146795936,2,4,15,19,-1,-7,0,5
1511884146796917,1,6,-16,12,12,14,13,2
1511884146796917,-4,-3,-8,13,-9,-42,-38,-11
1511884146818976,-3,4,49,-18,-30,-1,-2,-5
1511884146818976,-4,-2,-4,10,9,18,9,-2
1511884146819979,4,1,-2,14,-14,-24,-8,5
1511884146819979,-1,2,5,7,-15,6,4,-1
1511884146833013,-3,-2,-9,24,17,4,0,1
1511884146833013,1,1,-1,11,-16,-5,-4,-3
1511884146841035,-3,1,-2,6,-21,1,4,-2
1511884146841035,1,1,6,-20,3,2,1,0
1511884146856075,1,4,-12,20,0,-7,-3,0
1511884146856075,-1,4,10,-17,0,-1,1,-1
1511884146857077,-2,4,0,8,36,5,0,0
1511884146857077,4,17,-9,-46,-15,-3,0,0
1511884146878682,-7,-32,-10,-23,-1,3,6,0
1511884146878682,-1,7,6,3,16,3,-5,-5
1511884146879685,2,-4,7,9,-7,-4,-3,-3
1511884146879685,-3,6,3,-10,-6,2,4,-4
1511884146892747,0,3,-4,34,0,2,0,-2
1511884146892747,3,7,11,-6,11,-8,-8,0
1511884146901771,1,-7,-16,3,-8,4,3,4
1511884146901771,1,-5,12,-3,0,-3,-2,-1
1511884146915808,3,13,14,21,-12,-16,-12,-4
1511884146915808,-2,10,-13,23,18,10,8,5
1511884146916788,-5,-29,-11,3,1,8,2,-2
1511884146916788,-5,-10,-9,26,1,5,8,3
1511884146938869,-5,-13,-22,-63,-19,-10,-11,-6
1511884146938869,3,7,6,-9,14,7,7,3
1511884146939869,5,8,8,-4,-23,-9,-6,-1
1511884146939869,2,5,19,19,11,-6,-3,2
1511884146952903,-3,-6,-13,-3,41,11,6,0
1511884146952903,-6,-12,-5,17,-11,-10,-8,-5
1511884146961454,-6,-3,-6,-28,-29,8,10,-3
1511884146961454,4,0,-9,-19,13,-2,2,1
1511884146976571,2,12,4,14,16,14,-4,-4
1511884146976571,-1,-14,1,13,-11,-7,3,9
1511884146976571,2,10,0,-6,0,-9,-4,-4
1511884146976571,-4,-4,3,14,-2,7,9,-3
1511884146998633,2,3,-7,-38,-15,-9,-7,2
1511884146998633,-1,1,9,12,7,13,13,-2
1511884146999608,2,16,14,9,-13,-17,-16,-3
1511884146999608,-1,-25,-6,1,-8,3,0,-5
1511884147012666,-4,3,4,0,-10,0,5,0
1511884147012666,0,-11,-23,-43,11,-11,-12,-2
1511884147021690,-4,0,8,18,4,0,5,2
1511884147021690,-1,6,-1,-10,-17,25,18,-2
1511884147035732,2,7,4,40,-25,-46,-25,2
1511884147035732,-1,-1,0,-7,20,12,-8,-6
1511884147036707,2,15,-1,-28,-8,-10,2,2
1511884147036707,-1,-13,-9,-6,22,5,-2,-2
1511884147058822,-1,-11,9,26,-20,14,16,3
1511884147058822,0,8,3,10,-14,-11,-3,-1
1511884147059827,-1,-13,7,12,10,13,4,-1
1511884147059827,0,6,-6,-11,-10,-7,-1,5
1511884147072857,2,-2,-7,-3,8,6,-3,-3
1511884147072857,-4,-4,3,17,-7,-19,-6,-2
1511884147080902,-1,-8,-11,-13,31,20,-2,-4
1511884147080902,-6,7,17,-12,29,-14,-8,-3
1511884147095944,3,0,-10,-2,-12,-4,4,5
1511884147095944,-6,-13,-7,2,3,7,3,-4
1511884147096921,-3,-5,-4,-11,8,10,5,-5
1511884147096921,1,-1,-2,5,-25,-19,-6,6
1511884147119008,0,7,-2,-10,15,2,1,-3
1511884147119008,1,-16,9,14,-12,-4,-2,-3
1511884147120008,-4,-6,-9,-6,-11,3,1,-1
1511884147120008,4,14,8,23,-12,7,7,-2
1511884147149083,-5,-1,7,2,5,-23,-17,-2
1511884147149083,3,8,3,7,-10,5,0,2
1511884147150061,-5,-14,-4,6,-3,-7,-1,0
1511884147150061,2,11,1,-22,15,4,4,0
1511884147156105,2,5,15,29,-53,0,6,2
1511884147156105,-9,-20,-8,-12,55,-3,-10,-11
1511884147157081,5,12,-6,-26,23,-20,-22,3
1511884147157081,-4,-12,-1,-13,-16,-1,-1,0
1511884147178740,2,10,4,15,12,22,20,5
1511884147178740,-3,-5,-3,-35,-22,-2,-9,-5
1511884147179736,-1,4,9,27,-10,-9,-1,0
1511884147179736,1,3,-12,-17,-15,-10,-11,-4
1511884147201794,-2,-5,-5,0,34,27,16,-1
1511884147201794,-1,5,-12,-1,-33,-16,-9,-5
1511884147202770,1,8,8,11,20,-4,-3,-3
1511884147202770,-2,-17,-14,-21,17,10,2,-2
1511884147215831,-2,5,14,21,15,6,5,-1
1511884147215831,2,7,-12,-9,-10,8,13,5
1511884147216807,-9,-26,-12,-17,-66,-24,-9,0
1511884147216807,-4,-6,-19,13,34,-14,-21,-5
1511884147238892,2,3,-1,-5,-9,9,7,-3
1511884147238892,4,-10,-9,6,7,8,3,8
1511884147239895,0,13,17,29,14,11,17,2
1511884147239895,4,14,11,-11,-12,17,10,-3
1511884147261985,0,-12,-5,7,8,-24,-28,-5
1511884147261985,0,11,3,1,-20,10,23,5
1511884147262987,1,-7,-11,-2,-2,-15,-9,-2
1511884147262987,-4,-12,14,34,1,14,11,-1
1511884147276550,-1,-2,-15,-38,1,10,13,4
1511884147276550,-2,2,7,6,-28,-45,-38,-12
1511884147276550,3,-10,-8,10,9,32,17,2
1511884147276550,-2,2,17,20,-32,7,5,4
1511884147298608,-9,-8,-13,2,-42,-13,2,-8
1511884147298608,3,6,14,-18,-18,5,7,-1
1511884147299585,-4,7,-2,6,14,-4,-10,2
1511884147299585,5,4,2,4,-22,-20,-6,-3
1511884147321670,-2,-1,-19,8,28,29,9,-6
1511884147321670,14,21,25,1,1,-1,16,29
1511884147322645,5,-10,-8,-10,1,-29,-15,-6
1511884147322645,3,20,6,-6,27,25,6,-1
1511884147336682,-1,3,6,-10,-8,-16,-4,1
1511884147336682,-5,-8,-7,-16,28,15,3,-4
1511884147336682,3,8,-6,4,16,17,5,-2
1511884147336682,-1,-10,-8,-6,-16,-6,5,1
1511884147358800,-4,-8,-9,-13,23,3,-16,-3
1511884147358800,9,18,4,25,-2,3,6,-1
1511884147359800,-3,-9,23,27,1,-4,-19,-6
1511884147359800,-15,-51,-34,-33,-13,-43,-15,-1
1511884147381889,-1,-2,15,2,5,17,7,-2
1511884147381889,-2,0,-7,8,10,-3,-4,2
1511884147382894,3,5,10,0,-13,3,2,-3
1511884147382894,0,8,3,20,7,3,-5,-7
1511884147395926,2,9,17,-5,-18,0,11,6
1511884147395926,-9,-8,-9,-4,0,-19,-31,-14
1511884147396902,-3,-16,-12,-9,26,6,7,4
1511884147396902,3,12,7,21,-22,-1,5,-1
1511884147418962,9,14,10,-1,-9,-2,-3,6
1511884147418962,-6,-10,-6,10,23,-7,14,-8
1511884147419964,-7,-3,-8,-27,-17,-5,-8,-3
1511884147419964,5,13,17,14,20,3,-10,3
1511884147442022,-4,-12,-28,-18,-6,-16,-8,-5
1511884147442022,5,5,4,12,1,13,9,6
1511884147443055,-4,2,1,-19,0,33,12,-3
1511884147443055,-2,3,6,4,21,2,9,3
1511884147456059,-1,3,3,-4,-9,-19,-12,0
1511884147456059,-8,-21,-9,-5,18,16,3,-3
1511884147457566,1,7,-3,-8,31,-13,-3,1
1511884147457566,1,3,-12,-4,-8,-1,-6,-3
1511884147478639,-1,-7,9,6,25,13,7,-2
1511884147478639,3,9,-8,-23,-6,-17,-15,4
1511884147479642,-1,0,10,13,-6,6,10,0
1511884147479642,-1,3,-10,-5,-30,-9,-9,-3
1511884147501726,-4,-9,0,1,6,-23,-11,-4
1511884147501726,0,-2,-3,-8,-6,3,0,-2
1511884147502708,3,6,0,-11,3,-2,7,2
1511884147502708,6,2,6,-3,19,33,13,7
1511884147516745,-5,-3,-6,-1,3,-1,2,0
1511884147516745,-3,-7,4,6,-10,1,-1,0
1511884147516745,-3,1,-1,-2,2,-4,-7,-5
1511884147516745,1,-9,-7,4,8,6,10,1
1511884147538826,9,18,12,11,-20,-11,-3,6
1511884147538826,-5,-13,-8,13,11,-13,-14,-9
1511884147539806,-3,2,2,-6,-2,44,15,-4
1511884147539806,5,3,9,-14,0,-34,4,17
1511884147562398,-7,-6,-9,11,8,3,-9,-10
1511884147562398,2,6,3,24,-24,4,8,0
1511884147562890,-2,-24,-13,-3,-8,-11,-5,1
1511884147562890,-4,9,-1,-14,-15,17,1,-10
1511884147576456,5,11,-2,4,10,4,1,4
1511884147576456,-4,2,7,7,-4,-9,-1,-1
1511884147577421,-3,-7,1,-3,1,7,10,-2
1511884147577421,0,9,1,11,13,-15,-20,-8
1511884147598672,-4,-22,-23,-10,-29,-23,-7,-2
1511884147598672,3,2,8,-4,-12,16,2,-1
1511884147606532,3,6,1,3,-3,-19,-9,2
1511884147606532,-1,-3,0,-6,3,-2,-1,-2
1511884147621651,0,1,6,-2,6,-1,-2,1
1511884147621651,4,6,-13,-4,13,8,10,1
1511884147622537,0,13,3,-15,-10,20,10,0
1511884147622537,0,-24,4,3,1,-42,-27,6
1511884147636578,0,9,-5,-8,18,9,5,-7
1511884147636578,-8,-15,-1,-4,2,3,3,-4
1511884147636578,-1,3,-4,10,-5,-6,-2,3
1511884147636578,-4,3,-2,8,-7,12,6,-6
1511884147659190,1,-4,5,22,26,6,3,3
1511884147659190,4,6,4,15,-27,-11,-8,2
1511884147659665,2,8,1,1,13,-9,-1,2
1511884147659665,-9,-21,-6,-32,-14,5,1,-8
1511884147681782,0,-5,-7,-17,31,-4,-5,2
1511884147681782,-1,2,4,-13,-15,14,0,-3
1511884147682760,3,5,2,7,-13,-6,6,5
1511884147682760,0,-5,-14,-17,14,-10,-1,2
1511884147695825,-3,-4,13,1,-4,8,1,-3
1511884147695825,2,3,1,-8,5,-1,-3,3
1511884147703843,-1,-1,-2,-1,-3,4,-3,-2
1511884147703843,-1,5,2,8,-4,4,-3,-3
1511884147719859,2,-2,2,4,-9,0,1,0
1511884147719859,-2,0,1,5,-2,-3,2,-2
1511884147719859,1,-2,-4,-7,-7,-12,-7,0
1511884147719859,-1,0,-2,10,-7,8,4,-2
1511884147741917,0,3,11,10,-2,0,-3,-1
1511884147741917,7,4,0,7,13,-1,-2,0
1511884147742920,-7,-11,-2,0,-54,-13,-3,1
1511884147742920,3,1,13,7,9,7,2,0
1511884147755955,-2,13,-14,-12,-12,0,2,2
1511884147755955,-23,-5,-11,-14,14,1,-2,-8
1511884147763989,10,3,21,-1,-3,-9,-5,0
1511884147763989,45,14,-2,-18,7,9,4,7
1511884147779559,-28,-23,-9,-4,-7,-3,-4,-4
1511884147779559,-25,7,4,4,4,2,1,-7
1511884147780562,5,-1,-1,2,11,-5,-4,-3
1511884147780562,-23,-2,2,2,-3,2,0,-5
1511884147801644,32,8,5,1,1,1,1,5
1511884147801644,9,-2,-6,-14,-4,-3,-4,1
1511884147802619,-9,-5,-9,-5,10,6,3,-2
1511884147802619,8,7,-4,-21,11,2,2,4
1511884147815681,-6,-2,1,2,4,1,0,-3
1511884147815681,-3,-9,2,-1,-11,-4,-3,0
1511884147823707,8,6,-2,4,-12,-8,-5,-1
1511884147823707,-2,-3,-2,0,0,1,1,1
1511884147839746,-12,-12,-9,6,9,3,0,-3
1511884147839746,9,10,32,4,-2,-4,-1,2
1511884147839746,3,-2,-76,-13,21,-2,-4,-1
1511884147839746,-6,7,10,3,-3,2,-1,-5
1511884147862283,-11,-5,17,8,14,-1,-1,-3
1511884147862283,16,2,-11,-2,-8,1,0,3
1511884147862784,-6,-3,20,7,9,-1,-1,-1
1511884147862784,-11,-3,2,1,-5,-1,0,-1
1511884147875872,12,5,-11,-1,-13,-9,2,1
1511884147875872,-6,-8,-3,-13,-2,-2,-4,-4
1511884147883868,-2,3,14,-4,6,8,3,-1
1511884147883868,-5,-7,-14,-1,-33,-12,-2,-2
1511884147898906,2,2,10,11,-4,-18,-2,0
1511884147898906,0,-6,-6,2,9,25,1,1
1511884147899934,-4,-6,-5,5,13,-2,-3,-4
1511884147899934,1,3,3,19,-26,-14,-1,1
1511884147921969,6,-3,-5,1,22,0,13,12
1511884147921969,0,6,2,21,-34,-13,-6,-2
1511884147922972,6,10,41,1,26,-1,-1,1
1511884147922972,-16,-21,-49,-13,14,17,1,-6
1511884147936005,1,6,-7,6,19,15,-3,-3
1511884147936005,12,-1,-4,-22,12,-10,26,13
1511884147944028,3,9,11,-27,-65,1,-9,2
1511884147944028,-2,12,37,19,27,34,-12,-12
1511884147959068,-6,-11,-18,-12,4,-49,6,2
1511884147959068,-5,13,-4,2,-2,-60,-12,-4
1511884147959569,-8,-5,-11,22,6,33,5,-1
1511884147959569,-13,-21,-8,-27,-9,39,1,-10
1511884147982181,-1,-9,-20,-1,64,49,-15,-14
1511884147982181,5,12,26,13,30,-16,4,0
1511884147983196,0,-2,4,-16,-25,-79,5,13
1511884147983196,-3,3,9,25,76,49,7,2
1511884147995221,-7,-12,9,-17,-56,-84,-38,-10
1511884147995221,-5,-18,-30,14,16,103,-2,-12
1511884148004226,12,48,33,13,45,20,22,14
1511884148004226,10,6,-5,-8,-35,-3,6,12
1511884148018281,-5,-10,-2,-5,16,16,6,-2
1511884148018281,7,-3,1,-1,-22,-37,-5,6
1511884148019268,-6,-32,-20,-16,11,-2,-5,-3
1511884148019268,14,31,14,13,-16,-10,3,2
1511884148042351,-3,-54,-46,-49,-42,-14,13,12
1511884148042351,19,51,69,96,-2,13,-8,4
1511884148042351,4,-11,-30,-79,24,34,14,3
1511884148042351,37,99,104,-71,-22,-49,-4,9
1511884148064882,-43,-96,-102,0,-14,19,4,-9
1511884148064882,-10,63,52,16,15,15,1,-3
1511884148065384,18,92,17,-42,24,-14,-17,4
1511884148065384,-10,-66,-51,13,-33,-68,-25,-3
1511884148078453,33,124,82,15,17,24,-1,2
1511884148078453,-21,-97,-51,-45,25,12,11,-10
1511884148079455,-8,50,-3,57,8,22,15,0
1511884148079455,-3,38,-32,-83,-41,37,30,2
1511884148101541,4,9,34,79,-42,-79,-83,-14
1511884148101541,-50,-104,-75,-19,3,-4,8,-7
1511884148102517,27,83,46,27,-42,-4,-16,-6
1511884148102517,-15,-11,-31,-7,41,10,4,-9
1511884148124605,12,-11,22,-3,-4,22,27,12
1511884148124605,13,19,11,-2,-15,-7,-8,1
1511884148125610,-10,-69,-37,-16,0,8,6,0
1511884148125610,13,62,46,84,41,9,11,2
1511884148138613,-13,-63,-17,-19,-19,-11,0,1
1511884148138613,9,22,-19,-84,9,22,5,-8
1511884148139615,-8,26,31,51,20,10,-10,-3
1511884148139615,-14,-98,-48,53,-28,-56,-19,2
1511884148162228,-8,-8,-12,-48,-58,21,3,-12
1511884148162228,17,25,3,-20,20,54,25,11
1511884148162705,-4,-9,-7,5,-65,-20,6,6
1511884148162705,2,26,15,5,-33,-59,-49,-13
1511884148184312,-2,24,5,28,57,41,28,4
1511884148184312,14,1,-1,-21,-16,7,-2,5
1511884148185291,-1,-18,14,90,11,14,38,12
1511884148185291,-12,-20,-29,-116,-34,-22,-31,-16
1511884148198326,4,21,2,67,6,8,7,2
1511884148198326,-8,-17,-22,-33,-19,-29,-9,-6
1511884148199329,0,19,13,9,34,20,-2,-11
1511884148199329,-13,-33,-11,3,0,7,4,0
1511884148221387,13,46,20,5,14,12,16,5
1511884148221387,-2,35,22,23,1,-9,-10,-1
1511884148222391,-12,-87,-43,-40,-40,-29,-29,-14
1511884148222391,-11,-27,-2,38,13,19,15,3
1511884148244448,8,21,15,-35,2,25,12,6
1511884148244448,0,23,3,17,-55,-29,-12,-1
1511884148245482,-15,-43,-25,-15,-16,-35,-19,-8
1511884148245482,7,10,11,23,41,33,15,2
1511884148259043,-2,-4,-1,49,10,9,3,-1
1511884148259043,1,-9,-11,-52,-9,-8,-7,-3
1511884148260046,-7,-10,-5,18,23,-22,-22,-7
1511884148260046,3,10,0,-8,11,27,27,6
1511884148281628,-5,0,-1,-24,5,-2,-10,-3
1511884148281628,-4,-10,0,35,46,-17,-10,-3
1511884148282607,2,-7,-2,-24,7,16,8,1
1511884148282607,2,11,10,27,5,21,17,5
1511884148304693,2,4,8,-16,-4,-37,-28,-1
1511884148304693,6,32,7,17,10,3,1,3
1511884148305696,-17,-51,-7,15,6,8,1,-9
1511884148305696,-2,1,6,6,6,-3,-1,1
1511884148318730,6,6,1,-3,-23,1,6,4
1511884148318730,-4,3,0,-17,10,-6,-3,-2
1511884148319732,4,-13,-13,3,-1,20,11,1
1511884148319732,-1,1,10,6,-17,-26,-22,-4
1511884148341765,0,5,1,-9,3,-1,-5,-1
1511884148341765,7,16,12,42,-43,-14,4,10
1511884148342769,-7,-39,-22,-47,17,2,-2,-5
1511884148342769,-1,-5,-5,8,5,10,3,-2
1511884148364851,0,18,16,-2,19,19,14,-2
1511884148364851,3,1,3,8,18,9,3,5
1511884148365352,-3,1,0,-13,-40,-24,-17,-7
1511884148365352,1,-11,-8,-1,12,2,2,4
1511884148378472,-2,3,4,-1,-29,-4,-2,-2
1511884148378472,-2,-11,5,1,77,10,6,-1
1511884148387496,0,7,-6,0,-26,9,11,-1
1511884148387496,1,4,2,25,7,-10,-17,-5
1511884148401533,-3,4,-9,-27,6,11,9,-5
1511884148401533,-3,-14,6,18,-4,-10,-8,2
1511884148403538,5,14,4,24,10,-6,5,7
1511884148403538,0,1,-4,-6,-14,0,4,-1
1511884148424621,-2,-5,-2,-28,11,8,0,0
1511884148424621,-4,-18,-18,-15,-28,2,7,-5
1511884148425626,5,33,35,35,7,-9,-9,2
1511884148425626,7,4,4,10,6,3,5,5
1511884148437656,-7,2,-8,-4,3,-6,-3,-3
1511884148437656,-1,-11,-4,2,-8,1,2,-1
1511884148446681,4,21,9,1,12,2,-3,0
1511884148446681,-9,-8,-5,-19,55,1,3,-2
1511884148462464,-5,-8,0,7,-27,0,-3,-1
1511884148462464,2,4,4,11,-26,-14,-5,-1
1511884148463835,4,1,-8,0,3,14,10,2
1511884148463835,-3,4,-1,25,4,-15,-10,-1
1511884148484440,-2,-3,-2,-35,-2,-5,-5,-3
1511884148484440,-3,-6,0,15,-11,-10,-11,-4
1511884148486448,1,9,5,-24,14,30,16,-1
1511884148486448,2,8,4,26,-24,-32,-11,6
1511884148507522,-6,-28,-15,-16,-14,-1,-1,-5
1511884148507522,0,2,3,-18,-56,-6,-2,-1
1511884148508501,-5,2,-9,-13,6,5,-4,-6
1511884148508501,0,-4,3,-9,10,34,33,8
1511884148520562,5,12,14,16,33,-35,-33,-8
1511884148520562,1,1,-9,-12,16,4,1,1
1511884148529562,-3,-3,3,11,-13,-7,1,-3
1511884148529562,-2,-1,-12,-28,-11,0,-2,-3
1511884148544639,-1,3,10,16,40,13,10,1
1511884148544639,3,2,-5,-4,5,18,8,1
1511884148545604,1,-12,-13,-21,-5,-31,-18,10
1511884148545604,0,4,6,-5,0,3,-9,-9
1511884148558671,1,6,3,42,0,13,14,6
1511884148558671,-2,1,-6,-8,9,0,1,-2
1511884148567201,-1,-2,9,-1,19,12,-1,-3
1511884148567201,0,-2,9,26,-48,1,2,-2
1511884148582420,3,17,-3,-16,-13,-3,-5,0
1511884148582420,-4,-14,7,18,2,-3,0,0
1511884148583423,-6,-1,-11,0,12,-9,-6,-5
1511884148583423,-2,3,1,3,-49,-14,-8,-2
1511884148604518,0,3,5,8,4,8,9,1
1511884148604518,2,5,-1,13,2,-1,3,3
1511884148610623,1,-1,-2,-26,3,-3,-4,-4
1511884148610623,-6,-6,3,1,19,8,5,-3
1511884148618551,5,-1,4,18,-4,5,8,9
1511884148618551,-4,-8,-7,-16,0,-23,-22,-7
1511884148627539,-1,1,4,20,-2,1,-2,-1
1511884148627539,4,12,-1,-19,19,7,5,4
1511884148641609,-5,-27,-5,1,-17,1,0,-3
1511884148641609,-2,1,8,23,24,5,9,3
1511884148649595,1,8,-3,2,-2,-4,-10,-2
1511884148649595,1,-3,4,-2,12,2,-2,-1
1511884148664947,-5,2,-3,-6,-35,-18,-14,-4
1511884148664947,-1,-2,7,40,6,-4,-4,-4
1511884148666335,0,-6,-12,-47,-13,-3,6,2
1511884148666335,-5,-9,0,4,12,8,0,-4
1511884148678528,5,4,-7,-17,3,1,4,5
1511884148678528,-2,-1,-1,-1,-1,2,4,0
1511884148687664,-1,-9,1,22,-10,-7,-8,1
1511884148687664,2,-1,-2,-20,4,6,1,-2
1511884148701686,-4,-5,3,7,11,-11,-6,-3
1511884148701686,0,-1,-5,-9,15,4,5,2
1511884148703596,5,12,4,2,4,1,1,0
1511884148703596,-7,-13,-5,9,-2,1,-2,-2
1511884148724673,1,-1,-1,14,14,4,2,-1
1511884148724673,-1,-1,-8,-29,-26,-6,-3,-4
1511884148725677,1,15,5,-3,-9,-2,0,-1
1511884148725677,0,-9,-11,-3,25,0,1,1
1511884148737716,5,21,7,-6,-15,1,2,3
1511884148737716,-7,-25,-10,12,4,0,-3,-4
1511884148746709,-2,1,-11,7,16,2,3,1
1511884148746709,-1,5,-5,-49,-31,-11,-6,-6
1511884148761752,-1,-24,0,9,11,14,20,5
1511884148761752,-1,6,1,-14,-18,-38,-39,-10
1511884148768270,3,-6,1,13,13,19,9,1
1511884148768270,0,6,-3,-4,-19,-20,-10,-4
1511884148784854,-1,-1,-5,0,11,3,3,1
1511884148784854,1,9,6,-10,-7,17,3,-1
1511884148785839,-3,-20,9,7,-14,-2,6,3
1511884148785839,-3,-2,-5,-7,-2,7,7,-1
1511884148797860,2,6,-8,-34,0,4,4,1
1511884148797860,-2,-2,1,1,9,7,5,1
1511884148806895,1,8,5,8,-22,-10,-4,-1
1511884148806895,-2,-14,-1,-11,24,23,12,-4
1511884148820949,3,7,3,22,11,-16,-21,2
1511884148820949,1,13,2,0,0,3,5,2
1511884148827942,-4,-26,-7,1,3,2,2,-3
1511884148827942,0,4,-6,-5,-24,-11,-7,3
1511884148843984,-10,-9,-6,1,5,8,3,-8
1511884148843984,2,5,-2,-2,4,6,5,2
1511884148845990,7,15,4,26,10,-8,-6,0
1511884148845990,-4,-14,-2,-40,-2,-8,-3,-2
1511884148858020,0,-3,-2,-2,-27,-11,-9,-3
1511884148858020,0,0,-1,4,-11,6,11,2
1511884148867548,-1,7,-1,-14,-4,-2,-11,-7
1511884148867548,2,-3,4,32,13,6,5,3
1511884148881639,-2,8,-8,-7,-14,-3,-2,-1
1511884148881639,0,7,6,4,-17,8,14,2
1511884148887655,-9,-27,-9,7,-2,-10,-12,-6
1511884148887655,1,13,1,2,-4,-5,-4,1
1511884148904697,1,-1,-6,-5,1,5,0,0
1511884148904697,-2,-7,-2,-4,1,4,6,3
1511884148905718,-1,8,-2,-39,-2,5,-5,-4
1511884148905718,1,10,6,29,9,-7,-4,4
1511884148917708,-4,-19,5,22,20,0,-1,-3
1511884148917708,-1,-3,-8,-14,7,2,-4,-1
1511884148926732,0,0,-2,-16,2,5,8,3
1511884148926732,0,-2,2,11,4,8,11,1
1511884148941772,2,13,11,-2,16,-11,-14,0
1511884148941772,-3,-2,-7,18,-32,-6,-3,-2
1511884148943778,-8,-27,-4,-17,1,-3,-2,-4
1511884148943778,3,2,-4,-12,14,2,-2,-1
1511884148964896,0,2,-2,7,-9,6,7,1
1511884148964896,-3,-18,0,7,36,1,-9,-2
1511884148966400,-1,19,-1,9,-12,-9,3,2
1511884148966400,5,13,3,-5,-28,-5,-4,2
1511884148986946,-2,-11,-3,1,-8,3,2,-3
1511884148986946,-5,-14,-3,-7,5,-3,2,1
1511884148988952,-4,2,0,-2,-8,15,17,1
1511884148988952,-3,-2,4,14,-12,-12,-17,-4
1511884149000983,0,6,-5,0,1,-1,-1,-1
1511884149000983,2,6,2,1,12,2,-4,-3
1511884149008002,1,4,5,-4,4,-1,0,2
1511884149008002,-3,-11,1,24,-38,-9,1,-1
1511884149024072,0,10,-6,-77,-2,6,5,-6
1511884149024072,3,-9,-3,-1,-4,-8,-7,1
1511884149026064,-4,-9,5,16,-6,-18,-18,-5
1511884149026064,-2,8,0,2,31,9,3,-2
1511884149047106,-1,-4,5,7,0,1,4,4
1511884149047106,0,21,2,21,8,10,10,-1
1511884149048136,2,-3,-11,-34,-16,4,6,2
1511884149048136,-1,-10,-12,-16,31,-3,-6,-2
1511884149061702,1,2,6,21,7,4,4,-1
1511884149061702,-1,-2,4,-16,-40,-8,1,0
1511884149068220,1,-4,-4,16,-28,-14,-7,-1
1511884149068220,3,20,5,18,27,12,1,0
1511884149084349,-4,-40,-11,24,4,9,3,-2
1511884149084349,3,11,-1,-27,8,-3,1,7
1511884149086355,-1,12,1,9,5,-12,-13,-4
1511884149086355,-2,-14,-7,-15,-9,4,4,-1
1511884149106385,-1,9,13,15,11,0,0,-5
1511884149106385,8,8,-2,-32,2,7,0,3
1511884149108390,-5,-15,-4,-9,-8,14,16,5
1511884149108390,-6,-6,-2,2,4,-18,-19,-8
1511884149120422,4,15,-6,-10,4,-12,-11,-2
1511884149120422,1,-3,0,-12,-33,-24,-11,-1
1511884149129446,5,9,8,23,41,18,12,1
1511884149129446,0,-6,-2,5,2,8,10,2
1511884149144487,0,10,1,-10,-31,-9,-2,2
1511884149144487,-3,-16,-3,9,7,3,0,-2
1511884149146492,-2,-2,0,11,12,-2,-6,-1
1511884149146492,1,-2,3,3,6,5,4,-2
1511884149167079,0,-5,-8,-16,-7,-5,-1,1
1511884149167079,0,4,9,37,24,15,11,6
1511884149169069,1,9,2,16,-7,-29,-37,-12
1511884149169069,-3,-13,-10,-31,-9,4,12,6
1511884149180191,-1,10,3,4,-7,8,6,-1
1511884149180191,-9,-6,-4,24,17,-1,-3,-8
1511884149189215,2,2,-6,-24,22,7,4,5
1511884149189215,0,18,4,6,6,-5,-4,-5
1511884149204282,-1,1,8,14,25,12,4,3
1511884149204282,-1,-6,-1,-4,1,-6,3,0
1511884149206262,4,12,3,2,-3,8,11,2
1511884149206262,-7,-26,-22,-41,15,-6,-14,-7
1511884149227316,-2,-1,-3,17,-5,-1,7,1
1511884149227316,2,3,-1,7,16,2,-7,-1
1511884149228339,2,5,9,12,0,-2,1,-1
1511884149228339,7,10,7,-1,-41,3,2,1
1511884149240378,-2,-12,-2,20,-4,-7,-5,-3
1511884149240378,-6,-9,-15,-36,5,5,0,-3
1511884149249387,0,1,-1,-30,-2,11,14,2
1511884149249387,-3,-1,4,16,-30,-38,-34,-7
1511884149264444,-2,0,0,-7,4,2,0,1
1511884149264444,5,11,10,20,1,-3,-1,1
1511884149266469,-3,-14,-6,-11,-2,10,6,-2
1511884149266469,2,11,1,-22,0,17,19,2
1511884149286554,-1,-24,-6,19,50,4,1,3
1511884149286554,-6,-3,-7,-42,9,-39,-36,-11
1511884149288535,-5,-1,-2,13,-29,5,7,2
1511884149288535,4,-11,-7,1,9,-2,-2,4
1511884149300592,-2,1,-2,10,-3,1,1,-1
1511884149300592,-2,-1,6,3,16,16,13,2
1511884149309589,0,0,-4,-4,4,0,-5,-2
1511884149309589,1,7,11,9,0,-15,-7,-1
1511884149324656,-2,11,-4,-15,-26,-1,-1,-3
1511884149324656,-4,-6,-1,11,0,3,1,-1
1511884149325632,5,7,5,9,-48,-14,-4,2
1511884149325632,-1,8,-5,1,53,25,12,1
1511884149346717,-5,-35,-9,-17,-16,-9,-7,-1
1511884149346717,4,15,-1,8,-4,7,9,0
1511884149348693,-5,-18,-5,-9,8,-7,-6,-4
1511884149348693,-1,2,8,14,-3,12,12,5
1511884149360781,4,8,11,19,12,-28,-27,-1
1511884149360781,1,-1,-7,5,76,20,9,4
1511884149369778,-3,-3,0,2,-12,-14,-6,-1
1511884149369778,0,-5,2,25,-8,12,12,1
1511884149384211,1,10,-2,-13,1,7,3,-2
1511884149384211,0,1,0,9,-14,-3,0,0
1511884149386218,2,9,3,14,-7,1,3,2
1511884149386218,-7,-9,0,-1,18,-3,-9,-5
1511884149407246,4,12,2,-15,-11,2,7,4
1511884149407246,-5,-14,-7,-8,-36,-8,-3,-4
1511884149408248,-1,0,-3,0,-2,2,-2,-3
1511884149408248,1,15,8,5,-10,-12,-5,0
1511884149420308,0,-24,-11,-15,-9,1,0,-1
1511884149420308,-10,-1,-4,-11,-14,3,3,-4
1511884149429305,-8,-15,1,-10,1,-2,0,-3
1511884149429305,1,-7,-7,-4,41,-5,-9,-3
1511884149444345,0,15,5,-6,12,0,-2,-4
1511884149444345,5,8,9,20,-33,-5,-3,0
1511884149446350,3,-5,-5,24,51,3,1,0
1511884149446350,-1,3,-1,-12,-47,-5,2,0
1511884149467459,-4,0,-3,10,-9,1,1,0
1511884149467459,-4,-4,1,14,-2,-5,-9,-5
1511884149469066,-3,-4,-5,-25,3,2,1,-1
1511884149469066,4,-2,1,18,1,10,7,5
1511884149481135,3,6,6,0,26,4,2,-2
1511884149481135,3,7,-4,-40,-50,-12,-11,-2
1511884149497174,-5,8,2,8,-7,-17,-13,-5
1511884149497174,-11,-25,-14,-5,5,10,7,-2
1511884149504192,-1,5,-5,-32,-13,0,2,-1
1511884149504192,1,-5,5,14,19,2,0,2
1511884149506202,5,21,3,-11,-1,9,10,4
1511884149506202,-2,-8,-2,0,-4,-13,-13,-2
1511884149527256,1,-1,0,27,-14,3,4,-1
1511884149527256,1,2,-6,-16,-2,1,6,3
1511884149528256,2,11,0,8,21,4,-7,-1
1511884149528256,-3,-16,0,13,-11,2,4,2
1511884149540289,-5,1,-2,-23,-19,-5,-2,0
1511884149540289,1,-5,-3,0,5,-5,-3,-5
1511884149549338,-3,0,2,-13,6,2,2,-4
1511884149549338,6,10,4,7,-3,-2,-1,2
1511884149564863,-3,14,0,7,-1,0,-8,-5
1511884149564863,3,-26,-4,14,-5,1,4,7
1511884149566364,-5,-10,0,8,-29,7,7,-1
1511884149566364,2,8,-2,-14,5,-1,1,-1
1511884149586476,-2,-4,-2,6,-7,-6,0,1
1511884149586476,5,23,13,14,-17,1,1,0
1511884149588458,-7,-21,-7,-21,2,-7,-6,-2
1511884149588458,-1,-6,-6,-14,-10,1,1,0
1511884149600666,-1,1,1,-10,4,5,5,1
1511884149600666,-4,4,-5,14,5,5,4,-1
1511884149609512,3,0,-6,-12,-23,-12,-8,1
1511884149609512,-3,7,3,2,-1,6,5,-3
1511884149624555,0,-2,5,11,3,-3,-3,3
1511884149624555,0,1,6,40,10,-8,-9,-1
1511884149625554,-4,-19,-14,-39,-9,-3,-3,-5
1511884149625554,-2,-2,-7,-12,21,0,-3,6
1511884149646796,-1,-1,-4,-11,3,0,2,0
1511884149646796,3,12,8,4,-3,13,17,4
1511884149648616,4,2,7,20,-1,-14,-11,2
1511884149648616,-5,-2,-1,-16,-7,20,14,-10
1511884149660658,2,-6,-1,0,3,-20,-18,4
1511884149660658,-2,7,3,-2,-4,-1,0,-3
1511884149670179,-5,-9,-9,7,33,10,5,-4
1511884149670179,0,-3,-2,18,-7,-8,-12,-5
1511884149684366,2,1,2,-17,-13,19,26,1
1511884149684366,-4,-3,3,12,10,-19,-25,-5
1511884149686237,4,6,-3,-14,-7,0,3,5
1511884149686237,-1,4,5,22,-25,-10,-9,-4
1511884149707294,-2,10,-6,-33,28,-2,3,-1
1511884149707294,-3,-9,-4,8,-18,2,-2,-5
1511884149708296,1,8,6,-14,4,5,1,-2
1511884149708296,1,-3,-2,-13,-9,-5,-4,5
1511884149720356,0,11,8,22,0,9,1,-4
1511884149720356,-5,-26,-13,-30,-10,0,0,1
1511884149729352,2,12,6,10,9,-4,-5,1
1511884149729352,2,7,5,-6,-17,-5,-5,0
1511884149743416,-3,-10,1,14,-2,14,7,-5
1511884149743416,2,0,-8,-41,-1,-11,-11,5
1511884149750435,-7,-9,0,37,1,-15,-11,-8
1511884149750435,2,5,0,-9,8,-5,2,2
1511884149767005,-4,-6,-9,-36,-49,-6,-2,-3
1511884149767005,-1,1,0,6,35,24,13,1
1511884149769009,3,10,11,18,-20,-8,-5,-1
1511884149769009,-3,-1,-12,-32,34,4,4,-2
1511884149780565,2,-6,-1,19,-7,-5,-5,-2
1511884149780565,4,26,10,-8,18,9,11,4
1511884149789567,-5,-34,-21,-3,-5,-7,-9,-4
1511884149789567,-2,-1,2,14,-3,2,1,-2
1511884149803632,2,7,2,13,23,3,-1,3
1511884149803632,-1,-1,-5,-8,-20,-3,-1,-2
1511884149810625,2,19,17,21,-2,0,1,1
1511884149810625,1,-7,1,18,25,2,-2,1
1511884149826691,-7,-3,-4,-19,-9,-12,-7,-5
1511884149826691,-2,-4,-1,5,4,-4,-5,-6
1511884149828670,-1,0,5,14,-38,-2,2,1
1511884149828670,-3,-6,-3,8,2,8,0,-1
1511884149840729,1,-1,-3,-18,-6,1,1,1
1511884149840729,-1,-4,-7,-19,1,0,4,-2
1511884149849729,-1,0,1,-16,0,-3,0,1
1511884149849729,5,9,15,35,13,-4,-1,3
1511884149863822,1,-5,2,13,-13,-10,-13,-3
1511884149863822,-4,-9,-6,-13,2,4,10,-3
1511884149870841,-3,-13,-12,-11,-18,10,-1,0
1511884149870841,5,2,4,8,-6,-15,-10,2
1511884149886409,0,6,2,3,-6,0,-6,-4
1511884149886409,-3,-17,-7,-2,-4,-5,3,2
1511884149888386,2,13,-2,-16,0,14,9,-2
1511884149888386,-5,-9,-4,0,3,-1,0,0
1511884149900445,0,-1,-2,6,-2,-10,-8,0
1511884149900445,-2,2,3,20,2,3,0,-2
1511884149909443,1,4,0,-5,6,0,3,3
1511884149909443,0,-1,-5,-41,-22,-7,-2,-2
1511884149923479,-2,-2,3,0,0,0,2,0
1511884149923479,1,0,-5,-8,-16,-5,-3,0
1511884149930525,0,1,2,15,18,1,1,0
1511884149930525,1,2,1,7,-11,-2,-1,0
1511884149946541,0,7,6,12,16,7,5,0
1511884149946541,-5,-16,-9,-21,-3,-8,-10,-5
1511884149948546,1,2,-1,-4,7,8,5,2
1511884149948546,-2,-2,-2,-4,-7,1,3,-1
1511884149969630,1,1,-1,12,0,-5,-5,2
1511884149969630,0,4,5,2,1,-5,-4,1
1511884149971135,1,0,-3,-14,5,-2,3,2
1511884149971135,-2,8,1,-14,-16,1,6,0
1511884149984201,1,-18,-6,21,5,9,4,4
1511884149984201,2,3,-1,-28,3,7,1,-2
1511884149990236,-3,0,-3,-9,-21,-28,-18,-4
1511884149990236,-2,-5,-5,-3,4,-1,-6,-4
1511884150007281,1,4,6,2,13,-1,1,0
1511884150007281,0,4,6,20,-27,4,6,2
1511884150008260,-2,-1,-1,-10,22,12,6,-1
1511884150008260,-1,0,-2,10,2,-5,-7,-2
1511884150029340,-1,2,-6,-42,-5,-5,-2,-1
1511884150029340,1,5,6,18,10,-2,-2,0
1511884150031350,-2,-3,-4,-30,-7,0,4,0
1511884150031350,1,-1,0,9,-13,-4,-4,-2
1511884150043379,2,0,5,25,4,6,5,1
1511884150043379,0,12,-5,-4,-17,-15,-15,-2
1511884150050393,-3,-2,-1,7,53,7,-2,-2
1511884150050393,-2,-5,-11,-4,-1,3,5,0
1511884150066973,-5,-4,-1,7,-1,0,1,-2
1511884150066973,3,2,-6,-45,-9,-1,1,0
1511884150068976,-1,0,1,31,2,4,4,1
1511884150068976,-3,0,-10,-66,4,2,-2,-3
1511884150089556,2,0,4,18,-2,5,6,4
1511884150089556,0,-2,2,13,14,-9,-9,-2
1511884150090554,-3,4,0,3,1,5,0,-2
1511884150090554,-1,0,4,10,-2,-5,-2,-4
1511884150102592,-1,-3,-7,4,5,1,0,-1
1511884150102592,-3,-7,1,13,4,-5,-2,0
1511884150111613,1,2,4,3,-11,-1,1,1
1511884150111613,1,1,0,5,0,2,-1,2
1511884150126657,1,-3,-1,10,18,16,13,0
1511884150126657,0,9,7,-7,7,-2,-3,0
1511884150128633,-1,1,5,11,14,-3,-6,-2
1511884150128633,-4,-13,-4,-1,-16,3,9,0
1511884150149689,-2,-2,2,20,-10,-14,-14,-3
1511884150149689,1,3,-2,1,-3,17,13,4
1511884150150691,0,6,-3,-41,-1,3,0,0
1511884150150691,-2,-12,3,11,-13,-4,-7,0
1511884150163251,0,1,-2,-11,0,-1,0,-1
1511884150163251,-1,-5,-4,5,0,-4,-2,-2
1511884150172275,2,7,-1,9,1,5,3,2
1511884150172275,1,7,3,23,4,-7,-5,-1
1511884150186886,-6,-9,-9,-39,-21,-8,-9,-7
1511884150186886,4,5,10,32,27,1,0,2
1511884150188864,2,3,0,-3,-3,2,3,0
1511884150188864,-3,-10,-2,-13,-15,9,9,0
1511884150208917,-3,-6,-3,18,6,-19,-19,-1
1511884150208917,-3,-7,-3,-7,-7,-2,-1,-2
1511884150210930,1,-2,3,-1,-17,-1,2,0
1511884150210930,3,6,1,2,3,4,4,2
1511884150222982,6,29,11,1,11,11,7,0
1511884150222982,-10,-52,-18,-6,2,-7,-9,-4
1511884150231985,-2,-4,-4,0,-10,-7,-7,-3
1511884150231985,0,6,6,17,3,0,1,-2
1511884150247019,-3,-6,-7,-21,-1,-2,-1,-3
1511884150247019,-1,16,8,17,-26,-1,2,-1
1511884150248051,2,-5,-5,19,-5,-2,-3,-1
1511884150248051,0,-2,-7,-15,3,-4,-5,0
1511884150269635,-4,-4,2,24,10,4,3,-1
1511884150269635,0,6,-1,-6,3,9,12,1
1511884150271113,-1,-1,5,12,-19,-17,-20,-4
1511884150271113,-1,-1,-7,-1,-10,-4,3,0
1511884150283170,1,-3,-7,-26,-16,11,15,0
1511884150283170,-6,-8,-1,-17,0,-5,-9,-1
1511884150292194,-1,-2,2,0,1,2,5,-1
1511884150292194,3,9,-4,-29,-25,2,-1,1
1511884150307260,-5,-23,-13,-34,8,-27,-26,-7
1511884150307260,1,0,-10,-2,6,17,12,3
1511884150308235,0,2,6,13,8,3,2,3
1511884150308235,2,22,8,-1,11,-4,-4,-2
1511884150329319,1,-21,-8,18,-3,8,9,3
1511884150329319,2,11,5,1,-8,-13,-11,-5
1511884150331321,-2,-6,-7,0,-15,-1,2,1
1511884150331321,2,4,3,-13,1,-3,-1,0
1511884150343330,1,7,1,5,-1,1,4,4
1511884150343330,-2,-2,-1,-16,23,-5,-7,-4
1511884150352380,0,-18,-4,21,2,3,4,4
1511884150352380,-3,-1,11,36,28,3,-2,-5
1511884150366896,2,6,0,-28,-12,-6,-3,0
1511884150366896,1,3,6,22,-1,4,3,-2
1511884150368901,1,6,-1,-23,-9,-3,1,-1
1511884150368901,-3,-8,-1,11,0,-5,-7,-3
1511884150389457,1,7,8,32,-6,6,4,0
1511884150389457,0,10,-2,-34,-4,-12,-6,-1
1511884150391489,-4,-25,-6,3,4,3,3,-2
1511884150391489,-2,-4,-5,-37,-5,-3,-1,-2
1511884150403524,1,5,-5,-12,4,-1,-2,-1
1511884150403524,1,0,-1,0,-14,2,6,2
1511884150412518,3,3,1,-10,-9,-2,2,2
1511884150412518,-7,-8,-4,18,11,1,0,-2
1511884150426586,0,-1,-2,23,14,4,-1,1
1511884150426586,-6,-13,-6,9,-69,-9,1,-3
1511884150428561,0,16,12,-6,30,-14,-20,-8
1511884150428561,-3,-7,-9,-12,3,6,4,0
1511884150449648,-4,-1,1,-17,-16,-4,-3,-5
1511884150449648,1,-5,-14,9,34,16,12,5
1511884150450620,-1,4,0,-11,-45,-9,-1,0
1511884150450620,2,0,-8,-21,-17,-3,0,0
1511884150463222,-2,5,5,-6,7,-5,-6,-3
1511884150463222,3,12,10,14,14,-1,-2,-1
1511884150472213,-5,-15,-10,28,10,19,13,0
1511884150472213,2,4,0,-25,12,-5,-9,3
1511884150487442,-3,-5,-5,-8,-25,-16,-8,-2
1511884150487442,2,8,9,-4,6,-12,-14,-2
1511884150488416,2,10,-2,3,8,5,4,1
1511884150488416,-4,-16,-3,10,14,11,8,-2
1511884150509522,1,-1,-1,1,3,14,7,1
1511884150509522,1,-4,4,-8,10,6,4,5
1511884150511478,-1,9,1,25,-3,-21,-11,-5
1511884150511478,-2,-4,-8,-37,-9,-8,-4,-4
1511884150523504,2,5,4,1,5,-2,0,5
1511884150523504,-3,-7,-18,-29,-21,2,2,-2
1511884150532525,-2,-5,1,-14,4,5,3,-2
1511884150532525,1,0,2,16,-3,4,3,0
1511884150546567,0,1,-1,1,9,-2,-2,0
1511884150546567,3,16,12,4,-3,5,4,3
1511884150548600,-3,-10,-5,-2,-3,-9,-9,0
1511884150548600,-1,2,-1,3,-6,-4,-3,0
1511884150569709,1,8,5,-4,2,4,2,0
1511884150569709,3,-2,-8,1,-6,-2,0,1
1511884150571208,0,8,4,-2,44,11,0,-3
1511884150571208,3,6,8,21,1,0,0,1
1511884150583326,-1,-1,-7,14,-7,-2,3,1
1511884150583326,-1,6,9,12,6,4,1,-2
1511884150592307,-3,-15,-14,-46,-31,-2,-4,-2
1511884150592307,0,5,3,19,4,2,3,-1
1511884150607531,-1,5,8,-2,-8,-8,-6,-2
1511884150607531,-3,-11,-6,-2,-3,-7,-5,-2
1511884150608377,1,5,2,-1,0,13,12,2
1511884150608377,-1,-3,3,1,17,8,2,4
1511884150629408,-1,-1,-1,-7,-18,-22,-17,-3
1511884150629408,-1,2,0,16,13,1,-3,-2
1511884150631414,-4,-9,-9,-32,-20,-6,-1,-1
1511884150631414,0,12,6,12,10,12,9,1
1511884150643625,-2,-10,-1,1,9,5,5,2
1511884150643625,-4,-6,-4,17,-3,-12,-9,-6
1511884150652494,3,4,-4,-48,-15,3,7,1
1511884150652494,-2,-2,3,-7,-32,-20,-13,-3
1511884150666522,1,3,-4,-19,28,10,4,-1
1511884150666522,-1,-13,-2,6,22,6,2,-1
1511884150673545,3,10,9,10,6,2,3,1
1511884150673545,0,-6,-12,25,11,-2,-4,-1
1511884150689627,-4,-3,-1,-5,4,-6,-8,-4
1511884150689627,-4,2,1,-7,-15,0,2,-1
1511884150690795,0,-1,-3,12,16,-1,-4,-1
1511884150690795,-1,-1,2,-11,-15,-1,2,-1
1511884150702693,-1,-5,3,8,-5,2,0,-3
1511884150702693,0,-4,-9,-33,0,-5,-5,-3
1511884150711689,-1,-1,-6,5,-25,2,0,-1
1511884150711689,-2,0,6,4,7,-5,-7,-2
1511884150725722,2,11,9,3,-3,-1,0,-2
1511884150725722,-4,-24,-1,20,7,2,0,0
1511884150732741,2,2,-4,-15,2,-1,0,1
1511884150732741,-2,4,-2,-6,-28,-5,-2,-1
1511884150749785,-1,-7,-1,3,49,8,1,-2
1511884150749785,-1,15,13,10,-6,-4,-4,-2
1511884150750788,-3,-24,-1,15,12,1,-2,-1
1511884150750788,2,3,3,5,-8,-4,-3,1
1511884150763373,-2,-6,-1,17,4,6,6,1
1511884150763373,-2,0,-5,-31,-23,-4,-2,-2
1511884150772380,0,8,-1,-6,10,0,0,-1
1511884150772380,-3,-5,0,-14,-5,-1,1,0
1511884150787044,1,0,0,4,-16,-1,1,0
1511884150787044,1,6,-4,-24,6,0,0,3
1511884150788048,2,4,8,28,1,-1,1,0
1511884150788048,-4,-7,-3,-1,10,2,-3,-2
1511884150809103,0,-2,-9,3,-20,-1,2,1
1511884150809103,1,-2,1,3,-13,-4,-2,-1
1511884150811108,1,11,8,25,12,10,7,3
1511884150811108,0,-5,-2,35,24,-8,-3,0
1511884150823172,-3,-6,-7,-18,12,6,7,-1
1511884150823172,-1,5,8,31,-15,-18,-20,-4
1511884150832165,2,3,-3,-12,10,-3,-2,-2
1511884150832165,2,2,2,-4,-19,3,2,1
1511884150847233,-2,-7,-2,4,-10,1,2,1
1511884150847233,2,27,5,8,10,8,8,1
1511884150848208,-9,-36,-11,-22,-7,-7,-6,-4
1511884150848208,0,-6,3,9,4,1,0,-1
1511884150869766,-3,4,-4,-16,-21,-4,-3,-2
1511884150869766,0,7,3,-5,4,5,5,1
1511884150871271,2,7,2,9,-9,-4,-3,1
1511884150871271,4,23,-2,-17,5,0,2,1
1511884150892327,-7,-42,-18,-13,13,2,-3,-5
1511884150892327,-2,-10,-6,9,8,3,2,1
1511884150893330,1,18,1,-11,2,-2,-3,-1
1511884150893330,-4,-26,-11,-48,-11,-3,-3,-4
1511884150907394,5,21,12,18,-4,-3,-4,0
1511884150907394,1,-1,-2,-6,30,6,2,1
1511884150908370,-5,-24,-11,31,-15,-2,1,1
1511884150908370,3,12,6,0,4,4,-1,0
1511884150929450,-2,3,-5,-6,-11,-5,-3,0
1511884150929450,-3,-12,-3,14,2,2,1,-2
1511884150931432,-2,12,0,-27,-35,-5,-3,-1
1511884150931432,-2,-5,0,19,15,13,3,1
1511884150951484,-1,0,0,-8,6,-1,0,-2
1511884150951484,2,3,6,11,-27,-18,-8,2
1511884150953489,0,9,7,15,11,1,-3,-2
1511884150953489,-5,-20,-9,10,-4,-4,-4,-4
1511884150967089,2,2,3,-12,7,9,4,0
1511884150967089,-1,-5,-9,-11,20,2,1,-2
1511884150969083,-3,1,3,-18,-14,-5,-5,-3
1511884150969083,-2,-4,-6,-27,-4,3,0,0
1511884150989148,2,8,4,22,-10,-1,0,1
1511884150989148,0,-4,-2,-16,-20,-9,-2,0
1511884150991152,1,-4,-3,-11,9,15,6,2
1511884150991152,0,-5,-6,22,20,-14,-2,1
1511884151012232,6,20,7,-20,-18,-3,-1,2
1511884151012232,-3,-11,-9,-44,-1,4,3,0
1511884151013243,0,0,1,16,9,5,4,1
1511884151013243,1,4,4,7,-29,-2,1,1
1511884151026273,-2,-5,0,6,0,-5,-3,1
1511884151026273,-3,-1,-1,-15,-1,2,2,-1
1511884151033264,2,1,-2,-3,-2,0,1,2
1511884151033264,-3,9,6,11,-2,-3,-2,-3
1511884151049336,-2,1,-11,-34,9,0,-2,-2
1511884151049336,-5,-2,1,54,18,12,0,-5
1511884151051342,-3,5,-4,9,5,-13,0,-2
1511884151051342,-5,-5,-8,2,-14,-15,-16,-6
1511884151072405,-4,-3,3,19,2,-15,-10,-3
1511884151072405,1,2,11,1,-23,3,2,-1
1511884151073902,-1,-7,-8,-6,12,7,7,3
1511884151073902,-4,-2,-5,-2,-11,1,-2,-7
1511884151085990,-1,-1,3,3,-9,6,6,3
1511884151085990,2,-10,-5,-11,-27,-22,-3,2
1511884151093007,1,12,3,-2,15,8,-5,-3
1511884151093007,1,3,5,-3,10,-3,4,3
1511884151109049,-2,-12,-7,-8,-16,16,1,-2
1511884151109049,1,5,-2,-10,12,16,7,2
1511884151111040,-3,-4,1,11,-15,-34,-12,-7
1511884151111040,3,3,-2,-23,39,18,3,5
1511884151132084,-3,2,-3,-1,-60,-55,-13,-4
1511884151132084,0,-4,-4,4,37,26,6,-1
1511884151133086,1,4,5,10,-12,-14,4,3
1511884151133086,3,3,4,12,-7,16,8,4
1511884151146148,0,5,5,3,16,12,-3,-1
1511884151146148,-2,-5,-9,-23,23,43,3,-3
1511884151153168,5,7,11,19,7,11,12,9
1511884151153168,-4,-5,-7,-28,-40,-40,-13,-6
1511884151169743,-12,-15,-14,-4,-9,-1,-28,-24
1511884151169743,0,5,-1,-1,-3,3,3,1
1511884151171247,1,-7,2,1,15,23,6,3
1511884151171247,7,12,13,68,32,28,21,11
1511884151192336,2,1,4,10,1,12,11,8
1511884151192336,2,6,4,-5,-9,-36,-6,1
1511884151193308,-10,-10,-19,-25,19,40,-7,-10
1511884151193308,-8,-7,1,8,-42,-75,-31,-14
1511884151205340,8,7,9,28,33,9,22,13
1511884151205340,0,-4,9,16,-19,0,-5,0
1511884151214365,1,-3,-4,-55,9,13,3,-2
1511884151214365,3,21,1,7,20,15,6,4
1511884151229428,-3,-18,-4,-4,-27,-10,-1,-1
1511884151229428,-1,13,4,-5,15,-2,6,-1
1511884151231438,2,16,9,12,-29,-35,-12,-1
1511884151231438,5,33,12,18,9,39,-6,-6
1511884151251490,-13,-68,-19,-29,5,11,25,6
1511884151251490,2,11,-9,-26,-7,-21,-9,1
1511884151253470,-7,-11,-12,1,-22,-19,-19,-8
1511884151253470,-1,12,5,-6,24,6,8,0
1511884151265551,5,20,5,-9,8,3,-2,3
1511884151265551,-2,-7,7,10,-27,-12,-11,-5
1511884151275052,3,9,-6,16,28,10,5,0
1511884151275052,0,-24,-10,-38,-8,8,9,6
1511884151289640,-1,5,-2,3,-21,-30,-22,-5
1511884151289640,-9,-32,-11,8,13,7,3,-4
1511884151290646,12,52,21,-14,-15,-18,-4,3
1511884151290646,-17,-64,-10,9,-15,3,6,-2
1511884151311699,2,16,0,-13,11,8,-3,-4
1511884151311699,3,20,8,31,-7,-4,-1,0
1511884151313681,-6,-18,-3,-8,-10,-6,1,-3
1511884151313681,3,5,-3,-42,-20,3,3,2
1511884151325713,2,-3,-3,34,18,-1,-4,-2
1511884151325713,1,10,-9,-54,-1,0,6,3
1511884151334737,-4,-34,-12,11,1,-5,-4,-1
1511884151334737,2,2,4,8,19,4,3,0
1511884151349777,3,20,14,45,19,4,-12,-3
1511884151349777,-2,-6,-20,-54,-44,-32,1,-5
1511884151350779,2,-2,1,3,-2,-3,-7,4
1511884151350779,1,-13,-11,-14,12,2,-4,-2
1511884151372361,2,32,9,-17,-25,9,7,-1
1511884151372361,-3,-29,3,32,29,8,3,1
1511884151373844,-7,-8,0,29,-12,-3,-1,-6
1511884151373844,0,1,1,-29,-29,-7,-1,1
1511884151385923,2,13,3,14,10,11,6,0
1511884151385923,-2,-26,-9,8,3,5,-2,2
1511884151394947,-3,-7,-8,-8,-7,-19,-12,-8
1511884151394947,-1,20,5,-3,15,-3,-6,-2
1511884151408988,-1,-17,-4,-15,-17,-9,2,3
1511884151408988,3,17,9,32,6,9,3,0
1511884151410966,-4,-3,2,11,-2,-11,-7,-4
1511884151410966,2,0,-8,-8,-20,-1,1,2
1511884151432052,0,-1,-3,-33,-6,2,9,0
1511884151432052,2,8,4,8,-5,-14,-15,-2
1511884151433055,2,1,4,0,12,19,17,4
1511884151433055,-2,-5,-3,2,7,-7,-8,-5
1511884151446059,1,2,1,9,7,9,12,1
1511884151446059,-1,0,-3,1,-23,-5,-11,-1
1511884151454082,1,19,11,-3,8,13,7,-4
1511884151454082,-3,-35,-8,27,8,-20,-20,-3
1511884151469661,1,11,-2,5,0,4,3,1
1511884151469661,2,6,-2,-27,4,10,6,0
1511884151471139,1,-6,5,7,2,3,5,4
1511884151471139,0,9,4,44,-2,2,6,1
1511884151492425,-3,0,-3,-8,14,-3,-6,-4
1511884151492425,0,-4,1,24,6,11,12,2
1511884151493474,-1,3,4,13,-7,7,3,1
1511884151493474,1,5,-2,-27,9,-20,-16,-4
1511884151505506,-5,-14,-8,-6,-31,-3,-2,0
1511884151505506,0,21,2,4,6,1,4,1
1511884151514488,-1,15,1,-26,21,14,6,-4
1511884151514488,-8,-44,-9,7,-64,-11,3,2
1511884151529524,-5,-11,-12,2,58,-16,-14,-8
1511884151529524,4,3,2,0,-3,-10,-9,2
1511884151531526,-2,-15,-6,1,-5,21,18,-1
1511884151531526,4,23,8,-2,15,-3,-7,1
1511884151552583,1,1,10,15,-13,2,3,0
1511884151552583,-3,-13,-16,-58,-10,-3,-10,-3
1511884151553613,-2,0,2,18,5,-11,-5,0
1511884151553613,3,13,-2,4,-2,19,15,0
1511884151565850,4,-6,1,11,9,-7,-5,6
1511884151565850,-9,-2,6,3,10,10,9,-7
1511884151574768,-1,-24,-6,-24,-9,10,11,1
1511884151574768,1,22,6,-13,5,-17,-18,0
1511884151589918,-6,-38,-14,-22,-8,7,3,-1
1511884151589918,-2,2,3,9,9,5,1,-3
1511884151590917,-1,-3,-1,-4,-18,-1,-2,2
1511884151590917,0,5,-10,-41,26,5,2,-4
1511884151611956,2,11,-1,-8,-6,6,0,1
1511884151611956,3,3,3,-9,21,-14,-8,-1
1511884151613961,-2,-9,-3,-14,-16,-5,-2,2
1511884151613961,4,11,13,45,31,15,5,0
1511884151626142,-1,8,-2,-20,0,-9,-7,-1
1511884151626142,-2,-5,-9,5,2,7,9,0
1511884151635128,4,6,-6,12,-9,-5,-9,0
1511884151635128,-6,-5,5,-4,-23,3,12,-2
1511884151649051,-7,6,-3,-62,10,-10,-14,-7
1511884151649051,1,-7,1,16,-39,-6,3,4
1511884151657073,-3,2,-2,14,9,-29,-22,-10
1511884151657073,-6,-18,-15,-18,0,10,6,0
1511884151672245,5,4,10,46,12,5,2,0
1511884151672245,0,7,-1,-20,2,6,9,4
1511884151673746,-1,8,3,6,-5,-17,-15,-2
1511884151673746,-3,-15,-6,-2,-8,4,8,0
1511884151685453,4,6,-2,7,-13,7,7,3
1511884151685453,-1,-2,11,38,12,-2,-6,-3
1511884151694475,-2,-8,-15,-42,-17,-1,0,-2
1511884151694475,-3,0,2,4,8,-12,-8,1
1511884151708473,5,5,3,27,-2,3,4,3
1511884151708473,1,7,6,-1,-25,-2,0,2
1511884151715515,-2,-27,-1,5,-21,-2,1,2
1511884151715515,1,24,3,-22,-6,9,-4,-3
1511884151731558,-7,-16,-6,-8,-8,-23,-9,-5
1511884151731558,4,-12,-4,27,1,-2,-7,0
1511884151733537,1,9,6,20,21,13,18,3
1511884151733537,0,4,-6,-43,-30,-11,-9,-1
1511884151745596,-3,-5,2,4,-30,6,7,-2
1511884151745596,-3,-3,-3,-1,9,-3,-6,-5
1511884151754593,2,10,-1,30,22,21,15,3
1511884151754593,2,-7,5,3,20,-9,-11,1
1511884151769181,-4,12,0,-7,-56,-12,-4,-4
1511884151769181,1,7,0,14,25,-2,-1,-1
1511884151775697,1,10,6,7,-10,2,4,3
1511884151775697,7,10,8,31,-5,-23,-13,2
1511884151792350,-4,-18,-16,-12,54,14,2,-1
1511884151792350,-3,0,0,-12,-33,-7,-1,0
1511884151793342,-2,-5,-4,-10,47,19,6,0
1511884151793342,0,8,-4,-10,-24,6,10,1
1511884151814385,-1,-6,-7,15,15,-3,-5,-3
1511884151814385,-2,0,2,11,-2,4,2,0
1511884151816391,3,10,-2,-19,19,6,2,2
1511884151816391,-5,-14,-2,18,22,8,1,-3
1511884151828423,-2,5,8,11,-1,-13,-11,1
1511884151828423,-1,1,-2,22,16,10,7,1
1511884151835467,-4,-15,-4,-40,-12,-17,-14,-2
1511884151835467,2,6,0,13,14,18,12,1
1511884151851482,0,-1,6,-7,-17,20,23,4
1511884151851482,3,3,4,11,-21,-37,-27,-3
1511884151853488,4,15,-6,16,0,-1,-3,0
1511884151853488,-13,-38,-9,16,-16,-5,-2,-5
1511884151874573,-5,-4,-4,-21,53,16,5,-6
1511884151874573,1,-1,-5,-25,-10,-3,-3,3
1511884151876051,-7,-7,-11,-11,46,-7,0,-6
1511884151876051,5,10,6,30,-30,-18,-13,-2
1511884151888585,0,3,5,10,-14,-2,-3,1
1511884151888585,0,2,5,4,-19,18,15,1
1511884151895604,-5,3,-4,-15,21,-6,-13,-6
1511884151895604,-2,-1,-2,4,33,12,8,2
1511884151911647,0,0,2,2,-23,12,6,5
1511884151911647,6,18,4,-7,67,-8,-18,-6
1511884151913652,-7,-23,-11,6,4,-23,-9,-2
1511884151913652,1,7,-12,-55,23,-3,1,-1
1511884151934735,5,0,3,12,5,7,1,2
1511884151934735,-3,8,-1,-16,-4,16,15,1
1511884151935711,-2,2,4,6,-27,3,-2,-1
1511884151935711,-2,-7,0,3,-5,-2,-7,-6
1511884151947769,1,17,10,18,-1,-11,-5,-1
1511884151947769,-4,-5,-7,-3,-10,1,1,-4
1511884151956768,3,4,-4,-33,-31,-3,2,4
1511884151956768,-2,-22,-1,7,9,19,18,0
1511884151972321,-3,-10,-10,-10,15,-2,-1,0
1511884151972321,0,-9,4,8,-45,-26,-21,-1
1511884151973815,1,8,8,-1,-9,8,-1,-2
1511884151973815,-1,-3,-10,-31,-50,6,10,-2
1511884151993897,0,2,0,-8,39,-18,-10,1
1511884151993897,0,-12,-1,-18,15,25,22,5
1511884151995901,-6,-3,0,15,-3,-19,-24,-16
1511884151995901,3,7,2,-10,9,20,14,2
1511884152007966,3,3,3,11,-23,-20,-14,1
1511884152007966,-10,-21,-7,16,34,-1,-4,-4
1511884152016990,6,14,8,0,-33,-1,2,6
1511884152016990,-2,17,5,32,45,8,3,-1
1511884152032027,-7,-22,-6,-21,-15,4,-1,-6
1511884152032027,2,6,-4,-8,31,6,3,-2
1511884152033027,-2,-11,0,13,1,-12,-10,1
1511884152033027,0,11,10,15,-9,-7,-7,0
1511884152054083,4,13,3,-8,-12,4,3,2
1511884152054083,-6,-3,-19,-46,-29,-14,-4,-5
1511884152056069,2,-2,8,9,9,19,17,5
1511884152056069,2,-3,-3,-24,-8,-36,-28,-1
1511884152068123,-3,-7,-7,16,-9,-10,-9,-1
1511884152068123,5,8,10,8,12,18,15,3
1511884152076618,1,-8,-5,-3,-25,5,7,-2
1511884152076618,0,6,1,-1,49,17,10,3
1511884152092037,8,5,2,5,-25,2,2,2
1511884152092037,-3,-5,0,-2,10,-8,-7,-3
1511884152093032,1,5,4,9,-18,-12,-4,3
1511884152093032,-2,1,6,8,1,8,7,0
1511884152114091,-8,-18,-6,-11,4,1,6,-8
1511884152114091,-1,0,-1,9,-5,1,-11,0
1511884152116070,-3,6,5,10,6,-15,-9,-4
1511884152116070,-2,-9,-2,-12,-36,-9,-6,2
1511884152128128,-1,-4,-2,-12,11,13,6,0
1511884152128128,1,9,6,25,-4,-1,3,-1
1511884152137126,1,-7,-1,-13,2,15,13,1
1511884152137126,2,19,8,-3,4,-4,-4,1
1511884152152165,-4,-19,-7,-23,-2,-14,-9,-2
1511884152152165,-2,-5,-6,-9,-19,-3,-2,-2
1511884152153168,-2,-9,1,12,3,2,-2,-2
1511884152153168,-3,5,-7,8,-19,-5,-1,-5
1511884152174751,3,9,9,16,4,7,0,-1
1511884152174751,3,2,-9,-23,-12,-10,-3,0
1511884152176231,1,12,5,8,13,3,1,2
1511884152176231,1,-18,-1,3,3,-10,-6,-4
1511884152188317,-7,1,-7,18,-13,1,10,3
1511884152188317,1,-8,-3,-24,3,13,5,-1
1511884152197340,3,9,-3,18,23,-14,-11,-2
1511884152197340,-1,-4,-7,-49,-17,-7,-5,-1
1511884152211351,2,-3,1,20,-8,7,4,0
1511884152211351,-3,5,3,-6,-10,-4,0,-3
1511884152213356,-1,-7,-3,0,-20,-7,-10,-3
1511884152213356,-2,-8,-5,10,23,5,8,1
1511884152234413,3,13,5,12,22,-1,-9,-1
1511884152234413,-3,-4,-5,-27,-6,5,5,-3
1511884152236419,8,13,8,-1,5,5,1,5
1511884152236419,-2,-4,-7,16,11,3,1,0
1511884152248476,-4,6,8,-11,-28,-7,-3,-3
1511884152248476,1,-4,3,28,15,-2,-7,-3
1511884152257474,1,7,-1,3,-31,0,5,3
1511884152257474,-5,-33,-9,7,5,8,7,1
1511884152272014,5,19,6,0,8,3,0,0
1511884152272014,-1,-14,-5,-20,-19,1,6,4
1511884152273518,1,5,-7,-32,7,-2,1,3
1511884152273518,-1,-5,0,8,-20,-18,-14,-6
1511884152294200,1,-2,-3,-14,4,0,-3,-1
1511884152294200,2,-3,2,25,23,-1,-2,1
1511884152296199,1,4,3,25,8,9,9,1
1511884152296199,2,15,5,-11,-8,10,5,1
1511884152308231,-1,-9,-3,-32,-13,-12,-7,0
1511884152308231,-2,3,0,2,-2,0,3,0
1511884152317255,-2,-2,-6,1,11,6,-2,-4
1511884152317255,2,-3,-2,18,26,-6,-9,2
1511884152332323,-3,3,1,-3,3,2,2,-6
1511884152332323,-2,-3,2,6,13,4,2,1
1511884152333325,-5,-7,-1,-7,-8,-21,-12,-2
1511884152333325,-2,-3,2,14,-7,5,-4,-3
1511884152354385,3,5,-2,-8,3,3,6,2
1511884152354385,-3,-6,2,18,-5,-3,-5,-3
1511884152356387,-5,-13,-6,-5,-1,5,1,-3
1511884152356387,0,7,-2,-24,-10,-10,-5,-4
1511884152368421,-1,-4,1,12,1,-3,0,2
1511884152368421,-1,5,1,2,-25,-10,-4,-2
1511884152376944,-3,-8,2,2,9,21,17,1
1511884152376944,0,4,10,-2,-26,-29,-15,-1
1511884152391464,0,1,-1,6,20,2,-4,-3
1511884152391464,-1,-1,0,-2,6,-2,-7,-4
1511884152393468,4,-1,-9,-19,-5,7,10,2
1511884152393468,-2,-1,4,-4,-21,4,-5,-1
1511884152414551,-3,-8,-7,-13,-44,-16,-7,-1
1511884152414551,6,19,4,16,55,2,4,3
1511884152415553,-6,-16,7,17,12,-7,-9,-4
1511884152415553,1,16,-5,-17,1,17,15,1
1511884152436610,-4,-33,-8,-1,0,-2,-2,-3
1511884152436610,0,-1,-4,-6,-17,-4,-1,1
1511884152438588,3,9,1,-1,0,1,-1,-1
1511884152438588,1,1,-1,-2,13,0,2,1
1511884152451652,-2,0,-3,7,13,3,0,-1
1511884152451652,0,-3,-6,-31,-15,-2,3,0
1511884152453628,-4,-11,-13,-10,-21,-10,-6,1
1511884152453628,0,-2,-3,-10,0,5,2,0
1511884152474741,-2,8,3,3,-11,-1,-1,0
1511884152474741,-1,-7,0,-4,-14,8,8,-4
1511884152476223,1,14,5,-27,-25,-22,-17,-1
1511884152476223,-6,-19,-6,13,4,6,3,-4
1511884152488546,2,11,0,9,6,4,1,-1
1511884152488546,1,2,11,15,4,2,1,3
1511884152497440,-2,-15,-7,-8,-7,-5,0,-7
1511884152497440,-4,-3,-1,15,-4,-7,-6,-5
1511884152511603,1,2,-6,-28,5,7,3,4
1511884152511603,-5,-4,3,22,-14,5,1,-1
1511884152513483,4,14,7,25,9,-7,-5,0
1511884152513483,-2,1,-5,2,-19,1,3,1
1511884152534653,-5,-20,-7,-28,9,0,7,-4
1511884152534653,-2,8,-8,-26,-24,-4,-9,-3
1511884152536559,0,-2,-3,14,19,-9,-3,-1
1511884152536559,4,7,2,20,24,12,6,3
1511884152548591,5,15,10,11,1,9,4,1
1511884152548591,-4,-13,-2,-6,-5,-28,-14,-1
1511884152556598,-4,-6,-2,2,-6,8,4,-2
1511884152556598,4,20,9,-2,-21,-7,-1,0
1511884152571720,-2,-31,-15,9,-11,2,2,-1
1511884152571720,3,9,5,-4,7,4,-1,0
1511884152578275,1,-1,6,4,-10,0,-3,-1
1511884152578275,-4,-10,-8,-3,16,2,4,1
1511884152593494,1,16,13,17,15,3,2,2
1511884152593494,-1,-6,-5,2,-29,-7,-2,0
1511884152602339,0,7,-6,-13,36,-1,-8,-2
1511884152602339,2,-1,11,27,-8,-2,0,1
1511884152608378,0,10,3,1,-4,-12,-3,-1
1511884152608378,-3,-4,-9,-21,8,0,-6,-1
1511884152617380,1,-4,-1,3,8,15,15,2
1511884152617380,-2,2,2,7,8,7,-2,-3
1511884152631418,-2,-5,-9,-34,-3,-20,-13,-2
1511884152631418,0,-7,-4,20,15,3,2,0
1511884152638480,1,4,2,-12,-14,6,5,2
1511884152638480,-2,-5,-3,-5,2,1,-1,-3
1511884152654507,3,14,9,16,-6,-3,-3,-1
1511884152654507,-1,-1,-3,-7,12,17,22,4
1511884152656484,-3,-8,-4,-11,1,-15,-14,-7
1511884152656484,1,7,1,2,11,-3,-1,4
1511884152668019,1,-3,-6,-2,-14,0,-3,-2
1511884152668019,-2,-6,-3,-1,9,-1,-1,0
1511884152677044,-2,0,-7,3,-18,5,6,0
1511884152677044,0,-4,-3,-7,9,0,1,0
1511884152691368,-1,8,4,-4,-22,-4,-2,-1
1511884152691368,0,2,-8,7,-5,-10,-8,-3
1511884152698387,-3,-7,-5,-9,-17,1,4,1
1511884152698387,-1,7,4,-5,-17,-3,-5,-5
1511884152714426,2,8,3,17,28,0,-1,3
1511884152714426,0,0,3,-10,-3,-2,-4,-4
1511884152715429,-4,-4,4,10,9,3,1,-1
1511884152715429,4,5,-1,-18,-25,2,3,1
1511884152728462,0,-4,-5,-4,-8,-3,12,5
1511884152728462,-2,-1,5,15,-17,-20,-24,-7
1511884152736505,-1,-1,0,-16,9,1,0,0
1511884152736505,0,4,1,-8,-14,-7,-5,1
1511884152751554,-2,9,7,17,13,10,4,-1
1511884152751554,0,6,-4,-17,20,4,-2,-1
1511884152757540,-4,-16,-8,-19,-15,-3,-2,-3
1511884152757540,-3,-9,-5,4,-1,3,7,0
1511884152774611,0,3,2,10,-5,-8,-9,0
1511884152774611,-2,7,5,4,-20,-1,0,-3
1511884152776092,2,4,5,11,-9,-2,-1,1
1511884152776092,-1,5,0,-4,-24,-3,1,-2
1511884152796675,-2,-10,-9,-19,6,-6,-5,-4
1511884152796675,0,-6,2,50,9,4,3,5
1511884152798680,0,2,-12,-46,-6,-6,0,1
1511884152798680,0,-8,-11,-33,13,4,0,0
1511884152810689,0,3,6,-9,-9,2,-6,-6
1511884152810689,0,-19,-5,6,-14,-17,-1,1
1511884152817707,1,15,7,12,21,4,-3,-3
1511884152817707,0,13,2,2,-13,-2,3,2
1511884152834752,-7,-33,-17,-26,23,0,-4,-3
1511884152834752,3,8,0,-9,18,12,8,2
1511884152835756,1,3,4,44,3,8,3,0
1511884152835756,2,-7,-8,-25,12,-8,3,6
1511884152856839,1,12,5,-1,-10,-3,-1,-4
1511884152856839,-4,-6,-1,10,7,9,5,-1
1511884152858840,0,-7,-4,29,11,1,-2,0
1511884152858840,-2,-1,4,14,-2,-4,-6,-7
1511884152878944,1,1,3,9,-25,0,-1,0
1511884152878944,-3,-5,-5,-35,0,-20,-5,-1
1511884152880937,0,1,3,50,-5,3,7,-1
1511884152880937,0,-7,-6,-25,7,1,0,-1
1511884152893960,-3,-2,-3,-1,-2,6,3,-4
1511884152893960,2,12,4,-5,-5,-6,-7,0
1511884152895965,-1,-6,-1,-1,9,-1,-1,-2
1511884152895965,-2,3,-4,-18,15,-3,-7,-3
1511884152917048,2,1,2,20,10,1,4,3
1511884152917048,-6,-45,-8,-5,-5,10,1,-6
1511884152918052,-2,16,4,-20,-11,-7,-1,0
1511884152918052,7,12,7,22,-1,-1,-3,3
1511884152931071,-8,-11,-10,-8,26,7,-1,-4
1511884152931071,5,21,4,-5,20,18,21,3
1511884152939107,-1,-7,-1,-15,-54,-46,-38,-7
1511884152939107,-2,-9,-9,-22,-22,-1,-1,-2
1511884152954147,5,13,11,12,-1,-1,-1,4
1511884152954147,-5,-7,-1,-5,-11,3,0,-2
1511884152956125,-4,-5,0,9,9,10,7,-1
1511884152956125,-3,1,5,11,-9,-4,-1,-2
1511884152977233,-2,-14,-11,-16,-20,-5,-2,-1
1511884152977233,5,14,4,-20,-9,-5,-5,0
1511884152978251,2,11,-3,-28,5,3,5,1
1511884152978251,-10,-27,-5,25,16,0,-2,-3
1511884152990318,1,9,-1,-21,-6,1,3,0
1511884152990318,2,0,-1,26,2,3,-2,0
1511884152999306,5,13,1,-20,-5,-5,-2,1
1511884152999306,0,-7,-2,15,14,9,3,-1
1511884153014378,-4,-8,2,13,1,-3,-4,-2
1511884153014378,-1,11,1,27,-4,1,1,-1
1511884153016379,0,-4,-6,-41,0,4,4,2
1511884153016379,-1,11,3,7,-11,0,-1,-1
1511884153036432,-3,-21,-5,33,27,4,3,-1
1511884153036432,-1,-3,-9,-22,-10,-10,-14,-3
1511884153038417,-2,-3,4,-6,-20,7,12,0
1511884153038417,1,2,3,9,20,-5,-2,-1
1511884153050469,3,4,4,-5,-21,-8,-5,0
1511884153050469,-4,-5,-8,-18,7,16,14,-3
1511884153059468,-2,-9,2,23,-14,-17,-23,2
1511884153059468,0,0,1,10,-8,-9,-3,-1
1511884153074533,1,6,2,-4,1,9,5,0
1511884153074533,2,4,0,6,-4,9,4,2
1511884153076013,1,1,-10,-37,-8,-19,-10,-5
1511884153076013,-3,-9,-3,-2,-11,3,2,1
1511884153096783,-2,6,-2,0,3,-2,-4,-2
1511884153096783,-1,-7,-1,4,11,4,4,1
1511884153098818,1,19,7,4,24,13,12,2
1511884153098818,-3,-15,-8,-16,12,-21,-20,-3
1511884153110821,1,11,2,4,11,20,19,0
1511884153110821,-2,-11,-5,4,-16,-25,-25,-3
1511884153119872,1,1,5,1,10,3,2,-2
1511884153119872,2,4,-3,-5,10,7,4,2
1511884153133909,-1,7,4,21,-7,2,-1,-2
1511884153133909,-1,8,-2,3,6,-7,-6,-3
1511884153135888,-1,-24,-10,15,5,17,18,3
1511884153135888,-3,1,2,11,-26,3,3,-6
1511884153156975,2,-4,1,-14,-6,-25,-17,0
1511884153156975,2,5,5,-4,-5,5,3,1
1511884153158949,-3,-8,2,4,9,3,4,1
1511884153158949,-1,-4,0,9,-34,5,6,-1
1511884153170507,0,3,-2,-5,10,3,1,-1
1511884153170507,3,11,5,14,19,-8,-4,2
1511884153179596,-2,-7,-3,-4,-6,18,9,-4
1511884153179596,2,-6,-3,-11,0,-18,-10,2
1511884153194636,-5,-7,-14,-33,5,-10,-9,-5
1511884153194636,2,7,7,20,-23,4,12,2
1511884153195673,1,2,11,58,10,-4,-13,-4
1511884153195673,-1,-2,-3,-23,23,16,20,3
1511884153216693,0,1,-2,-25,-77,-34,-19,-7
1511884153216693,1,4,2,-9,-38,2,5,5
1511884153218700,-2,2,-10,3,20,-13,-10,-3
1511884153218700,2,7,8,15,20,9,1,-1
1511884153230758,0,2,3,19,9,3,0,0
1511884153230758,-1,-4,-2,-28,0,14,17,-1
1511884153239755,-3,-3,0,5,-18,-9,-7,-1
1511884153239755,1,2,-4,-6,-4,-15,-16,-1
1511884153254795,-6,1,5,9,23,-3,-4,-8
1511884153254795,0,-3,-3,1,-28,-17,-12,-4
1511884153255797,-1,11,5,-4,19,12,-5,-6
1511884153255797,3,-15,2,11,33,8,24,11
1511884153276903,4,6,-1,6,29,24,10,0
1511884153276903,0,5,5,10,26,-15,-16,0
1511884153278451,-4,-28,-13,-28,-9,9,7,-3
1511884153278451,1,22,-3,-19,40,-8,-10,-3
1511884153290507,0,-8,1,9,-26,-2,1,3
1511884153290507,1,3,1,-1,9,-3,-1,-1
1511884153299507,-6,-22,-1,19,5,15,-1,-4
1511884153299507,-1,1,1,11,-11,-21,-6,5
1511884153314571,3,-4,-8,-10,1,14,18,6
1511884153314571,-2,9,-3,10,15,6,-1,-5
1511884153315573,5,14,-4,-13,43,9,8,5
1511884153315573,-7,-39,-13,-6,-21,15,2,-8
1511884153336632,-4,-2,-2,-4,17,-23,-16,2
1511884153336632,-4,-12,-9,-14,16,-1,-3,-4
1511884153338611,5,14,8,11,-6,0,2,0
1511884153338611,-1,5,2,20,-2,9,11,4
1511884153350668,-2,-1,-4,-20,1,6,8,4
1511884153350668,-2,-5,-1,4,4,-14,-6,-3
1511884153359667,-7,-10,-7,-13,-10,-7,-2,1
1511884153359667,6,34,12,7,-1,0,-6,-1
1511884153374733,-4,-26,-9,8,-12,21,15,-2
1511884153374733,-3,-6,0,-12,-6,-11,-13,-6
1511884153376214,4,6,9,30,-9,-11,10,9
1511884153376214,1,22,-1,-45,-23,-3,-7,-8
1511884153396800,-4,-23,-12,-1,2,3,-6,-4
1511884153396800,3,7,2,-2,-8,-3,0,0
1511884153398804,-2,2,-1,17,-7,-15,-11,-5
1511884153398804,3,9,5,9,-4,2,0,2
1511884153410841,2,25,8,-2,30,1,1,-1
1511884153410841,-5,-12,-7,1,4,11,2,0
1511884153419862,2,4,-7,-49,-17,-1,4,2
1511884153419862,-6,-9,5,16,4,-5,2,-2
1511884153433900,5,10,3,4,-16,-1,-1,0
1511884153433900,-4,-7,3,8,-3,-7,-12,-6
1511884153435894,0,3,5,5,-2,-3,1,-2
1511884153435894,-5,-18,-11,-8,3,0,-9,-4
1511884153456962,-1,1,1,-3,0,-5,-3,-1
1511884153456962,1,1,4,8,-13,-1,3,1
1511884153457964,2,3,7,0,7,5,4,3
1511884153457964,-3,6,0,5,-9,2,1,-3
1511884153471077,0,-22,-5,-3,-18,-3,-6,-1
1511884153471077,-2,2,-2,-1,4,-3,0,-2
1511884153479656,-2,1,-4,-10,-22,-3,-3,-3
1511884153479656,-2,-4,-4,-23,1,1,-7,-6
1511884153493822,0,1,-1,-10,-6,4,3,3
1511884153493822,3,7,4,-8,-14,-11,8,9
1511884153500715,-2,-13,-9,-14,-11,0,-1,-5
1511884153500715,0,-10,0,13,46,5,-3,-3
1511884153516758,-1,15,3,-8,-12,-11,-5,-2
1511884153516758,1,0,2,20,-4,5,3,-1
1511884153518761,-2,-5,-8,-8,3,3,-3,-2
1511884153518761,4,-2,2,8,-14,4,11,5
1511884153530898,-1,9,4,18,6,2,-8,-5
1511884153530898,1,1,0,-5,12,-2,6,7
1511884153539817,-1,2,1,9,-2,1,-4,-2
1511884153539817,-4,-3,2,9,-5,2,-2,-3
1511884153553931,2,0,-2,3,0,-3,0,1
1511884153553931,-1,-3,-3,-4,-3,11,2,-1
1511884153560871,5,14,4,2,2,1,1,1
1511884153560871,-1,-20,-10,-5,-10,-9,-6,-1
1511884153577105,-3,4,5,-3,2,1,1,-4
1511884153577105,3,1,-6,9,12,-3,1,1
1511884153578604,-2,-5,1,-6,-14,2,1,-1
1511884153578604,0,9,2,-28,4,-11,-6,-3
1511884153590735,1,-4,-3,1,-3,-1,6,3
1511884153590735,-6,-10,-4,-3,3,4,-1,-6
1511884153599659,5,12,5,13,53,4,1,8
1511884153599659,3,16,-2,-3,-22,-1,5,0
1511884153613696,-5,-40,-7,-5,-11,-9,-15,-3
1511884153613696,-3,0,-2,-5,15,9,7,0
1511884153620718,-3,-7,-3,-8,-60,-11,5,1
1511884153620718,-1,11,0,2,-10,-4,-8,-3
1511884153636944,1,10,6,29,0,3,7,-1
1511884153636944,3,0,-7,-34,-13,-4,-11,1
1511884153638763,-6,-15,-4,12,17,3,-5,-6
1511884153638763,4,0,-5,-13,-4,10,9,8
1511884153650798,1,10,4,6,-12,-4,0,-2
1511884153650798,-1,-3,-1,0,-2,-2,2,1
1511884153659820,-2,4,0,4,11,3,1,-5
1511884153659820,-2,-7,2,23,6,5,2,-2
1511884153673965,-2,-3,-9,-3,-17,-19,-16,-6
1511884153673965,-3,-4,-5,-11,-30,-1,5,-2
1511884153680642,2,10,4,4,-9,-1,-4,2
1511884153680642,-5,-10,-4,-15,12,-2,-1,-3
1511884153696685,2,0,2,-1,38,12,5,2
1511884153696685,0,5,-2,5,7,-3,-6,-1
1511884153698691,-1,0,-5,-10,-3,2,1,-1
1511884153698691,0,-4,3,16,-15,3,4,2
1511884153719746,-2,0,4,-8,8,-2,3,0
1511884153719746,-1,-5,3,3,-1,-2,-3,-3
1511884153720749,3,7,6,11,5,-2,-1,1
1511884153720749,1,5,-3,-12,6,3,-4,-3
1511884153734814,0,-4,-2,12,9,-4,-1,3
1511884153734814,-2,-8,-4,-12,-10,3,-2,-3
1511884153735790,-5,-10,-6,-9,2,-3,-1,0
1511884153735790,1,3,4,-13,-5,-2,-4,0
1511884153756846,-2,1,-6,-28,-16,-10,-3,-4
1511884153756846,-2,0,3,-2,7,12,7,1
1511884153758851,-3,5,0,-4,5,-15,-13,-5
1511884153758851,-5,-30,-5,7,0,2,6,4
1511884153779517,0,-2,-8,7,-14,2,-1,-1
1511884153779517,-1,-6,3,5,21,8,0,1
1511884153780519,-3,-1,-3,-16,-19,-11,0,-5
1511884153780519,0,5,-3,8,3,5,-4,-2
1511884153794534,1,5,2,8,-5,3,8,2
1511884153794534,2,0,7,39,7,-1,0,1
1511884153795560,-1,-13,-9,-27,2,4,-1,-1
1511884153795560,0,4,7,14,-16,-8,-7,-2
1511884153816619,-2,3,0,1,1,2,3,0
1511884153816619,5,8,3,4,-1,4,2,1
1511884153818598,1,9,8,13,7,-1,7,-3
1511884153818598,-8,-18,-7,20,10,-12,-8,-4
1511884153839653,3,11,1,-16,1,1,-5,2
1511884153839653,0,1,-6,-40,-12,0,1,-1
1511884153840657,1,-3,-1,3,-7,3,0,2
1511884153840657,2,17,7,9,5,5,6,0
1511884153853720,-5,-17,-8,-14,-7,0,-1,-2
1511884153853720,0,4,4,21,-12,3,1,2
1511884153860710,-3,-13,-2,5,16,12,-5,-2
1511884153860710,3,7,-5,-12,-7,-21,-10,-2
1511884153877282,1,6,3,2,11,5,6,6
1511884153877282,-2,10,5,-10,-1,-11,-10,-5
1511884153878357,-3,-8,1,31,-3,19,15,0
1511884153878357,1,5,-2,-4,-6,-18,-15,1
1511884153899443,0,6,3,-7,6,1,-1,-5
1511884153899443,-2,-15,-8,-21,4,-5,0,0
1511884153901420,1,3,2,12,-12,-15,-11,-2
1511884153901420,3,9,-1,-4,-5,9,9,0
1511884153913478,-3,-5,4,-3,6,6,0,0
1511884153913478,-4,-17,-1,18,-2,-10,0,2
1511884153920497,-2,8,-6,-13,2,5,7,0
1511884153920497,-1,-5,3,14,-5,-6,-13,-3
1511884153936539,2,7,-2,-31,-5,6,6,-1
1511884153936539,0,1,-3,3,-3,-5,-4,2
1511884153938518,-2,-1,0,1,1,1,-4,-4
1511884153938518,-4,-8,-7,-7,5,6,6,2
1511884153959601,1,5,0,9,4,-2,-3,1
1511884153959601,-3,4,5,14,2,2,-2,-6
1511884153960577,4,-3,-6,-21,3,-8,-3,2
1511884153960577,-4,-5,0,-9,-1,15,11,-4
1511884153973628,-7,-8,-4,-9,-31,-22,-13,-2
1511884153973628,4,-1,-3,-9,-3,1,3,3
1511884153980574,-2,-5,0,16,-2,-7,-6,2
1511884153980574,-2,10,3,-11,-17,4,3,-4
1511884153996613,2,-7,2,25,11,6,5,1
1511884153996613,0,1,-10,-26,-26,-2,-1,0
1511884153998596,-5,3,-9,-16,21,2,3,-3
1511884153998596,2,0,6,-4,-16,-2,-5,-1
1511884154019651,1,4,1,2,-4,-4,3,0
1511884154019651,-1,5,-1,5,-21,-10,-6,0
1511884154020654,3,-4,2,3,-7,3,-3,0
1511884154020654,-4,0,-8,-2,15,4,-2,-3
1511884154033689,1,2,9,11,-10,4,8,5
1511884154033689,-3,6,7,-4,13,-1,2,-5
1511884154040737,3,-11,-5,4,-17,-16,-12,3
1511884154040737,-5,-7,-2,-13,3,0,-1,-3
1511884154056777,3,6,-4,4,3,5,0,-1
1511884154056777,2,0,1,8,15,10,9,0
1511884154058755,-4,0,2,15,-15,-11,-7,2
1511884154058755,-2,-11,-3,-5,11,-3,-2,-2
1511884154078882,-1,7,-6,-31,-1,-3,-8,-5
1511884154078882,-5,-23,-3,17,6,7,5,-1
1511884154080863,-1,-5,-4,-13,-29,-10,0,0
1511884154080863,5,9,4,14,2,0,-4,2
1511884154093897,-5,-6,-3,5,7,0,5,-3
1511884154093897,3,8,0,4,-4,-10,-10,1
1511884154100947,-10,-14,1,-5,1,9,6,-6
1511884154100947,0,-1,-4,12,4,4,6,1
1511884154116986,3,4,5,-8,-3,17,14,2
1511884154116986,2,5,4,15,10,-16,-10,6
1511884154117989,0,2,-3,-25,9,-6,-9,-5
1511884154117989,0,2,-4,-41,-46,-4,5,0
1511884154139021,-5,-6,-2,14,46,2,-4,-3
1511884154139021,-3,-7,1,17,7,16,5,-4
1511884154141025,2,9,3,-4,5,4,3,1
1511884154141025,2,2,2,14,12,0,4,1
1511884154154057,4,7,6,-9,-10,-1,-8,-1
1511884154154057,-2,-2,-7,-37,-14,-10,-3,1
1511884154160101,-1,3,3,14,9,-2,-3,-1
1511884154160101,3,-2,5,12,5,5,3,3
1511884154177173,-9,-7,-5,3,-14,-9,-12,-8
1511884154177173,-3,0,1,3,13,4,-1,-2
1511884154178246,4,0,1,21,-4,-5,1,1
1511884154178246,0,-8,-7,-19,2,2,-2,0
1511884154199329,1,8,5,6,-4,2,4,3
1511884154199329,0,0,-1,-4,-3,0,0,-3
1511884154201336,-4,-6,0,13,24,13,3,5
1511884154201336,1,-2,-7,-16,-33,-12,-1,-1
1511884154213366,4,1,1,-1,2,-9,-2,3
1511884154213366,-7,-10,-4,2,1,15,1,-7
1511884154222390,7,13,3,-10,-6,5,1,2
1511884154222390,-7,-3,0,27,13,-8,-5,-4
1511884154236427,-2,-4,-7,-22,-14,4,5,1
1511884154236427,-1,5,-5,-10,-24,-8,-4,-2
1511884154238409,-3,-1,-1,-3,-2,6,-2,-2
1511884154238409,-6,-17,-6,13,14,-8,-4,0
1511884154259488,1,-5,-2,12,-6,0,1,0
1511884154259488,6,16,1,-21,2,-12,-2,3
1511884154260464,0,-6,-8,-19,-11,-1,-3,-4
1511884154260464,-1,5,6,2,6,10,6,-1
1511884154273033,1,-3,-2,14,14,3,-2,-3
1511884154273033,1,-2,-2,-12,18,-4,3,8
1511884154282141,-1,8,2,3,-3,-2,0,-5
1511884154282141,-4,-21,-8,-3,-5,0,-1,-1
1511884154297204,2,2,-4,-3,2,-2,-5,-2
1511884154297204,5,5,3,-2,-28,-5,-2,2
1511884154298184,-6,-8,-4,-3,29,9,9,-2
1511884154298184,0,3,5,22,7,-8,-12,-2
1511884154319271,-1,-2,-10,-29,-11,0,-4,-1
1511884154319271,1,-1,3,9,-16,-7,-7,-2
1511884154321269,4,6,3,6,-4,-14,-5,4
1511884154321269,0,5,3,-17,-20,3,0,-1
1511884154333303,-1,-4,1,-10,8,-3,5,0
1511884154333303,-2,-8,-2,14,-3,26,7,-2
1511884154342302,-6,-1,-2,-8,-10,-4,-4,-4
1511884154342302,4,3,-1,3,10,0,2,3
1511884154356365,0,1,3,15,4,-6,-3,-1
1511884154356365,-3,6,4,2,-4,-15,-6,-2
1511884154363382,-4,-10,-6,0,12,7,-3,-4
1511884154363382,-4,3,-1,-3,0,3,2,-4
1511884154379361,3,2,4,7,6,-3,-2,1
1511884154379361,4,3,-6,10,10,-2,0,-1
1511884154381389,-6,-11,-3,6,-8,-2,0,0
1511884154381389,2,16,6,3,7,-2,-3,0
1511884154393425,-5,-16,-11,-5,-11,-1,-5,-1
1511884154393425,-1,8,4,-10,5,-2,2,0
1511884154402453,5,7,2,-6,9,8,-2,-1
1511884154402453,0,-3,-3,-7,-2,0,1,-1
1511884154416486,-3,1,4,12,-3,-5,-2,-1
1511884154416486,2,1,-4,-7,-10,7,5,-4
1511884154418465,3,4,0,-11,-18,-27,-9,1
1511884154418465,-7,-21,-5,14,8,-3,-11,-5
1511884154439547,5,4,0,0,-4,8,2,0
1511884154439547,-5,-8,-2,6,-5,4,9,3
1511884154440550,3,13,5,-4,-10,-13,-8,-3
1511884154440550,1,10,2,8,4,4,7,1
1511884154452582,-1,-3,1,-13,10,2,-1,-3
1511884154452582,5,26,6,16,12,11,1,0
1511884154462107,-1,-32,-11,13,-13,-3,4,1
1511884154462107,-6,-12,-5,-2,-8,1,1,0
1511884154476680,2,12,3,5,-5,-14,-12,-2
1511884154476680,-10,-13,-6,-3,1,-9,-7,-6
1511884154483481,8,15,8,-8,4,4,5,6
1511884154483481,0,-1,-1,-5,-3,1,-1,-2
1511884154499524,-1,2,1,15,-21,2,3,2
1511884154499524,-1,-7,-3,-11,-7,-5,-8,-3
1511884154501506,-2,0,-6,2,1,-4,2,-2
1511884154501506,0,3,-1,-21,-1,13,9,3
1511884154513542,0,0,0,8,18,-8,-2,4
1511884154513542,1,-24,-1,15,33,-6,-5,3
1511884154521600,-2,8,-10,-46,-5,25,13,-3
1511884154521600,0,6,3,3,8,-19,-18,-2
1511884154536733,0,-5,-1,9,17,-20,-9,1
1511884154536733,-6,-8,-2,-26,7,10,-5,-4
1511884154543617,1,-1,4,30,-4,6,6,1
1511884154543617,1,2,-4,-12,10,10,8,-2
1511884154559781,1,-4,2,4,-18,7,1,1
1511884154559781,-1,-3,-2,-11,2,-4,2,-1
1511884154560662,2,1,4,8,6,3,-2,-1
1511884154560662,1,6,0,-1,-4,4,10,5
1511884154573200,-9,-7,3,23,-7,-8,-13,-11
1511884154573200,1,17,-4,-40,-18,-7,-6,-3
1511884154581753,-6,-51,-8,7,-31,-4,-5,-1
1511884154581753,0,-1,-3,8,-1,-5,-3,-2
1511884154595875,0,6,1,-17,-2,9,10,2
1511884154595875,4,9,1,18,16,-1,-1,0
1511884154602892,4,23,9,21,8,-1,-3,-1
1511884154602892,-3,-19,-6,-29,-9,-1,1,0
1511884154619951,-2,-2,-2,-9,-5,-1,-3,-3
1511884154619951,1,2,3,8,-7,-8,-1,1
1511884154620827,-2,2,-8,-9,10,1,1,0
1511884154620827,4,3,3,13,0,-2,0,2
1511884154641961,5,23,3,-5,5,0,-3,1
1511884154641961,-10,-53,-18,-21,-5,3,1,-4
1511884154643889,-3,-1,2,-19,-1,-4,-1,-2
1511884154643889,1,17,7,29,3,-3,-4,-3
1511884154655924,0,-19,-8,-1,-3,3,4,-2
1511884154655924,-3,-5,-9,9,-5,14,9,-1
1511884154663441,5,5,6,-6,-1,-11,-7,6
1511884154663441,6,14,4,13,-4,-10,-11,-5
1511884154679536,-17,-44,-15,-34,4,5,5,-3
1511884154679536,7,26,12,-4,6,7,4,1
1511884154680539,-9,-34,-21,-5,-22,1,1,-3
1511884154680539,7,21,8,3,19,0,-2,2
1511884154701594,5,9,5,15,3,-2,1,2
1511884154701594,1,-1,-1,6,4,-1,-3,0
1511884154703597,-11,-10,-3,8,6,4,7,0
1511884154703597,7,10,9,5,-9,16,17,4
1511884154716631,0,-12,-16,-36,-20,-30,-28,-4
1511884154716631,-10,-20,4,16,10,3,3,-2
1511884154722649,8,43,15,17,5,9,0,-1
1511884154722649,-8,-57,-16,17,0,-8,7,1
1511884154739723,2,18,-6,-30,6,10,6,0
1511884154739723,5,4,7,5,-25,-5,0,2
1511884154740695,-1,-6,-2,12,-9,-9,-10,-2
1511884154740695,-8,-2,8,-3,12,14,3,-4
1511884154762257,5,16,-2,3,-13,0,7,1
1511884154762257,-2,-2,5,11,-1,-10,-9,1
1511884154763761,1,7,-8,-18,0,11,10,1
1511884154763761,-3,-5,-3,4,-12,-15,-11,0
1511884154775792,-3,-3,4,23,11,3,-8,-8
1511884154775792,1,8,-2,3,-9,-14,-2,5
1511884154784878,6,14,20,44,48,-15,-15,-4
1511884154784878,0,0,-7,-30,-8,0,-4,-1
1511884154798909,-1,5,5,-9,-17,10,9,0
1511884154798909,1,-3,-9,-22,-2,-3,4,2
1511884154800890,0,8,3,-15,-8,-2,-5,-1
1511884154800890,1,4,-4,-20,9,-2,-2,1
1511884154821964,-1,-4,6,33,37,20,15,3
1511884154821964,-2,9,-4,-8,-30,-5,-5,-1
1511884154822983,0,-4,3,7,3,-8,-6,-1
1511884154822983,-3,4,-6,-26,-13,-4,-8,-4
1511884154835985,3,15,10,22,10,0,8,1
1511884154835985,-10,-39,-20,-1,-1,2,-3,-7
1511884154845035,1,9,-2,0,1,1,6,1
1511884154845035,-2,-24,-4,6,-6,-4,-3,-5
1511884154859074,0,-13,-10,-4,-2,-2,-2,4
1511884154859074,5,31,14,20,8,7,2,-1
1511884154861050,-7,-32,-8,-11,2,1,1,-1
1511884154861050,0,9,2,-26,-6,1,-3,-1
1511884154882138,-12,-18,-7,-11,-12,-17,-13,-5
1511884154882138,4,5,5,12,3,0,0,-2
1511884154883140,3,9,1,-2,2,7,3,4
1511884154883140,4,11,1,-7,-5,-1,3,3
1511884154895199,-2,-4,-1,-2,0,-5,-4,-4
1511884154895199,-1,1,2,2,11,4,2,-2
1511884154904220,2,4,-4,-7,-2,6,12,2
1511884154904220,-3,22,7,-10,-7,-14,-11,-3
1511884154919264,-4,-30,-6,-15,-2,-14,-14,-3
1511884154919264,-5,-2,-9,5,6,4,1,-2
1511884154921275,-1,15,2,-5,-31,0,0,-5
1511884154921275,-4,-28,-4,14,3,5,5,-1
1511884154942297,-1,3,-4,-7,-5,12,7,3
1511884154942297,-1,6,-1,-23,20,-1,2,0
1511884154944303,-1,-2,1,9,18,-9,-20,-5
1511884154944303,1,9,3,37,-4,4,8,-1
1511884154956364,3,-1,5,4,-13,-6,-2,3
1511884154956364,2,0,-6,4,-7,2,-6,-4
1511884154963358,1,2,-1,-18,-2,13,19,7
1511884154963358,-3,-1,-4,4,-2,-22,-24,-3
1511884154979437,0,8,5,5,9,9,5,-1
1511884154979437,-1,-1,1,3,-6,4,4,1
1511884154980445,-3,-10,0,14,0,-1,-2,-2
1511884154980445,-1,1,-5,-16,6,5,3,0
1511884155001502,2,8,-4,0,-10,-1,1,-2
1511884155001502,1,5,6,3,-3,-4,-4,0
1511884155003482,-1,-2,-2,3,-4,-5,-3,-1
1511884155003482,-1,-12,0,-2,9,6,5,1
1511884155015542,-1,5,-1,7,1,2,-1,-2
1511884155015542,0,5,7,8,0,-5,-4,0
1511884155024540,-1,-9,-9,-27,-1,-4,-4,1
1511884155024540,5,19,7,7,3,3,2,-1
1511884155039606,-6,-26,-7,17,-5,-1,2,-1
1511884155039606,1,2,1,-9,15,0,-2,1
1511884155040608,-4,-11,-8,-30,-23,-7,-3,-2
1511884155040608,0,11,1,16,-19,-1,2,0
1511884155061665,0,-9,5,14,13,2,-1,1
1511884155061665,-1,3,6,-4,-14,-1,1,-1
1511884155063675,-8,-25,-8,18,37,1,-1,-2
1511884155063675,0,7,0,-13,10,5,-2,-2
1511884155075707,0,6,-7,-16,-29,-4,5,0
1511884155075707,0,-2,1,-2,6,-7,-12,-1
1511884155084729,2,14,6,27,0,-3,-2,0
1511884155084729,-1,-10,-3,0,-7,5,6,1
1511884155099796,3,5,4,5,8,-4,-9,3
1511884155099796,-3,0,-7,-4,23,6,2,-5
1511884155100771,1,1,3,16,-16,4,9,-2
1511884155100771,2,-5,-2,-7,30,-7,-10,3
1511884155121854,1,6,-2,-26,-8,2,1,1
1511884155121854,-2,-2,-6,-5,-39,-7,1,-3
1511884155123833,4,2,2,4,31,5,-2,0
1511884155123833,1,3,-5,-32,-18,9,8,1
1511884155135893,-1,8,7,8,9,1,-5,-1
1511884155135893,1,8,-2,10,0,-10,1,4
1511884155144890,-3,-9,-1,-11,-10,1,1,-1
1511884155144890,-5,-19,-6,-2,-8,0,0,-2
1511884155158957,-3,2,-7,4,21,1,-3,-5
1511884155158957,0,-5,5,20,1,7,1,-2
1511884155160933,4,9,-1,-17,-9,-8,-5,1
1511884155160933,3,11,5,38,12,1,0,1
1511884155182082,-1,-4,1,-12,-9,5,9,0
1511884155182082,-6,-10,-6,-8,2,-16,-16,-6
1511884155183086,3,15,9,-21,-31,-4,0,1
1511884155183086,-4,-5,-3,1,-9,-2,0,-1
1511884155195118,-2,-25,-9,-10,-6,4,7,0
1511884155195118,0,-2,0,-6,-14,5,5,1
1511884155204140,0,3,-1,12,-17,-11,-6,1
1511884155204140,-2,1,-9,-64,-32,-6,-3,-2
1511884155219183,1,20,1,-7,2,-4,-3,-1
1511884155219183,-4,-24,-4,-4,12,3,1,-1
1511884155221186,-1,3,3,23,-4,2,2,-1
1511884155221186,-6,-22,2,39,1,-4,-4,-4
1511884155242212,0,21,-5,-50,2,-11,-7,-3
1511884155242212,-2,-13,0,11,-3,3,1,0
1511884155243216,1,13,-5,-29,-19,-4,-3,-4
1511884155243216,3,9,9,11,21,8,9,5
1511884155255273,-4,-5,3,21,-3,1,3,-2
1511884155255273,7,22,9,1,4,-3,-5,1
1511884155264827,-5,-30,-11,5,2,2,1,-1
1511884155264827,-4,2,0,4,3,-4,-4,-5
1511884155278865,3,0,1,26,9,-6,-9,-1
1511884155278865,5,27,2,-22,-3,10,8,1
1511884155280871,-3,-27,1,27,7,3,3,3
1511884155280871,-5,-13,-18,-6,3,-18,-14,-9
1511884155301955,1,-2,6,-8,-18,0,0,1
1511884155301955,-3,-9,-9,-5,-13,-3,-3,-4
1511884155303959,4,15,2,-24,17,7,4,2
1511884155303959,2,8,0,-1,-4,-2,-3,-2
1511884155314988,1,4,1,20,3,-1,-3,1
1511884155314988,-5,0,-4,6,-10,5,15,1
1511884155324017,-1,6,-4,-10,10,-4,-5,-3
1511884155324017,-1,-8,-1,-6,-15,2,0,1
1511884155339048,5,12,1,-4,3,-1,-4,-2
1511884155339048,5,3,4,10,-26,-9,-1,4
1511884155341039,-5,-4,-1,-2,7,-5,-4,-1
1511884155341039,2,2,0,-12,9,7,2,1
1511884155362110,2,1,5,29,-2,16,13,2
1511884155362110,-2,-13,-5,31,8,-16,-17,-2
1511884155363640,-2,-11,-1,-20,2,-8,-12,-5
1511884155363640,-1,-3,-4,-1,-2,1,1,1
1511884155375672,-8,-23,-4,3,8,6,7,-2
1511884155375672,-1,2,0,-8,29,3,0,-2
1511884155384863,2,13,0,-4,-1,2,1,2
1511884155384863,3,2,1,-2,11,0,-1,-1
1511884155398905,0,-6,2,5,2,-2,0,0
1511884155398905,-1,1,-6,-36,-11,0,-3,-2
1511884155405892,0,2,5,24,1,1,2,-2
1511884155405892,1,18,6,3,-23,-12,-5,-2
1511884155421962,-3,-16,-6,34,-5,-6,-3,1
1511884155421962,-2,-16,-3,-42,15,-1,-8,-5
1511884155422938,-3,7,-5,-15,-17,-2,5,-1
1511884155422938,0,-3,6,0,-6,15,14,1
1511884155434997,2,16,5,-11,-2,7,-2,-5
1511884155434997,-1,8,1,17,-8,-34,-21,1
1511884155444001,-3,-2,1,13,14,6,2,-2
1511884155444001,-2,-17,-5,-9,-41,-5,-1,0
1511884155459060,1,9,-2,-16,22,9,7,-2
1511884155459060,-5,-5,2,26,0,15,5,-4
1511884155465605,0,7,-2,-19,-25,-7,-4,0
1511884155465605,0,0,2,28,10,-2,1,0
1511884155481718,-4,-3,0,-31,-15,-3,-1,0
1511884155481718,2,11,1,-13,1,4,5,1
1511884155483720,4,6,4,16,-8,-8,-6,0
1511884155483720,-6,-21,-13,-17,15,3,-1,-2
1511884155495756,-2,12,4,-10,-14,-16,-14,-5
1511884155495756,-2,-32,1,28,1,14,13,-1
1511884155504804,2,6,1,12,20,16,17,3
1511884155504804,0,5,7,18,-4,-28,-31,-4
1511884155518852,0,2,2,12,3,-1,3,3
1511884155518852,0,8,-2,-10,-3,1,-5,-2
1511884155525833,2,-4,-6,-13,-1,8,6,1
1511884155525833,-1,-4,1,-5,16,12,4,0
1511884155541982,0,3,2,15,-3,0,6,1
1511884155541982,1,2,-8,-29,-5,0,0,1
1511884155543881,-2,-5,-2,-7,-15,-17,-13,-2
1511884155543881,2,15,3,-11,10,4,2,3
1511884155564445,-1,-8,-3,3,6,0,-3,-2
1511884155564445,-2,-21,-4,-2,8,4,6,1
1511884155566447,1,4,2,11,11,0,-1,-2
1511884155566447,-1,5,-2,-16,-7,-13,-8,-3
1511884155578479,1,3,6,32,-1,3,6,0
1511884155578479,3,28,6,4,9,8,11,2
1511884155585724,-9,-43,-14,-21,-2,-16,-23,-5
1511884155585724,-3,-1,0,-23,5,11,8,-4
1511884155601581,-1,3,-2,-1,6,1,1,1
1511884155601581,-3,-10,-4,14,3,-1,-3,-1
1511884155603583,4,19,10,7,-18,0,3,0
1511884155603583,-1,-1,-4,18,23,10,11,-1
1511884155624808,0,-2,-2,-5,-5,-4,-6,-4
1511884155624808,1,4,-4,-13,-13,-13,-7,3
1511884155625758,0,4,4,8,10,5,5,-2
1511884155625758,-3,-8,-7,8,-3,4,-2,-2
1511884155638792,2,8,5,-3,17,-1,-2,-1
1511884155638792,-1,-3,-1,8,6,5,3,-1
1511884155652717,2,15,5,16,16,-8,-7,-2
1511884155652717,0,-2,-3,-14,-8,3,1,1
1511884155661741,-4,-5,-13,-18,-13,1,3,-1
1511884155661741,-3,-5,-1,5,-12,-3,-4,-3
1511884155663745,-2,-11,-6,-14,-2,-4,0,0
1511884155663745,5,12,9,10,15,4,4,1
1511884155683935,3,7,-2,10,-29,-18,-16,1
1511884155683935,-3,-15,-17,-42,16,11,11,-1
1511884155685937,0,1,-6,-41,-10,4,-1,0
1511884155685937,1,15,6,25,7,-5,-1,-1
1511884155698975,-6,-17,0,-31,3,-2,-3,-5
1511884155698975,1,3,-4,9,0,0,0,-1
1511884155705175,-1,2,-3,-18,-63,-12,-5,-4
1511884155705175,0,1,-6,5,0,4,6,0
1511884155722033,-1,1,1,2,4,-2,-6,0
1511884155722033,0,5,6,18,7,-3,-3,0
1511884155723036,-2,3,2,18,29,9,5,-1
1511884155723036,1,11,3,-14,-7,8,9,1
1511884155744091,-5,-35,-3,7,-20,-20,-15,-3
1511884155744091,0,7,-2,-11,8,1,1,-1
1511884155746097,-2,-7,-1,26,21,2,1,0
1511884155746097,0,3,3,4,-10,-2,-1,-2
1511884155759168,1,4,-8,-29,-8,9,6,0
1511884155759168,0,-5,7,10,-37,-8,-5,-2
1511884155765698,0,1,-4,-24,26,-2,-9,-3
1511884155765698,-2,-10,-3,3,5,7,6,4
1511884155781737,-1,5,4,5,-12,-5,-3,-2
1511884155781737,-3,-8,-2,4,-5,0,-1,-4
1511884155783743,2,24,6,11,-8,6,11,2
1511884155783743,-2,-26,-8,-15,9,-10,-14,1
1511884155803823,-4,-4,-6,-6,3,12,14,1
1511884155803823,1,14,8,-9,-2,-10,-9,-1
1511884155805802,6,6,5,2,1,9,5,4
1511884155805802,-5,-8,-5,-14,-12,-17,-9,-4
1511884155818837,-1,0,-7,-1,17,6,4,1
1511884155818837,1,8,8,11,-5,-1,-7,-5
1511884155825883,-5,-17,-8,-16,-2,7,5,0
1511884155825883,2,2,1,13,-6,-9,-8,1
1511884155841925,1,12,3,24,-8,-6,0,0
1511884155841925,-3,-7,-7,-27,20,1,-5,-2
1511884155843903,2,-3,0,5,-8,5,15,2
1511884155843903,-2,3,1,-2,2,-6,-17,-3
1511884155864510,0,1,4,13,1,1,0,-2
1511884155864510,4,15,5,2,-1,-1,-1,2
1511884155865985,-1,10,5,28,6,2,-1,-2
1511884155865985,-4,-35,-11,-6,-15,4,8,-2
1511884155878017,2,-7,-9,-18,0,7,8,4
1511884155878017,-5,-3,2,1,21,-9,-12,-7
1511884155886587,-2,-11,-6,6,13,-8,-9,-3
1511884155886587,2,13,4,3,-3,7,7,2
1511884155901627,-3,-5,-6,-10,-1,-14,-13,-5
1511884155901627,0,-2,-1,-7,-10,8,13,0
1511884155903636,-1,1,4,32,-21,-13,-8,1
1511884155903636,1,4,3,11,5,2,-1,-1
1511884155924689,-2,2,0,-19,3,9,8,-1
1511884155924689,-1,-8,1,16,5,-17,-12,2
1511884155925671,-4,-3,-3,15,28,-4,-7,-3
1511884155925671,2,14,3,8,-9,10,11,0
1511884155937700,1,-1,2,-6,3,-6,-12,0
1511884155937700,2,-3,4,20,-11,7,12,4
1511884155946723,0,1,-1,-20,3,11,10,3
1511884155946723,-1,-1,-3,6,7,-14,-7,-2
1511884155961783,2,2,-1,-7,-6,2,5,2
1511884155961783,1,4,4,21,22,3,-5,-2
1511884155963769,-2,3,-6,-38,-21,-11,-5,-2
1511884155963769,-4,-25,-9,-7,7,8,5,0
1511884155983875,-1,0,3,5,-7,0,3,0
1511884155983875,1,-3,-5,-22,-12,-9,-8,0
1511884155985856,0,6,9,42,10,12,6,0
1511884155985856,-4,-4,-10,-31,-13,-7,-6,-3
1511884155997912,-3,-6,-3,-20,-2,-5,-4,-3
1511884155997912,-2,3,0,6,3,7,6,0
1511884156006914,-1,-6,2,14,16,0,-2,-1
1511884156006914,1,6,4,16,6,-4,-3,0
1511884156021976,-2,-5,-8,-21,-6,2,1,0
1511884156021976,-1,1,-3,-1,1,7,8,1
1511884156022983,3,0,-1,-11,-2,1,-1,1
1511884156022983,-1,-5,1,4,15,-10,-10,-2
1511884156044039,2,9,1,4,2,9,5,-1
1511884156044039,-5,-4,-5,6,-1,-4,0,-1
1511884156046016,-1,-6,1,-14,-13,-6,3,0
1511884156046016,-1,6,2,11,-15,-1,-6,-4
1511884156058048,1,4,1,5,11,1,-3,-1
1511884156058048,0,-2,4,16,4,8,11,4
1511884156067082,4,2,-8,-5,7,2,-4,-3
1511884156067082,-5,-3,-1,-27,-22,-1,3,3
1511884156081782,0,0,5,31,1,-1,3,1
1511884156081782,0,0,-9,-22,-33,6,-2,-5
1511884156083787,1,10,14,18,6,-28,-19,-1
1511884156083787,-2,-8,-8,-3,-2,1,-3,-2
1511884156103833,-5,-6,-6,-16,2,3,2,-2
1511884156103833,-3,-1,-2,-13,-3,-5,-3,-2
1511884156105817,0,-2,-2,9,-4,12,5,1
1511884156105817,2,12,7,-9,6,-3,2,1
1511884156117874,-1,13,9,43,17,-2,-1,0
1511884156117874,-2,-20,-11,-1,-12,0,-2,-1
1511884156126875,-2,2,-3,-16,-17,-3,1,1
1511884156126875,-7,-5,-1,6,30,2,-4,-6
1511884156141938,2,-3,-4,-16,1,-3,-2,0
1511884156141938,2,13,5,5,3,-3,-1,0
1511884156143948,-6,-18,-9,-3,1,2,-2,-4
1511884156143948,1,1,-1,-1,2,5,6,2
1511884156164530,2,-1,-1,7,12,-2,-5,1
1511884156164530,-4,-1,3,-5,0,2,-1,-2
1511884156166008,1,5,-1,-27,-18,-3,0,1
1511884156166008,3,-5,5,38,0,2,4,3
1511884156178039,-4,0,-4,-46,-19,-12,-8,-2
1511884156178039,1,2,0,10,9,6,2,-1
1511884156187083,0,-3,-7,4,2,0,-1,-4
1511884156187083,2,8,4,-4,-28,1,3,2
1511884156202150,2,-3,-1,17,22,3,0,0
1511884156202150,-1,-4,-7,-42,-35,-14,-4,-2
1511884156203126,-3,-1,0,3,-7,7,5,-2
1511884156203126,2,-3,-4,-18,11,-4,-8,0
1511884156224209,-1,-3,0,3,-1,0,5,2
1511884156224209,-2,0,1,10,1,-5,-5,-1
1511884156226187,-3,1,2,4,4,-10,-10,-3
1511884156226187,-1,5,-1,-4,-13,-4,3,0
1511884156238246,1,0,3,6,-8,7,1,1
1511884156238246,-4,-4,-5,7,20,7,4,-2
1511884156247267,0,-5,0,-1,-1,0,1,0
1511884156247267,-1,6,1,8,9,2,0,0
1511884156262283,2,11,-1,-4,-6,0,0,-3
1511884156262283,-2,-13,-4,4,-6,-1,-2,0
1511884156263285,0,-4,-4,-7,-24,-2,0,1
1511884156263285,-3,1,0,-18,26,-4,-2,-4
1511884156283891,-1,1,-1,0,-23,-2,-4,0
1511884156283891,2,2,2,7,3,-2,-1,0
1511884156285873,0,-2,-1,1,-1,-1,0,0
1511884156285873,-1,0,0,4,-11,3,1,0
1511884156306941,-2,-6,0,5,8,-2,-3,-2
1511884156306941,-1,2,0,6,9,-2,-2,0
1511884156308934,0,-2,-2,-4,-6,3,1,-1
1511884156308934,-1,1,-2,7,-2,5,0,-2
1511884156320992,-1,-5,-3,0,3,-3,-2,0
1511884156320992,1,2,2,2,-8,-1,1,0
1511884156327992,-1,-1,-6,-13,18,2,0,0
1511884156327992,-2,2,4,7,-1,-2,0,-1
1511884156344034,-1,-3,-1,5,-20,-4,-1,-2
1511884156344034,1,3,-4,-34,20,3,0,-1
1511884156346033,-1,-3,0,3,2,1,0,-2
1511884156346033,0,0,0,-2,1,1,0,-1
1511884156358066,-1,-2,-1,-5,-3,0,0,1
1511884156358066,-3,1,5,3,4,-3,-2,-1
1511884156367093,-1,-1,-4,-4,-18,0,1,-2
1511884156367093,-1,-1,-2,-21,-23,-5,-2,-1
1511884156381185,-1,0,-2,10,23,3,-1,-2
1511884156381185,-1,-4,0,11,7,0,0,1
1511884156388176,1,-1,3,12,11,3,-1,2
1511884156388176,0,-2,-1,6,-10,-2,0,-1
1511884156404219,-1,3,3,10,-6,-1,0,-2
1511884156404219,-1,-1,-2,2,13,-2,-3,0
1511884156406224,-2,-2,-1,-3,3,0,-1,0
1511884156406224,0,2,0,10,8,3,-1,1
1511884156418257,-6,-4,-2,-28,-11,-2,-2,-1
1511884156418257,2,-3,2,7,-19,0,1,0
1511884156427281,-3,1,0,12,45,6,0,0
1511884156427281,-6,-6,-11,-34,-39,-18,-8,-7
1511884156441345,1,-2,-7,-40,1,4,4,1
1511884156441345,-6,-9,-8,-11,-4,6,-2,-4
1511884156448337,2,4,-1,-30,-34,-11,0,-1
1511884156448337,0,-4,4,15,14,2,-1,-1
1511884156464379,3,9,8,15,2,1,-5,-3
1511884156464379,0,-12,-11,4,0,-8,4,3
1511884156466407,3,12,12,-5,23,14,2,1
1511884156466407,-1,-1,-5,4,4,7,2,2
1511884156478519,5,7,3,7,9,11,6,5
1511884156478519,-2,7,8,5,-1,-13,-5,-1
1511884156487039,-8,-10,-10,5,6,-10,-20,-11
1511884156487039,4,-1,2,13,12,6,5,3
1511884156501116,0,-5,0,3,-49,-24,2,1
1511884156501116,4,5,-2,-3,40,39,1,1
1511884156508137,2,2,-4,-5,-15,-13,7,3
1511884156508137,-4,-4,-6,-16,-17,-2,-13,-8
1511884156524164,0,-4,3,8,15,-1,-3,-1
1511884156524164,2,1,1,10,-26,-19,4,3
1511884156526145,-2,0,15,-1,-5,-1,-2,1
1511884156526145,0,1,8,7,29,8,1,0
1511884156547202,-3,3,-1,8,-6,-9,1,0
1511884156547202,-3,-7,-8,-10,0,-12,-4,-4
1511884156548217,0,-1,8,23,3,-3,3,3
1511884156548217,1,-12,-6,-19,1,12,0,1
1511884156561237,-2,-2,-5,13,23,10,-1,-3
1511884156561237,3,11,23,19,3,6,7,2
1511884156568264,-1,-1,-8,23,-2,-29,2,0
1511884156568264,-2,-8,-9,-12,-1,-19,-6,0
1511884156584362,-7,-2,2,-11,-8,33,-16,-11
1511884156584362,2,3,12,4,16,-9,-1,0
1511884156586369,7,0,-19,9,-2,21,15,9
1511884156586369,-6,5,5,5,-3,-14,-5,-5
1511884156606435,-2,-5,-4,16,12,12,3,0
1511884156606435,1,11,3,-23,-33,-31,-12,-5
1511884156608423,3,4,13,-15,8,15,9,5
1511884156608423,-6,-9,-8,-1,-48,-29,-6,-3
1511884156621499,-2,-4,4,9,20,8,9,1
1511884156621499,-1,0,15,-6,-9,-10,-10,-6
1511884156628480,-5,-12,-2,-21,-14,15,-2,-3
1511884156628480,3,-3,-33,-3,10,12,6,0
1511884156643559,0,-1,13,21,22,-22,-4,-1
1511884156643559,0,-4,-18,-7,7,42,8,2
1511884156644522,-2,0,-2,2,-9,-14,-5,-2
1511884156644522,3,5,11,8,2,10,4,0
1511884156666586,4,2,-1,19,1,-39,4,8
1511884156666586,-2,1,1,-4,-14,18,1,2
1511884156667084,-8,-6,-3,-12,-26,-22,-26,-16
1511884156667084,0,5,7,4,16,17,6,1
1511884156689694,4,0,1,-3,-1,-13,6,4
1511884156689694,0,-2,-10,14,20,7,6,2
1511884156690758,0,0,-9,-5,-7,9,0,1
1511884156690758,0,2,1,-5,16,-6,0,1
1511884156703917,-3,-5,-9,-20,-16,-11,-4,-4
1511884156703917,-4,-3,-7,-10,1,5,-6,-6
1511884156704847,1,-1,-2,7,-12,3,3,2
1511884156704847,0,1,0,7,4,-2,-1,0
1511884156725816,-2,1,1,23,-15,1,3,2
1511884156725816,4,10,16,12,7,-34,6,6
1511884156726791,-20,-30,-50,-46,-3,29,-20,-22
1511884156726791,8,9,0,20,11,1,1,4
1511884156748877,-1,-11,-9,-23,6,19,-1,2
1511884156748877,-2,1,9,13,-29,-43,-10,-5
1511884156749858,10,27,19,5,15,12,3,5
1511884156749858,-2,-13,8,12,0,0,2,-1
1511884156763890,-6,-8,-19,-11,5,-4,-4,-2
1511884156763890,2,-3,-2,-24,-28,0,2,2
1511884156763890,1,2,4,12,66,-17,9,5
1511884156763890,-3,17,17,8,2,30,-13,-9
1511884156786481,5,11,15,16,-6,2,-3,-1
1511884156786481,-8,-17,-13,1,-4,12,1,-2
1511884156786481,7,14,6,24,0,-7,1,1
1511884156786481,-8,-26,-12,-10,19,0,7,3
1511884156809542,-6,5,0,-34,-54,-4,-6,-7
1511884156809542,-1,3,2,14,29,13,-3,-2
1511884156810545,4,-7,-17,-14,-28,-6,2,3
1511884156810545,1,-1,-1,-28,3,-10,4,4
1511884156823584,-6,-14,-3,6,25,8,-5,-5
1511884156823584,0,5,0,1,-11,4,0,-2
1511884156824582,3,11,16,13,5,1,4,3
1511884156824582,1,3,6,-4,-24,-9,-4,0
1511884156846613,3,-1,-12,-24,12,1,1,-1
1511884156846613,0,0,-7,1,4,3,0,-2
1511884156846613,-7,-12,6,-3,7,4,-2,-5
1511884156846613,1,0,-5,1,-32,-9,-2,-2
1511884156869703,2,4,0,5,25,3,1,1
1511884156869703,2,3,7,3,-12,1,0,1
1511884156870205,-5,-7,-4,1,-5,3,0,-2
1511884156870205,-3,1,-7,-20,-6,-3,0,-1
1511884156883751,0,2,5,2,-23,-5,-4,-1
1511884156883751,-5,-13,8,-7,16,-1,-2,-3
1511884156884759,-1,2,0,4,1,-6,-2,0
1511884156884759,7,16,2,6,14,8,6,3
1511884156905794,-1,-1,6,23,1,2,-1,-1
1511884156905794,-2,11,-8,-3,-12,-6,-2,0
1511884156906796,-13,-66,-4,-24,-20,-7,1,-1
1511884156906796,1,-6,-16,-4,18,4,-1,0
1511884156928854,-4,1,9,12,-12,6,-6,-6
1511884156928854,2,4,-19,25,-18,-2,2,1
1511884156929868,6,29,9,14,-4,-12,1,2
1511884156929868,-3,-21,-4,-25,-3,0,0,0
1511884156943921,-1,-2,-2,14,11,0,2,1
1511884156943921,1,-1,7,-14,3,3,-2,-1
1511884156944897,-1,5,-6,10,-3,-4,-2,-1
1511884156944897,9,15,10,0,-21,-8,4,4
1511884156966512,-8,-2,2,-15,0,5,0,-5
1511884156966512,-11,-37,-19,-14,18,-2,-6,-6
1511884156967011,3,20,-8,-1,-6,2,0,3
1511884156967011,2,14,15,17,-29,-9,-3,-1
1511884156989045,7,9,3,-1,9,1,1,5
1511884156989045,6,27,11,-13,-15,-4,2,1
1511884156989045,-2,-27,-19,-4,3,13,3,1
1511884156989045,-14,-29,12,10,12,2,-2,-4
1511884157004085,1,0,-17,-42,-15,-10,-2,-1
1511884157004085,0,0,4,25,6,10,4,2
1511884157004085,5,24,23,30,3,2,-5,-3
1511884157004085,4,8,-5,-14,-3,12,2,1
1511884157026143,-1,-14,5,27,-10,-8,0,0
1511884157026143,-1,6,0,-45,14,8,0,-1
1511884157027146,2,4,7,-13,2,30,7,2
1511884157027146,-2,3,-9,19,21,34,5,-1
1511884157040208,-1,-1,-3,-14,-30,-67,-20,-5
1511884157040208,4,12,-3,1,-12,-20,7,5
1511884157048229,-3,-24,-3,-3,6,2,-10,-4
1511884157048229,-6,0,11,41,8,-4,-1,-5
1511884157063269,-1,7,-20,-32,12,34,7,-1
1511884157063269,2,-16,4,10,13,58,16,7
1511884157064245,-3,8,-1,-5,-4,-73,-21,-6
1511884157064245,6,21,13,12,-26,-38,-8,1
1511884157086500,0,-11,7,0,8,9,-1,0
1511884157086500,-11,-32,-17,9,15,-10,-3,-3
1511884157086500,1,4,-2,-30,7,38,9,1
1511884157086500,2,10,2,-4,-4,-7,-5,-2
1511884157100537,-3,1,-7,-3,-4,-6,3,1
1511884157100537,-1,0,-3,-4,5,9,-4,-4
1511884157108563,-1,-13,-19,-17,-12,-9,1,1
1511884157108563,7,30,20,19,-5,-4,4,3
1511884157123598,-1,-5,-28,-22,-15,7,-3,-3
1511884157123598,-4,-12,30,40,26,-36,-15,-5
1511884157124578,0,15,1,-9,3,1,-2,-3
1511884157124578,-2,-2,-6,-5,6,7,2,0
1511884157145634,4,4,33,46,25,33,11,5
1511884157145634,-4,-8,-22,15,-1,8,-5,-6
1511884157146637,-2,-10,-4,-41,-7,-37,-5,-2
1511884157146637,-11,-45,-14,-60,1,14,3,-3
1511884157169699,1,-7,5,-19,-6,-33,-11,-3
1511884157169699,5,31,12,15,2,12,4,1
1511884157170201,-2,-2,-3,19,1,25,6,-1
1511884157170201,6,6,11,103,14,3,43,6
1511884157183279,3,38,-30,-100,-22,-18,-32,2
1511884157183279,-9,-51,-22,19,-28,-34,-14,-7
1511884157184255,-1,-12,29,42,14,34,10,5
1511884157184255,3,3,-16,-33,8,-1,9,5
1511884157206341,4,7,34,127,18,13,8,-4
1511884157206341,3,29,-32,-90,-18,9,5,2
1511884157207344,-4,0,-12,40,1,-4,19,-9
1511884157207344,-5,-33,18,-43,-12,-13,-34,6
1511884157220381,18,52,13,66,17,-39,-20,2
1511884157220381,8,1,13,-58,-8,47,46,9
1511884157228372,-50,-92,-72,-25,-16,-28,-42,-19
1511884157228372,24,104,19,42,2,11,12,5
1511884157243439,-3,-22,-17,-41,18,62,43,-1
1511884157243439,-5,36,-24,-70,-39,-88,-55,-8
1511884157244421,13,13,70,66,39,66,60,23
1511884157244421,-17,-11,-6,26,-31,-38,-34,-17
1511884157266530,5,23,2,81,50,3,-21,1
1511884157266530,27,101,68,127,23,37,34,3
1511884157267004,22,-3,14,-104,-13,11,14,23
1511884157267004,-21,-36,-21,68,13,0,17,-16
1511884157288609,10,52,25,-35,-21,-29,-40,-5
1511884157288609,-24,-128,-30,-47,-35,-17,-5,3
1511884157289589,-13,59,-16,-64,-75,-17,-11,-12
1511884157289589,-1,-53,3,-42,22,64,54,7
1511884157304628,-5,-15,-5,-31,-33,-82,-59,5
1511884157304628,-3,-14,-21,8,74,71,33,-16
1511884157305632,17,77,34,2,-77,-84,-65,4
1511884157305632,6,31,-2,95,-8,1,2,1
1511884157325715,-29,-66,-31,21,60,59,68,-5
1511884157325715,-21,-79,-115,-101,-39,-40,-51,-5
1511884157326715,16,87,90,127,46,64,61,-5
1511884157326715,-9,-46,-63,-128,-10,-63,-68,-10
1511884157348773,-6,-24,70,94,-3,-18,-20,-4
1511884157348773,5,66,44,125,24,-19,11,8
1511884157349776,-13,-101,-32,-20,42,33,10,-10
1511884157349776,-9,-20,-45,-110,-36,-49,-44,-11
1511884157363786,-1,9,-2,30,-26,40,32,4
1511884157363786,7,-27,11,-43,-24,-29,-17,-1
1511884157364789,8,62,22,42,-31,-6,8,2
1511884157364789,-17,-66,-76,-74,68,24,-1,4
1511884157386434,0,-20,-7,27,-23,-26,-8,-8
1511884157386434,-5,-4,3,5,19,32,15,1
1511884157386434,3,17,-27,-40,7,-34,-29,-1
1511884157386434,11,21,40,52,-9,20,18,7
1511884157409495,-1,4,-12,-30,3,7,5,0
1511884157409495,13,59,59,28,38,10,-1,3
1511884157410498,-24,-102,-80,-97,-36,-20,-17,-10
1511884157410498,1,41,36,70,0,-5,-8,-4
1511884157423532,-2,-14,-11,-49,-7,20,21,4
1511884157423532,5,26,2,-10,-21,-12,-10,2
1511884157424538,11,35,23,69,40,-10,-6,4
1511884157424538,6,19,22,84,30,17,8,0
1511884157446596,3,11,-28,-99,-43,0,2,1
1511884157446596,-6,-29,-12,10,48,-2,-10,-3
1511884157446596,0,23,-3,9,-18,-4,-6,-3
1511884157446596,-2,-4,9,-12,-19,0,-2,0
1511884157468628,3,-2,1,31,22,20,7,3
1511884157468628,5,29,17,67,-12,-18,-3,1
1511884157469659,-2,-4,-6,-86,-12,7,2,-5
1511884157469659,4,16,22,55,-6,-16,0,3
1511884157483332,-5,19,-32,-81,-27,-2,-5,-4
1511884157483332,-15,-22,-6,27,-33,6,7,-3
1511884157484332,3,2,3,57,40,0,-7,3
1511884157484332,2,2,7,-8,-17,11,10,3
1511884157506392,4,14,22,4,8,2,2,-4
1511884157506392,-10,-30,-28,-71,-19,-4,-13,-9
1511884157507394,-3,-13,-8,27,55,19,15,0
1511884157507394,4,5,-5,-50,0,-16,-15,1
1511884157528506,-6,-20,-5,50,1,0,4,1
1511884157528506,-3,20,7,-35,1,9,4,0
1511884157529459,-4,-21,-1,32,-13,6,1,-1
1511884157529459,1,16,6,-50,-5,1,0,-1
1511884157543549,11,27,8,38,-8,-3,6,3
1511884157543549,-1,-16,11,24,1,6,2,3
1511884157544501,0,9,-4,4,-27,-24,-9,-2
1511884157544501,2,1,3,5,5,22,12,-1
1511884157566618,-4,9,-9,-53,-8,-43,-22,-1
1511884157566618,3,-13,7,35,5,11,9,2
1511884157567118,-3,-8,-8,-1,5,-12,-20,-8
1511884157567118,-1,-2,0,-1,-13,3,10,5
1511884157588364,-3,-5,14,25,55,11,2,-5
1511884157588364,3,22,-1,-6,-3,-5,-2,-1
1511884157589325,0,-1,2,16,6,3,0,1
1511884157589325,0,-3,-5,9,9,2,1,-2
1511884157603404,-1,-15,4,15,-3,14,6,1
1511884157603404,-5,10,-11,-1,-11,5,-3,-4
1511884157604368,-3,-3,-13,-34,-3,-16,-9,0
1511884157604368,3,15,13,7,-11,2,-1,1
1511884157626465,-4,-13,-14,-16,-14,1,8,1
1511884157626465,-2,-8,-2,-8,12,4,-5,-5
1511884157627427,4,-4,9,17,-7,1,0,1
1511884157627427,6,10,4,7,-60,-10,3,2
1511884157648485,-9,-24,-13,-29,-34,-15,-14,-5
1511884157648485,4,15,9,4,-8,7,6,2
1511884157649485,6,28,10,17,15,8,-2,3
1511884157649485,-8,-44,-11,10,16,4,-1,-1
1511884157663552,-2,-1,-3,-13,-42,18,7,-5
1511884157663552,-8,-27,-10,-18,-16,-71,-39,-5
1511884157664526,4,11,5,0,12,13,10,3
1511884157664526,-1,12,-2,40,32,15,0,0
1511884157686297,-2,1,1,-5,20,24,15,3
1511884157686297,1,18,5,-15,-6,-8,-5,-1
1511884157687168,-3,-7,-5,-15,-4,-6,0,-4
1511884157687168,-6,-24,-9,2,11,2,1,-2
1511884157709248,5,10,16,17,-32,-7,-3,3
1511884157709248,-5,-6,2,6,22,10,0,-2
1511884157709248,-1,7,7,15,3,23,22,3
1511884157709248,-1,-5,-10,-36,24,-23,-24,-4
1511884157723264,-6,-11,-1,7,18,-22,-17,-5
1511884157723264,13,24,17,40,-5,17,18,9
1511884157724266,-7,-47,-12,28,-21,-12,-9,-2
1511884157724266,-2,28,6,-1,25,15,5,-5
1511884157746325,-2,-11,-3,8,-9,11,13,-3
1511884157746325,3,7,-2,-8,28,-25,-15,2
1511884157747328,3,-2,-4,-3,25,19,10,2
1511884157747328,-1,9,-10,-44,-54,24,15,0
1511884157768948,-3,-18,-2,5,-31,-40,-23,-2
1511884157768948,1,17,5,-27,-12,9,3,5
1511884157769922,4,3,-3,15,33,-19,-3,2
1511884157769922,1,-1,3,9,-21,1,0,-4
1511884157783512,-4,2,-4,-16,111,31,10,-4
1511884157783512,6,32,8,38,-11,20,8,2
1511884157784488,-7,-34,-6,-2,-12,3,7,-1
1511884157784488,-4,-9,-5,0,-3,-41,-30,-4
1511884157806575,-2,-15,-2,18,-21,-4,4,4
1511884157806575,-2,-4,-13,-37,13,5,1,-1
1511884157806575,1,25,7,-20,-29,25,17,-6
1511884157806575,-1,-11,6,3,11,-40,-19,1
1511884157828630,2,5,9,-2,-54,-16,-8,0
1511884157828630,-7,-16,-7,-18,20,8,0,-10
1511884157829633,3,-2,-4,0,4,18,18,9
1511884157829633,-5,1,-2,-3,-28,-2,2,-5
1511884157843645,3,11,4,32,38,-4,-11,-1
1511884157843645,1,-3,2,39,-35,5,11,3
1511884157844648,5,26,9,13,28,0,-12,0
1511884157844648,-1,-18,4,28,23,34,26,2
1511884157866230,-8,-32,-32,-30,-8,-22,-12,2
1511884157866230,-1,-9,2,0,-40,-21,-6,-6
1511884157867256,0,4,-1,24,-5,-10,-12,-1
1511884157867256,5,27,17,-7,31,10,-5,-2
1511884157888344,3,4,5,15,13,21,22,3
1511884157888344,-3,-5,-6,9,45,33,14,-1
1511884157889315,-6,-4,-4,-15,-30,-65,-37,-7
1511884157889315,6,1,-3,0,-7,21,15,5
1511884157903376,4,12,6,15,10,-15,-11,3
1511884157903376,2,4,2,3,-31,-1,3,0
1511884157904393,-2,10,21,71,0,-9,-13,-4
1511884157904393,0,-1,-5,5,-15,11,4,0
1511884157926441,-6,-27,-10,8,28,4,-1,-5
1511884157926441,0,18,-6,-27,-25,9,16,-2
1511884157926441,2,-5,-2,-5,-19,-18,-11,5
1511884157926441,-2,2,0,-7,-13,-15,-12,-2
1511884157948474,4,19,-1,-4,22,0,-5,-1
1511884157948474,-1,-9,13,66,37,24,9,-1
1511884157949476,-2,-15,-11,-23,-19,17,12,2
1511884157949476,-2,4,-2,9,-10,-19,-6,-4
1511884157963514,1,4,-3,-11,-6,-24,-10,0
1511884157963514,-3,-12,-4,6,4,-2,-15,-4
1511884157964516,-1,0,3,-2,26,4,3,-1
1511884157964516,-1,13,5,-9,-44,-8,0,-1
1511884157985632,-2,-23,-9,-2,9,26,13,-4
1511884157985632,1,-7,2,14,8,-6,-6,6
1511884157986640,-2,-7,-10,-35,-10,-7,-3,-6
1511884157986640,2,1,-9,-48,-10,-26,-18,0
1511884158008667,-6,-4,0,2,-44,3,2,-4
1511884158008667,0,-3,1,-8,-6,0,7,4
1511884158009696,5,7,10,53,44,21,8,6
1511884158009696,-1,1,-2,13,20,-2,-6,-1
1511884158031727,-3,5,-4,-31,-16,10,14,1
1511884158031727,5,18,13,46,17,1,-9,-1
1511884158032757,-3,11,-2,-50,-14,1,-2,-4
1511884158032757,-3,-17,-3,21,40,-20,-15,-4
1511884158045795,6,20,8,18,24,13,6,5
1511884158045795,0,16,5,2,3,6,3,-3
1511884158046767,-5,-35,-9,-1,-1,17,12,1
1511884158046767,4,14,11,2,-18,-13,-13,-4
1511884158068882,-3,-9,-10,-8,-40,-5,1,1
1511884158068882,-7,3,-4,-11,-11,-18,-8,-6
1511884158069885,7,4,1,16,19,-14,-6,5
1511884158069885,-6,-5,-2,-17,48,16,6,-2
1511884158082894,0,-2,6,-14,-44,-1,-2,-1
1511884158082894,0,-6,-4,22,0,11,10,-2
1511884158090915,6,27,3,-50,-19,-18,-14,4
1511884158090915,-7,-43,-5,25,-15,11,12,6
1511884158105955,4,39,7,10,18,-4,-9,-4
1511884158105955,-7,-45,-20,-40,-6,-31,-20,-5
1511884158106960,-1,26,7,15,-17,19,12,-3
1511884158106960,1,2,6,2,-30,-8,-2,-1
1511884158129016,1,2,6,-6,9,-5,-9,-1
1511884158129016,-9,-17,-18,-28,3,26,25,1
1511884158129016,-2,-6,3,1,-27,-36,-27,-8
1511884158129016,-1,6,-10,7,2,30,22,-3
1511884158143080,3,-3,7,30,-4,-27,-18,4
1511884158143080,7,17,7,-4,16,-5,-9,-3
1511884158151102,-4,10,0,-6,59,15,7,-1
1511884158151102,-1,-6,3,5,-23,9,5,1
1511884158166142,1,-6,-2,-2,30,5,-3,-8
1511884158166142,5,12,8,13,-6,18,15,7
1511884158167177,-7,-35,-10,-21,-23,-58,-26,-2
1511884158167177,1,15,4,19,2,1,-2,-5
1511884158188271,-4,9,-4,-9,-14,8,6,-1
1511884158188271,-1,-9,6,-26,-13,-13,-8,-1
1511884158189245,-6,2,-2,15,19,32,16,-3
1511884158189245,4,0,-8,-29,43,6,1,-1
1511884158203311,1,-5,-2,3,-60,-44,-16,1
1511884158203311,2,15,13,9,-17,20,16,2
1511884158211305,-1,9,-5,-26,1,-10,-12,-1
1511884158211305,-8,-38,-10,6,41,10,4,-2
1511884158226373,0,-1,-6,1,18,26,17,5
1511884158226373,2,3,2,-1,0,-8,-2,3
1511884158227374,2,8,7,21,1,14,6,-1
1511884158227374,3,14,5,0,4,-16,-7,3
1511884158248426,-6,-5,4,10,31,17,6,-3
1511884158248426,-9,-17,-14,-15,-28,-13,-11,-6
1511884158249406,1,-20,-3,4,-15,4,2,2
1511884158249406,6,16,5,16,25,8,10,6
1511884158262464,-1,0,5,23,-11,2,-1,-6
1511884158262464,-4,-5,-2,13,4,-19,-15,-3
1511884158271515,2,19,-5,-36,67,22,6,-6
1511884158271515,0,-31,-8,-21,-12,-2,-4,-1
1511884158286555,-7,-20,-9,3,23,-8,1,1
1511884158286555,4,19,3,-4,19,-5,-8,-1
1511884158286555,-6,-23,-8,-20,-20,4,-1,-6
1511884158286555,-3,15,7,25,-8,3,5,3
1511884158308615,3,12,6,-6,16,22,10,0
1511884158308615,4,-5,-13,-25,-35,-35,-25,0
1511884158309617,-2,-3,-2,7,-36,-1,7,5
1511884158309617,-1,11,-3,-15,0,4,1,-1
1511884158322672,3,3,9,8,9,14,4,1
1511884158322672,-3,-3,-3,4,-12,-5,-2,2
1511884158330674,2,6,4,6,-19,3,-1,-3
1511884158330674,-4,0,2,-2,1,-10,-6,-1
1511884158345715,-6,-36,-16,-18,0,18,14,-1
1511884158345715,2,-5,-3,6,23,-23,-21,-2
1511884158346716,-5,-20,-9,-7,-10,2,2,-3
1511884158346716,6,24,-2,-19,21,-7,-7,1
1511884158368822,0,11,7,-30,-3,-1,3,0
1511884158368822,1,8,5,27,3,12,4,0
1511884158369825,-1,-7,-6,-20,-8,3,8,0
1511884158369825,-2,0,-7,-26,-21,-19,-15,-4
1511884158383388,7,10,2,-1,-11,17,11,10
1511884158383388,-2,-5,10,18,25,-3,2,0
1511884158391409,-1,-1,-1,12,-12,-15,-11,-5
1511884158391409,1,5,0,35,-47,8,13,1
1511884158406450,-2,0,-5,-29,-1,-11,-12,-5
1511884158406450,0,10,7,6,-29,15,12,1
1511884158406450,3,6,0,22,39,18,11,4
1511884158406450,-5,-13,-3,-7,4,-14,-14,-6
1511884158428483,4,19,6,7,-32,-15,-7,-1
1511884158428483,-3,-3,-6,-25,28,13,5,-2
1511884158429486,-7,-35,-5,7,-17,-35,-20,-1
1511884158429486,0,10,3,25,-6,13,10,1
1511884158451544,-3,-3,-10,-6,1,-1,-4,-5
1511884158451544,2,16,3,4,-2,3,5,5
1511884158452582,5,6,7,2,-7,3,0,-2
1511884158452582,-3,-6,-2,12,16,-23,-17,-2
1511884158466134,0,-3,3,9,-2,-2,8,4
1511884158466134,-1,0,-5,3,-17,-4,-1,-4
1511884158467137,-2,2,2,-18,19,12,7,-1
1511884158467137,-2,-12,-5,11,31,3,-7,0
1511884158488788,1,8,0,4,45,-3,-1,-1
1511884158488788,0,-3,-9,-35,-23,1,1,-2
1511884158489839,0,21,6,0,-38,-12,-2,1
1511884158489839,-4,-4,-4,-24,-11,1,-5,-1
1511884158511888,-1,-5,1,23,21,0,-2,0
1511884158511888,-1,-8,1,5,0,4,1,0
1511884158512853,4,14,11,12,6,2,4,2
1511884158512853,-2,-7,-6,-2,3,21,13,1
1511884158526015,-3,5,-2,-32,-16,6,7,-1
1511884158526015,-6,-51,-9,-10,2,-24,-17,1
1511884158526891,3,4,-6,11,20,-3,-2,0
1511884158526891,2,21,11,-7,-33,-1,8,-1
1511884158549050,-2,-36,-8,15,-4,11,7,-2
1511884158549050,-5,6,-5,5,16,1,-1,-4
1511884158549970,-2,-6,-2,5,17,-1,-8,-2
1511884158549970,-4,-5,-1,-10,-12,-22,-8,-1
1511884158572104,3,20,6,-14,30,16,-1,1
1511884158572104,-1,-8,-12,-23,-66,-13,1,-1
1511884158573020,-1,-8,0,4,-28,9,13,3
1511884158573020,-1,9,5,9,-13,-7,-13,-3
1511884158586694,4,4,6,2,-25,-7,-4,3
1511884158586694,-2,15,-1,-7,3,-1,-7,-6
1511884158586694,-4,-3,-10,-13,-4,23,22,2
1511884158586694,0,-16,-2,8,-12,-14,-10,0
1511884158608935,-1,17,5,1,0,-24,-9,1
1511884158608935,-1,-20,3,32,1,31,25,0
1511884158609910,-1,3,2,10,-19,-32,-26,-4
1511884158609910,2,0,3,0,-10,18,12,2
1511884158631813,1,-2,-11,-8,48,7,-1,-1
1511884158631813,-1,-3,-2,-10,-3,-9,-6,0
1511884158632812,2,-1,1,2,2,10,2,0
1511884158632812,3,10,8,15,22,10,13,5
1511884158645851,-2,-3,0,9,18,1,2,-2
1511884158645851,-9,-9,-5,6,-28,-17,-14,-3
1511884158646850,-1,-5,-19,-32,21,1,-9,-4
1511884158646850,1,9,4,-31,9,9,17,3
1511884158669080,-1,1,0,0,-41,-19,-5,-5
1511884158669080,-5,-32,-16,-15,6,-22,-15,0
1511884158670016,-1,0,5,32,4,4,2,0
1511884158670016,-1,5,-1,-27,22,12,-1,-3
1511884158691739,-2,-2,1,-12,-32,-8,-9,-6
1511884158691739,5,30,16,21,-7,-2,4,3
1511884158692635,-2,2,3,-4,-47,-26,-16,-2
1511884158692635,-1,-13,-4,1,22,13,12,0
1511884158706742,-3,-11,-6,3,20,14,-1,-1
1511884158706742,5,21,10,17,-13,-13,3,3
1511884158706742,-5,-24,-10,-23,-2,-5,-2,1
1511884158706742,6,15,6,32,6,-2,-1,2
1511884158728731,-6,-15,1,6,-18,-4,1,-1
1511884158728731,4,18,1,-25,26,17,3,-1
1511884158729734,1,22,12,19,13,4,8,0
1511884158729734,-10,-57,-15,3,-7,-4,0,-1
1511884158751819,0,6,-6,-9,-23,-44,-36,-2
1511884158751819,-1,2,3,3,29,18,12,2
1511884158752822,3,7,6,21,7,14,10,3
1511884158752822,-1,9,-3,-27,-10,-4,-9,-6
1511884158766384,-6,-15,-1,15,-12,-1,4,-5
1511884158766384,2,1,-6,-20,-4,-1,-5,-1
1511884158767362,-4,4,2,12,-3,-3,-6,-5
1511884158767362,5,6,4,14,-14,-2,3,5
1511884158788945,-1,-9,-3,33,-3,11,10,-1
1511884158788945,3,19,10,-31,-11,-6,-5,-5
1511884158788945,-5,-17,-10,4,21,11,2,-4
1511884158788945,-1,11,3,-3,-7,-1,-3,-4
1511884158812029,7,5,11,22,-2,-3,0,6
1511884158812029,-8,-30,-7,30,5,-6,-9,-2
1511884158813032,5,12,7,13,11,4,-1,-3
1511884158813032,-2,1,-1,19,20,1,3,0
1511884158826070,3,18,-4,-19,-6,5,-1,0
1511884158826070,0,6,12,34,17,23,14,-1
