timestamp,emg1,emg2,emg3,emg4,emg5,emg6,emg7,emg8
1511884647087875,0,-1,-1,1,-2,0,-1,1
1511884647087875,-2,-1,-3,-3,-1,0,-2,-1
1511884647088877,-1,0,1,0,1,0,0,-2
1511884647088877,-1,0,-1,-2,-3,0,-1,0
1511884647089879,-1,0,0,-5,-2,-2,-2,-1
1511884647089879,-1,-1,0,6,-1,0,-1,0
1511884647089879,1,-2,-2,-4,-1,-2,-2,-1
1511884647089879,0,0,-1,4,-2,0,-2,-2
1511884647100930,-2,1,1,-1,-1,-1,-1,0
1511884647100930,-1,-1,2,0,-1,0,0,0
1511884647111965,-2,-1,-1,1,0,-2,1,-2
1511884647111965,0,-1,1,0,-1,1,-2,-2
1511884647115949,-1,2,-1,4,-1,-2,-2,-2
1511884647115949,0,0,-4,-4,1,2,1,1
1511884647132019,1,-2,0,-3,-2,-1,-2,2
1511884647132019,0,-1,0,2,5,0,2,1
1511884647141035,-2,-2,-1,-2,0,1,2,1
1511884647141035,1,-1,-3,-2,-1,-4,-1,-2
1511884647146047,-3,1,1,-3,-3,0,1,-2
1511884647146047,-2,-2,1,0,2,-1,-1,-1
1511884647161069,0,-1,1,1,-3,3,0,-1
1511884647161069,-3,0,0,0,1,0,-1,0
1511884647169091,-3,0,-1,-2,-3,-1,0,3
1511884647169091,2,0,-4,-3,0,-2,-5,1
1511884647209196,-2,1,-1,0,0,0,0,-3
1511884647209196,0,0,1,5,-3,-1,1,-1
1511884647210200,-2,0,-4,-6,2,-1,-2,0
1511884647210200,-1,1,-2,-3,-6,0,1,1
1511884647211226,-2,0,-4,-8,-2,-2,0,0
1511884647211226,0,0,2,2,6,-2,-1,0
1511884647214210,1,-1,2,5,-4,0,-1,-3
1511884647214210,-2,1,0,0,0,0,-2,-4
1511884647221228,0,-1,-3,1,-2,-3,-2,1
1511884647221228,1,-1,-1,-4,0,0,1,0
1511884647229250,-1,1,1,0,0,2,-1,0
1511884647229250,-1,-2,0,2,-1,-2,0,-2
1511884647236268,-1,-2,2,-2,-3,-1,-2,1
1511884647236268,-2,2,2,1,1,1,-3,0
1511884647251309,2,0,-3,-3,-2,-2,-3,0
1511884647251309,-1,0,-2,-3,-3,-1,0,1
1511884647258327,-1,-1,1,7,3,2,-1,0
1511884647258327,0,-3,-4,-5,-5,0,1,-1
1511884647265346,-2,1,3,1,5,0,2,-3
1511884647265346,0,-2,3,3,-1,0,-2,-1
1511884647280413,0,-4,-2,-8,-3,-5,-3,-3
1511884647280413,0,-5,-4,4,-1,3,-2,0
1511884647289409,-1,-2,0,-7,-6,-2,-1,0
1511884647289409,-1,1,-2,-3,4,-2,-3,-1
1511884647295426,1,1,3,-2,-3,1,2,3
1511884647295426,0,-1,0,3,2,1,-1,0
1511884647311468,-1,0,0,-2,-6,0,0,-1
1511884647311468,-1,-4,-3,1,3,-1,-3,-1
1511884647318487,-2,-4,1,2,1,2,-1,-1
1511884647318487,1,0,-2,-6,-7,0,0,0
1511884647325506,1,-2,0,3,5,0,1,1
1511884647325506,2,1,2,2,-1,1,0,-2
1511884647340546,1,-2,0,0,3,-1,0,0
1511884647340546,0,0,-1,-3,-2,-3,-3,0
1511884647348594,-2,-2,-7,-3,-5,-2,0,0
1511884647348594,1,-1,0,1,2,-1,1,0
1511884647355590,3,3,-1,5,-1,0,-2,-1
1511884647355590,-3,-1,-2,0,2,-1,2,-2
1511884647371652,-2,0,3,-2,-3,-2,-1,0
1511884647371652,-2,-1,-2,-3,-2,1,1,-2
1511884647378671,-1,-1,-1,-3,2,0,-1,-1
1511884647378671,-1,-1,0,2,3,0,-3,0
1511884647385689,2,-3,2,-1,-4,1,-2,-2
1511884647385689,-2,-3,-4,-1,-2,-1,0,1
1511884647400729,-1,1,0,1,2,1,-1,0
1511884647400729,0,1,1,1,-2,-1,-2,-1
1511884647408750,-3,0,0,6,2,0,0,0
1511884647408750,1,-1,-4,-9,-8,-1,0,1
1511884647415770,-2,0,-4,-7,-4,-2,-1,-3
1511884647415770,-1,-1,-2,2,10,3,-1,1
1511884647431814,0,0,3,5,-3,-2,-2,-3
1511884647431814,1,-3,-2,-2,1,2,3,1
1511884647437804,-1,-1,-5,-7,-7,-4,-1,-2
1511884647437804,0,0,4,3,1,3,1,1
1511884647445850,-1,1,-4,1,8,1,-5,-2
1511884647445850,1,0,2,1,-5,-3,0,-2
1511884647460890,0,0,0,-1,2,-1,0,0
1511884647460890,0,-4,-2,-3,-3,-2,-3,-2
1511884647468911,0,0,3,1,-2,1,3,1
1511884647468911,-1,1,-1,1,2,2,-4,-1
1511884647475938,1,0,-1,3,-3,3,-1,0
1511884647475938,-1,-2,0,-5,-4,-5,-2,-1
1511884647490980,0,-3,1,1,8,3,0,3
1511884647490980,-2,-1,-8,-7,-3,-2,17,-4
1511884647497998,0,0,1,-4,-4,-1,105,5
1511884647497998,1,0,2,7,5,3,126,1
1511884647505986,2,-6,2,0,-7,-4,127,1
1511884647505986,2,-3,3,-3,-1,-3,126,3
1511884647521057,-1,-2,0,12,7,-1,26,-1
1511884647521057,-2,0,-5,-9,-10,-6,19,-1
1511884647529074,-2,1,-4,-3,3,-1,1,-2
1511884647529074,-3,1,3,1,6,0,-32,-1
1511884647536070,0,1,3,1,-4,-3,-39,-4
1511884647536070,-1,-1,-3,-4,0,-1,-69,1
1511884647551132,-3,-2,-4,-1,-2,-4,-88,-3
1511884647551132,2,-1,-1,1,0,1,-62,2
1511884647558142,0,-1,1,4,1,-1,-52,-4
1511884647558142,-2,0,1,6,7,5,-52,-3
1511884647574192,0,-1,-4,-8,-13,-6,-39,0
1511884647574192,0,2,-3,-3,0,-1,-48,-3
1511884647581210,0,-2,0,-2,-1,1,-49,0
1511884647581210,-1,-1,6,16,6,-5,-38,-1
1511884647589207,1,-5,-7,-22,-7,7,-23,1
1511884647589207,-3,-1,-1,-5,-5,0,-28,-2
1511884647596250,4,-2,-1,-2,-3,-2,-19,0
1511884647596250,-1,-3,-1,-4,1,-2,-8,-3
1511884647611294,-1,1,1,11,3,1,-16,0
1511884647611294,-1,0,-2,-5,-1,0,-23,-2
1511884647618311,-3,1,1,-3,-1,3,-23,0
1511884647618311,0,0,-3,-6,-5,-2,-74,-1
1511884647634350,0,1,1,2,1,-2,-22,2
1511884647634350,1,1,4,5,1,-3,-8,0
1511884647640368,-3,-2,1,-1,-2,3,22,-1
1511884647640368,-1,-2,-1,-6,-9,-3,19,-3
1511884647649367,0,-1,2,7,11,3,8,-2
1511884647649367,1,1,-3,-3,-6,-2,13,-1
1511884647655383,3,-2,4,4,1,-3,4,0
1511884647655383,0,0,1,-2,-1,-1,5,-2
1511884647671426,-3,-4,-11,-15,-8,-1,-16,-1
1511884647671426,0,2,4,4,-3,0,-6,-2
1511884647678474,-1,0,-3,-5,7,0,-16,-2
1511884647678474,0,3,0,-2,-8,2,-6,1
1511884647693484,1,1,-1,7,8,-3,-4,-2
1511884647693484,0,-3,-2,-2,-1,2,-12,1
1511884647700503,-2,-4,-5,-14,-3,-2,-11,1
1511884647700503,-1,1,-2,-1,-8,-4,8,-2
1511884647708537,0,3,3,-1,5,0,-6,-2
1511884647708537,0,0,3,7,4,1,-5,0
1511884647717575,-1,1,1,9,9,4,-10,1
1511884647717575,-1,-2,-4,-6,-4,0,-3,0
1511884647731612,1,0,2,-3,-12,-3,-5,-4
1511884647731612,-3,0,0,7,9,-1,0,0
1511884647738631,-2,-4,-4,-5,-12,1,7,-1
1511884647738631,2,0,-2,-9,2,-2,6,3
1511884647753672,-2,-1,3,8,2,-1,-14,0
1511884647753672,-1,-2,-3,-9,0,3,-15,10
1511884647760688,0,-1,-1,3,1,-3,-14,11
1511884647760688,-2,-1,-2,-2,4,1,-21,21
1511884647768711,2,-1,4,2,-2,0,-17,-19
1511884647768711,-2,-1,-2,0,2,1,-13,-27
1511884647777735,-3,-2,-3,-3,-4,0,-22,-29
1511884647777735,1,-2,-4,-1,3,0,2,-18
1511884647791745,0,0,0,-4,-5,-2,-3,-4
1511884647791745,-3,-1,-3,0,1,3,-10,-1
1511884647798792,1,1,-1,2,4,0,-2,2
1511884647798792,0,0,2,1,-4,2,14,11
1511884647813924,0,-1,-3,-4,1,-4,30,31
1511884647813924,-1,0,1,-3,-3,-3,12,22
1511884647821095,0,2,0,3,2,-2,16,30
1511884647821095,0,-2,-3,0,0,0,6,-6
1511884647828125,-1,2,-3,-8,1,3,-10,-46
1511884647828125,2,0,3,5,-3,-2,-19,-19
1511884647837186,1,-2,2,-1,-5,-3,-28,-32
1511884647837186,0,-1,-2,0,5,-4,-12,-25
1511884647851225,0,0,1,0,-6,1,-6,-3
1511884647851225,0,0,2,-2,0,2,8,-18
1511884647858243,1,-3,-1,4,2,-2,4,5
1511884647858243,-5,-1,0,-2,-4,3,-2,10
1511884647874286,0,0,-3,2,-2,-1,-2,19
1511884647874286,0,-1,0,-4,0,-4,2,13
1511884647880302,0,0,0,-6,-5,1,12,13
1511884647880302,-1,-1,-1,1,-5,-1,47,9
1511884647888323,-3,-2,1,8,7,0,49,53
1511884647888323,-2,1,-2,-7,-7,-3,47,117
1511884647903363,-2,-2,-3,2,4,0,51,32
1511884647903363,0,1,1,2,0,-5,-43,-6
1511884647911411,-2,-3,-4,-5,1,-1,-42,-9
1511884647911411,0,-5,-2,5,-3,-6,-50,-68
1511884647918430,-4,1,1,-1,-2,-6,-50,-38
1511884647918430,3,-1,1,1,0,6,-26,-35
1511884647933469,1,-1,2,-1,-2,-2,-26,-22
1511884647933469,2,-2,-6,-6,-5,-3,-58,-32
1511884647948483,2,2,3,0,1,-4,-32,-26
1511884647948483,1,-4,3,0,1,-8,-62,-71
1511884647949485,0,-1,-4,-2,-2,6,-35,-24
1511884647949485,0,1,1,1,-2,1,10,-14
1511884647963523,-2,-4,-4,-5,-6,-1,16,12
1511884647963523,-1,1,1,3,-3,-1,35,48
1511884647971575,1,2,5,0,4,5,46,33
1511884647971575,0,-2,0,4,4,-4,35,23
1511884647978590,1,0,-4,-2,-5,2,16,12
1511884647978590,1,1,0,-6,-3,1,38,22
1511884647993621,-1,-3,-2,2,4,-5,21,-6
1511884647993621,-1,1,2,-1,-13,-1,29,-3
1511884648000649,0,0,-4,-2,13,4,41,11
1511884648000649,-5,3,-3,-5,-6,-4,80,49
1511884648008681,-1,1,-2,2,-10,-6,120,41
1511884648008681,-2,-2,-1,-1,5,5,103,45
1511884648023708,-4,0,-1,-7,-10,0,15,34
1511884648023708,4,-3,2,0,3,0,-33,17
1511884648031704,-2,2,0,0,2,0,-23,-97
1511884648031704,1,1,0,-1,-8,-2,29,-98
1511884648038726,-1,-3,4,5,10,3,-70,-128
1511884648038726,-1,-2,-3,-1,0,4,-111,-52
1511884648053801,-1,-3,0,-2,-2,-4,-101,-29
1511884648053801,-3,0,-2,-2,3,2,42,-2
1511884648060825,0,-5,0,1,-2,-3,63,25
1511884648060825,-5,-7,-8,-3,-2,-3,64,3
1511884648067801,22,11,4,0,3,0,-71,44
1511884648067801,-1,-1,3,-1,-2,-3,-128,12
1511884648084846,3,4,0,2,-1,-2,-42,-1
1511884648084846,-7,-6,-2,0,2,0,8,-3
1511884648091894,-7,-7,-6,-3,-7,-1,66,3
1511884648091894,3,2,-2,2,8,5,36,20
1511884648097881,-4,0,-2,-2,-9,-3,29,18
1511884648097881,8,0,-3,-1,-6,-8,39,-2
1511884648114128,-18,-5,-2,-2,4,16,37,46
1511884648114128,4,3,-1,-1,-3,-4,13,55
1511884648121069,-5,-1,0,-2,3,3,19,28
1511884648121069,10,4,1,1,4,0,9,6
1511884648127960,-8,-2,2,0,-1,-1,-31,-11
1511884648127960,-1,-3,-1,1,-3,5,-34,11
1511884648143025,-11,-3,-5,-3,-1,0,-2,108
1511884648143025,15,7,2,0,-1,-2,50,127
1511884648151024,7,3,-2,-2,-6,-1,111,-8
1511884648151024,-6,-2,-2,0,3,-2,43,-116
1511884648158044,-4,1,1,-2,-4,0,8,-128
1511884648158044,-16,-1,2,1,2,7,-34,-128
1511884648174087,11,0,1,-1,1,-6,-55,-37
1511884648174087,-2,-3,0,-1,3,-1,-34,-26
1511884648181332,15,-1,4,2,1,1,-28,8
1511884648181332,-8,-6,2,-1,2,0,-66,-7
1511884648196284,-2,0,0,1,3,-3,-51,-10
1511884648196284,1,1,2,5,8,14,-10,19
1511884648203302,24,6,0,5,1,1,2,46
1511884648203302,3,1,-4,-5,-3,1,14,38
1511884648219537,-21,-4,-4,-6,-1,3,13,29
1511884648219537,5,1,0,-1,-5,-15,-37,37
1511884648220374,-10,0,-1,0,-6,-3,-18,19
1511884648220374,4,4,4,6,6,7,-8,-4
1511884648241404,-3,-2,-1,0,-2,-4,-1,8
1511884648241404,0,8,0,-2,-4,-3,-15,11
1511884648242403,-3,-15,-8,-2,-1,0,-5,-5
1511884648242403,-8,1,-3,-4,-5,-4,-13,-18
1511884648265465,18,-2,2,0,-1,-3,-27,7
1511884648265465,8,-2,1,0,1,-4,-14,-6
1511884648266468,-12,0,3,-1,0,-2,-7,-14
1511884648266468,-6,-3,-10,-7,-3,-2,0,-2
1511884648279511,-10,0,-3,-3,-1,1,5,-9
1511884648279511,8,0,-1,1,0,-3,4,14
1511884648279511,6,1,1,2,0,0,-6,-6
1511884648279511,5,3,7,9,2,3,3,2
1511884648302766,-3,-2,-2,-2,-1,-1,-11,-10
1511884648302766,-5,-4,-6,-6,-2,1,-2,2
1511884648303579,0,1,-3,-4,-1,-1,-1,-5
1511884648303579,-13,-7,-2,2,0,-3,3,2
1511884648317644,6,-4,1,-1,0,-1,0,0
1511884648317644,-10,-5,-1,-3,2,11,4,-2
1511884648323634,10,1,3,-3,-5,-10,-5,0
1511884648323634,-4,-2,3,2,2,-3,-1,-8
1511884648338674,2,3,5,6,3,-1,5,4
1511884648338674,0,2,0,2,1,3,-7,-1
1511884648339673,-13,0,-8,-4,-5,-1,1,-8
1511884648339673,-10,5,-6,-6,0,3,2,-4
1511884648361923,-1,-2,-7,-1,-6,-9,-4,12
1511884648361923,-5,4,2,-5,1,1,0,-9
1511884648362788,16,-6,6,5,3,2,5,4
1511884648362788,-8,-10,-3,-7,-4,-4,-1,-3
1511884648377779,3,-3,1,2,2,4,-4,-5
1511884648377779,2,-2,-3,0,-7,-2,-1,-4
1511884648383919,-5,3,-2,-3,5,2,6,-2
1511884648383919,0,1,4,12,-1,-8,-10,-10
1511884648399169,1,2,-8,-30,2,10,-3,3
1511884648399169,-1,1,-1,-6,-12,-8,-18,-4
1511884648399976,-5,4,9,6,12,16,-3,-3
1511884648399976,16,16,7,11,5,-15,5,5
1511884648421136,-8,3,6,13,1,-8,19,1
1511884648421136,-5,7,-8,-6,-7,-17,28,1
1511884648422034,0,-9,-11,-17,0,6,19,-4
1511884648422034,7,-2,-1,-6,5,17,8,3
1511884648437074,16,-3,-3,8,-2,7,3,16
1511884648437074,7,20,12,9,10,3,-4,-3
1511884648443122,-2,2,3,1,-10,-5,-11,-3
1511884648443122,-11,-9,-2,0,0,3,-5,-4
1511884648459132,-1,-9,8,4,1,5,-11,-4
1511884648459132,5,-27,-8,-2,-3,-1,-4,5
1511884648460135,-6,-3,-11,-9,5,1,-8,4
1511884648460135,12,3,1,-11,-22,-18,-4,3
1511884648481192,-10,8,2,4,-3,2,-5,-5
1511884648481192,-1,1,0,-1,-6,-3,1,-2
1511884648482206,0,7,6,12,15,-10,-3,-2
1511884648482206,-5,-10,-11,-19,-14,12,3,3
1511884648497233,0,25,0,11,26,3,8,-12
1511884648497233,-4,45,-3,-9,-27,-14,-10,17
1511884648503253,2,-8,2,-2,-4,7,2,4
1511884648503253,-9,-21,1,5,3,-2,-3,-8
1511884648518654,9,-33,2,0,-3,-2,3,10
1511884648518654,-9,-21,-2,0,9,9,1,-8
1511884648519531,2,0,-3,-4,-9,-8,-9,-4
1511884648519531,1,6,-2,-5,2,0,-4,5
1511884648541593,-15,13,0,-3,-7,-6,-12,-13
1511884648541593,5,-12,-1,5,13,-3,-6,0
1511884648542596,2,-7,3,-4,-8,-3,-1,-1
1511884648542596,5,-21,-1,-7,0,-4,-8,-1
1511884648557636,-4,-19,-8,-12,0,-5,-13,4
1511884648557636,5,2,7,8,21,1,1,0
1511884648563652,-7,9,-3,-5,-2,5,-3,-12
1511884648563652,3,13,0,2,-31,-13,1,-2
1511884648578688,0,11,-1,-7,-25,1,11,1
1511884648578688,-8,-3,-6,-8,-3,9,4,-3
1511884648579691,-1,8,2,1,-4,-11,-9,-2
1511884648579691,1,7,2,5,14,10,2,0
1511884648601751,-8,-2,-4,-3,9,-6,-7,-6
1511884648601751,6,-15,1,-9,4,-9,-2,11
1511884648602754,-7,5,1,-2,13,8,13,-8
1511884648602754,19,8,-4,-6,4,1,5,3
1511884648617794,-2,-3,-1,1,-10,5,5,-7
1511884648617794,1,-4,1,1,-11,-5,1,-1
1511884648623814,-10,4,-1,3,-16,-4,-7,-9
1511884648623814,3,4,3,11,-1,7,3,17
1511884648638849,-3,-4,-5,-3,0,0,-11,-13
1511884648638849,6,-8,2,3,-5,-5,-4,-13
1511884648639853,-15,-7,-4,2,5,-3,-2,2
1511884648639853,4,-2,-1,-2,1,-4,-6,4
1511884648661949,5,6,4,3,3,-2,-2,9
1511884648661949,-4,2,0,4,12,13,8,5
1511884648661949,4,-10,-2,1,-9,-5,-4,11
1511884648661949,-4,2,0,3,10,4,-1,-7
1511884648676980,-2,0,-3,3,-2,-5,5,3
1511884648676980,-2,2,1,1,1,3,-5,-9
1511884648682967,9,2,1,1,5,1,-1,7
1511884648682967,-8,-7,-1,0,-2,-8,6,-5
1511884648699058,1,2,-2,1,0,0,1,8
1511884648699058,-9,-6,-3,0,-3,-2,3,-12
1511884648700013,1,-10,-7,-5,-8,3,4,2
1511884648700013,-1,3,2,0,-5,-3,2,0
1511884648721262,11,-2,3,1,-1,-10,-19,1
1511884648721262,-23,-13,-7,-6,-7,-1,-20,-11
1511884648722071,1,-2,-3,-3,1,-9,5,-1
1511884648722071,-8,-1,-1,4,0,9,15,-8
1511884648737139,0,-5,-2,-10,-21,-25,-32,-3
1511884648737139,11,3,10,15,46,32,22,7
1511884648743164,-2,2,10,15,-23,-18,-19,-5
1511884648743164,-24,0,-16,-15,19,8,15,-26
1511884648759193,7,2,-8,3,40,17,18,11
1511884648759193,-13,8,14,31,-22,-21,-17,-4
1511884648760176,17,-18,-21,-31,13,8,1,6
1511884648760176,-1,7,-7,-12,-8,4,-3,10
1511884648781251,2,0,5,3,-8,1,4,-15
1511884648781251,-6,1,9,-1,-9,0,8,-1
1511884648782234,14,13,16,26,4,-6,11,23
1511884648782234,-28,-20,-14,-19,-18,-20,-25,-7
1511884648797270,12,-3,-24,-27,-12,10,7,-18
1511884648797270,-10,1,-9,-17,1,-12,-3,7
1511884648803328,-13,-34,-4,6,8,11,-19,-11
1511884648803328,8,0,11,6,-4,7,-3,13
1511884648818364,11,8,12,24,34,3,2,5
1511884648818364,20,4,14,9,-25,-23,-3,3
1511884648826348,-8,4,72,12,9,6,-5,-17
1511884648826348,0,-4,8,-4,8,19,17,-1
1511884648841431,-2,-3,-8,-21,-27,9,12,-3
1511884648841431,-2,-2,-44,-19,0,10,1,-2
1511884648842390,-11,4,-56,-5,12,-1,0,0
1511884648842390,16,9,-12,15,12,5,-5,-2
1511884648857430,-5,5,-2,11,-1,-10,-9,2
1511884648857430,-5,-7,-8,-3,1,-1,0,-10
1511884648863446,-8,7,-1,-13,-19,-5,3,9
1511884648863446,5,-5,13,15,13,-5,-13,0
1511884648878613,0,8,5,-4,-5,-8,3,-4
1511884648878613,-14,-15,9,-4,-10,-9,-5,-12
1511884648885686,33,12,8,5,-3,11,23,35
1511884648885686,-12,-14,-2,-9,6,-10,-1,0
1511884648901705,-24,-1,5,-7,-21,8,9,-9
1511884648901705,24,3,12,9,30,21,2,8
1511884648902707,1,8,-5,-8,-6,4,3,-9
1511884648902707,1,7,6,19,6,0,-2,-1
1511884648917749,1,-7,-8,-16,-18,1,1,0
1511884648917749,-7,-1,-4,-10,-3,5,7,6
1511884648923763,10,-8,-10,-5,1,-5,-8,-10
1511884648923763,4,4,5,1,-4,0,2,1
1511884648938805,-14,-5,5,16,1,-12,-18,-5
1511884648938805,2,1,-6,-6,5,-2,-5,7
1511884648945822,-3,9,2,5,-22,-11,-9,-13
1511884648945822,10,5,-8,-17,-2,4,-3,3
1511884648961904,-3,-4,5,9,11,13,16,1
1511884648961904,0,3,-1,-4,-12,-4,-9,-1
1511884648962890,-11,0,-1,-2,6,2,-2,-6
1511884648962890,9,5,-3,2,-1,-9,-3,-7
1511884648976908,-17,-5,0,-7,-3,-1,-1,4
1511884648976908,-10,-8,0,-3,-6,-6,-6,-1
1511884648982920,-4,-7,5,7,2,8,5,-1
1511884648982920,0,-1,2,1,-6,3,-2,-3
1511884648998087,-5,-8,-14,-9,11,-12,-6,-3
1511884648998087,1,7,-1,-8,-1,1,1,0
1511884649005982,7,1,-1,3,0,-2,10,-3
1511884649005982,0,-3,5,-1,-5,4,5,5
1511884649021207,8,7,6,4,8,0,-2,6
1511884649021207,6,2,-3,1,-1,7,5,1
1511884649022026,-8,-4,-6,-1,0,-7,-5,-1
1511884649022026,-6,-3,-9,-8,-5,-2,1,-6
1511884649037192,7,4,3,4,2,-3,-1,-3
1511884649037192,0,0,3,4,-1,2,5,0
1511884649043211,-2,11,3,1,0,-6,-1,-5
1511884649043211,-12,-21,3,8,-12,-14,-15,-3
1511884649058252,5,2,1,1,19,18,19,4
1511884649058252,-5,-8,-10,-15,-22,-7,-6,-5
1511884649065270,1,0,-5,-2,17,10,11,8
1511884649065270,5,4,4,-1,-4,-1,1,2
1511884649081513,1,-5,5,11,-2,-7,-5,-2
1511884649081513,-5,-4,-2,-1,9,8,7,0
1511884649082313,2,-6,-15,-16,-4,-5,-5,-2
1511884649082313,-3,6,-3,-1,2,1,1,3
1511884649097543,7,4,4,5,-4,2,7,1
1511884649097543,0,-7,4,6,4,1,-6,6
1511884649103654,-4,-2,2,4,-3,-9,-3,-2
1511884649103654,-10,2,2,-3,2,-2,-1,4
1511884649118770,9,-4,-7,-4,-12,-3,-5,5
1511884649118770,0,1,-2,-3,1,-2,-2,-8
1511884649125594,-2,0,6,5,3,4,3,1
1511884649125594,4,-2,-2,-1,-3,-1,1,1
1511884649141634,-2,-1,-1,-5,-1,-3,-4,-4
1511884649141634,5,-4,-4,-4,-5,-5,3,2
1511884649142637,-4,-1,1,-2,0,-2,-5,-4
1511884649142637,7,7,4,8,0,1,-3,-7
1511884649157684,-5,-2,-6,-3,-1,-7,-6,-3
1511884649157684,0,3,0,-9,-16,0,3,-1
1511884649163825,-6,-3,-8,-4,4,3,-1,-3
1511884649163825,3,3,0,-3,1,2,-17,1
1511884649178780,-4,-4,-1,-2,0,0,-29,-1
1511884649178780,-1,1,4,4,-6,-1,-28,2
1511884649185773,2,3,2,4,5,-3,-20,-5
1511884649185773,4,1,0,2,-2,-2,-5,3
1511884649201797,4,2,-3,-1,-1,5,12,3
1511884649201797,-3,-2,0,4,7,0,4,-6
1511884649202798,-5,-4,-3,-10,-7,-3,-2,-4
1511884649202798,0,4,8,6,9,2,8,-2
1511884649217843,-4,-7,-9,-2,-6,-1,2,5
1511884649217843,1,-1,-3,-9,-7,-8,-5,-1
1511884649223857,0,-1,-3,-7,0,0,10,4
1511884649223857,1,1,5,7,1,-2,9,-2
1511884649238897,-3,-1,2,-1,-3,-1,3,-4
1511884649238897,3,1,0,11,10,3,5,2
1511884649245956,-2,0,-1,-5,-6,-5,-2,1
1511884649245956,0,-1,-7,-7,1,-3,3,-3
1511884649261082,-1,1,7,6,2,-2,4,0
1511884649261082,0,-1,2,6,0,1,11,1
1511884649262085,1,-2,-3,-7,-3,3,9,-4
1511884649262085,-1,-2,-2,4,2,3,10,3
1511884649278093,-1,1,0,-5,-1,-3,3,-2
1511884649278093,2,7,1,-7,-2,-3,14,-1
1511884649283214,0,-6,-3,6,-2,-1,26,1
1511884649283214,-3,-3,-5,-5,-2,-2,35,-4
1511884649298380,-1,-5,-1,1,3,-2,-32,-3
1511884649298380,0,0,0,-6,-5,-3,-40,-1
1511884649306276,2,6,5,9,4,1,-36,1
1511884649306276,1,0,1,0,-5,0,-17,0
1511884649321438,-2,-3,-2,2,1,-1,15,-3
1511884649321438,-23,-17,-10,-8,-6,-3,28,-9
1511884649322317,1,-2,-3,-2,-1,-3,37,3
1511884649322317,1,2,-1,-7,-3,1,36,-2
1511884649337357,2,3,6,5,0,1,27,1
1511884649337357,6,0,2,1,6,0,9,3
1511884649343374,-3,0,-1,1,-2,-4,-10,-4
1511884649343374,-5,-4,-7,-14,-7,-2,-21,-2
1511884649358411,0,1,2,5,2,2,-11,-3
1511884649358411,3,0,-2,1,4,4,-8,-1
1511884649365459,-5,0,-8,-14,-9,1,-9,0
1511884649365459,4,1,4,5,3,-1,-13,3
1511884649381501,-1,0,1,1,-5,-3,-8,-3
1511884649381501,2,3,3,9,7,0,2,3
1511884649382476,-3,0,1,1,-5,1,-6,-2
1511884649382476,-3,2,-3,1,1,1,-12,-2
1511884649397515,-4,-7,-2,-5,-3,-4,-6,-1
1511884649397515,0,5,4,2,2,2,2,0
1511884649403648,4,-2,-1,-6,-2,0,-2,-1
1511884649403648,-2,-5,-1,-1,-1,-3,-7,-2
1511884649418676,1,1,1,-5,-1,-1,1,-2
1511884649418676,4,2,0,3,1,-1,-2,-1
1511884649425592,-2,1,0,4,2,-2,-2,-2
1511884649425592,3,1,-6,-8,-3,0,-4,1
1511884649441878,0,-1,-1,-2,-4,-2,-1,3
1511884649441878,-1,-5,4,4,4,-1,-2,1
1511884649441878,2,1,6,5,0,1,0,-1
1511884649441878,0,-2,-1,6,10,-3,-1,1
1511884649456917,-4,1,-3,1,-7,-4,-2,-1
1511884649456917,0,-2,-7,-15,-7,3,6,5
1511884649462946,0,-2,-2,-1,3,-4,-3,-2
1511884649462946,-2,-1,2,-1,-3,-2,1,-1
1511884649477974,-2,-2,-5,-6,-1,1,-4,0
1511884649477974,2,3,3,4,-3,-1,0,-1
1511884649485994,-1,1,1,3,6,1,0,-1
1511884649485994,-1,-2,-4,-13,-9,-4,-2,-3
1511884649502037,-3,-2,-3,-5,1,1,7,3
1511884649502037,-2,1,-3,-1,-1,-3,-1,-1
1511884649502037,1,-1,8,5,-4,0,-2,-1
1511884649502037,0,-1,4,6,2,-1,-2,1
1511884649517078,-3,-2,-3,-3,-1,3,3,1
1511884649517078,0,-1,-3,-4,-3,-6,-12,-4
1511884649523093,-4,-1,1,0,3,0,-5,-4
1511884649523093,1,0,-2,1,-2,1,8,0
1511884649538134,1,1,2,1,-2,2,4,0
1511884649538134,0,-2,-3,2,2,1,-2,-1
1511884649546155,0,-2,-6,-11,-9,-1,0,2
1511884649546155,2,-1,-1,0,-4,-2,-8,-2
1511884649561198,-1,2,2,10,5,-2,1,-2
1511884649561198,-1,-3,-2,-5,3,1,4,0
1511884649562198,0,0,3,6,2,-3,-1,0
1511884649562198,-6,-3,-4,-7,-4,1,-2,-4
1511884649577481,-2,2,0,-3,1,-1,3,0
1511884649577481,1,-1,2,10,-1,-2,-5,0
1511884649583496,1,-2,-2,-4,-2,6,6,4
1511884649583496,0,-2,-3,-3,-4,-7,-8,1
1511884649598720,3,2,-3,3,5,0,-4,-2
1511884649598720,-4,1,-5,-4,-2,-1,3,0
1511884649605557,-1,-2,0,1,0,-3,-5,0
1511884649605557,-2,1,-1,1,-2,0,2,0
1511884649621688,0,-1,1,-4,-2,-4,-2,0
1511884649621688,0,2,4,4,2,3,0,-1
1511884649622708,-1,1,4,-1,-5,-2,1,-4
1511884649622708,-2,-2,-3,6,4,0,-1,0
1511884649637640,-2,-5,-2,-5,-2,-1,-2,1
1511884649637640,0,-2,0,-6,-6,0,2,-2
1511884649643844,-1,1,2,3,1,-2,-1,-1
1511884649643844,1,-2,0,3,1,1,0,-3
1511884649658858,-1,-3,-5,-10,-2,0,0,2
1511884649658858,-1,1,0,2,-3,-3,1,1
1511884649665715,-1,-2,-2,6,12,4,-5,-2
1511884649665715,0,-1,-2,-15,-14,-1,0,0
1511884649680893,1,1,-4,-1,2,1,-2,-2
1511884649680893,-2,1,-3,-1,-2,1,-2,-1
1511884649681895,-1,4,1,-1,-6,-4,-2,0
1511884649681895,-2,-1,2,4,11,4,0,1
1511884649696938,1,-2,-1,-1,-3,-1,0,-1
1511884649696938,0,1,-3,-9,-3,-3,1,0
1511884649702954,-2,-3,0,2,-5,-2,-2,-2
1511884649702954,-1,1,5,10,11,1,-11,-3
1511884649717991,-1,0,1,-4,-8,-4,-1,-1
1511884649717991,0,-1,-1,1,1,0,-4,-3
1511884649726012,1,2,-4,-4,-2,0,1,0
1511884649726012,1,0,2,-4,-1,-4,2,1
1511884649741052,0,-4,0,2,2,0,-5,-1
1511884649741052,-1,-3,-4,-3,-1,-1,-1,1
1511884649742054,-1,-1,3,1,-1,0,3,-2
1511884649742054,0,2,-1,-1,0,0,4,0
1511884649757228,-2,0,-2,0,-4,-3,-6,-2
1511884649757228,3,-4,-7,-7,-3,-2,0,-2
1511884649763244,-1,-4,-6,-12,-4,-2,1,2
1511884649763244,0,2,4,13,4,-2,2,0
1511884649778283,2,0,1,-5,-3,8,9,2
1511884649778283,-3,-1,5,8,1,-3,-1,-1
1511884649785328,0,0,-4,-5,-2,-2,-3,1
1511884649785328,0,-3,-5,-7,-2,-1,-1,-4
1511884649801388,-1,-1,2,8,2,-4,-1,-2
1511884649801388,1,-3,3,-3,0,2,0,1
1511884649808412,-1,1,-6,-5,-1,2,1,-2
1511884649808412,1,-1,1,-5,-4,-2,-1,4
1511884649817434,-2,1,4,8,2,-1,-4,0
1511884649817434,-3,-1,-3,0,0,1,3,-2
1511884649823452,-4,-4,-8,-3,1,-8,-4,5
1511884649823452,-3,1,-4,-17,-14,-1,-3,-2
1511884649838490,1,1,-2,-2,4,-1,-3,2
1511884649838490,0,0,3,10,7,-2,3,0
1511884649845510,-1,0,4,0,-2,-1,-1,-1
1511884649845510,0,-3,-5,-7,-3,-2,0,0
1511884649860550,-1,-2,2,4,0,-3,2,-2
1511884649860550,0,2,3,2,1,6,-2,-2
1511884649868770,1,-1,-3,-3,-3,0,-1,-3
1511884649868770,-2,-2,-1,6,4,1,-6,-2
1511884649877033,-2,-2,-1,-7,-3,1,-1,-2
1511884649877033,-1,-1,-5,-5,7,2,3,4
1511884649883168,-2,0,5,2,-3,0,-1,0
1511884649883168,1,0,0,4,3,2,1,1
1511884649898166,-1,-1,-5,0,1,0,2,-1
1511884649898166,0,-2,0,-2,-2,-2,-2,2
1511884649906187,-1,-2,4,9,8,-1,-2,1
1511884649906187,-2,-3,-7,-11,-12,-3,1,-3
1511884649921224,0,0,0,-1,-3,-3,-3,-1
1511884649921224,-2,1,-1,3,2,2,-2,-1
1511884649928267,0,-1,-2,-4,-4,1,4,-3
1511884649928267,1,3,4,8,8,2,-3,1
1511884649944373,0,-1,1,-5,-3,-1,0,0
1511884649944373,-1,0,-4,-5,-7,-6,-3,0
1511884649944373,0,2,4,6,2,1,2,0
1511884649944373,-3,0,1,0,3,1,-2,2
1511884649958410,-2,2,0,-6,-5,1,1,-2
1511884649958410,-1,0,3,5,-7,-4,0,-2
1511884649965428,-1,-2,-5,-7,5,2,-1,0
1511884649965428,-1,1,-2,1,-8,-1,0,2
1511884649980468,-3,0,-3,-3,-1,-2,-4,2
1511884649980468,-2,-1,2,2,3,0,-1,0
1511884649988489,1,-2,1,7,2,-2,1,-1
1511884649988489,0,-1,-4,-6,-6,1,0,-1
1511884650003529,-1,-1,4,4,2,2,-2,3
1511884650003529,0,1,1,-1,-5,-2,-2,-3
1511884650004532,-2,-1,-5,-7,-4,-5,-3,-5
1511884650004532,-1,-2,-4,-3,1,-4,1,-2
1511884650018570,0,2,2,1,1,2,1,4
1511884650018570,0,-1,1,5,4,1,1,-2
1511884650025589,-1,0,0,-2,-5,-1,-2,-1
1511884650025589,-1,-1,2,-1,-3,-1,-1,-1
1511884650040655,-1,-4,-7,-5,-3,-4,-5,-4
1511884650040655,-1,-2,-5,-7,-3,-2,-3,-3
1511884650048676,1,2,1,4,2,4,6,1
1511884650048676,-3,-2,2,2,1,1,-2,-2
1511884650063927,-1,-3,-5,-2,0,-4,-1,2
1511884650063927,-1,-1,-2,-6,1,0,1,-2
1511884650064829,1,-1,3,-1,-4,-1,0,2
1511884650064829,0,-1,8,10,9,-1,-1,1
1511884650077867,-2,-1,-8,-7,-7,1,-3,-4
1511884650077867,-2,-4,-6,-6,-5,-1,0,-3
1511884650085885,-1,1,0,-1,-2,0,-1,-1
1511884650085885,1,2,7,5,4,1,3,3
1511884650101047,1,-1,4,5,1,-1,1,-3
1511884650101047,1,-3,0,4,3,1,-3,0
1511884650107968,-1,-2,-7,-7,-5,1,-1,1
1511884650107968,0,-1,-2,-3,2,-7,-6,-4
1511884650123990,-1,-2,-4,-5,-5,1,3,0
1511884650123990,2,2,8,8,1,-2,3,3
1511884650124993,1,-1,-1,2,0,-3,-1,-5
1511884650124993,-2,-3,-9,-6,-1,5,2,-3
1511884650138051,0,1,0,-3,-2,-2,-5,0
1511884650138051,-2,-3,1,-2,-2,2,0,0
1511884650146072,0,0,1,5,10,1,-4,0
1511884650146072,1,2,-1,4,-3,0,-2,-2
1511884650161108,1,1,-2,7,6,1,1,1
1511884650161108,-2,0,-6,-10,-8,1,1,-3
1511884650168127,-4,-1,-2,-4,-2,0,-2,0
1511884650168127,1,-1,-2,0,0,-4,-3,1
1511884650184147,0,2,5,5,0,0,1,-3
1511884650184147,2,2,-1,0,0,0,3,-1
1511884650185172,-2,-2,1,-2,-4,-2,-2,-1
1511884650185172,-1,0,-3,-1,1,1,1,0
1511884650198208,-3,-3,0,-1,-2,-2,0,-1
1511884650198208,-2,-3,-5,-1,3,-1,-2,-2
1511884650205374,-1,-1,-3,-1,0,-3,0,-4
1511884650205374,0,-4,-2,-3,-2,-2,0,1
1511884650220474,-1,2,-2,-4,-1,1,2,-2
1511884650220474,0,0,0,1,4,-3,-4,3
1511884650228478,2,2,1,3,-2,2,-2,2
1511884650228478,-1,0,3,4,-1,-2,3,0
1511884650244482,0,-4,-2,-5,0,-1,-3,-2
1511884650244482,0,0,-2,-1,1,-4,-1,-2
1511884650244482,-1,2,2,-3,0,-3,-2,1
1511884650244482,0,-3,-2,-1,1,-2,0,0
1511884650258518,-2,0,3,2,-1,-3,-2,-1
1511884650258518,-1,-2,-2,-3,-5,0,-1,-1
1511884650265774,0,0,0,2,1,-1,-2,-2
1511884650265774,0,0,-1,0,-2,3,-1,-1
1511884650280653,-3,-4,-4,-5,-2,-2,1,-1
1511884650280653,-2,2,2,1,-1,1,0,0
1511884650288671,-1,-2,-3,-4,-2,2,2,0
1511884650288671,-2,0,2,0,1,0,-2,-3
1511884650303994,2,2,1,2,3,1,1,1
1511884650303994,-3,0,-2,4,-1,-2,-3,-1
1511884650304997,-1,-1,-3,-5,-4,-3,-2,-2
1511884650304997,0,0,-4,-5,-3,-1,1,-2
1511884650320077,-1,-2,0,5,3,0,-1,0
1511884650320077,-2,-1,0,-6,0,0,0,1
1511884650326092,-1,1,-2,-2,-3,1,-1,0
1511884650326092,-1,-2,-1,-2,-1,-2,1,-2
1511884650341212,0,-1,2,1,-6,-3,1,-1
1511884650341212,-1,-1,-8,2,13,1,3,-1
1511884650348255,-2,-1,-4,-7,-5,2,1,-1
1511884650348255,0,-1,-2,-7,-8,-2,-4,1
1511884650364294,-3,2,3,6,5,1,0,-1
1511884650364294,-1,-3,1,4,-3,-4,-5,-2
1511884650365251,0,0,2,6,3,-1,-1,0
1511884650365251,2,2,2,3,0,-5,-5,-1
1511884650380356,-2,0,-5,-4,-1,-1,0,-2
1511884650380356,-1,-1,-4,-14,-12,-1,-3,-2
1511884650386303,0,-2,1,-1,5,-2,2,8
1511884650386303,-1,-1,1,1,-2,0,1,0
1511884650401363,1,3,2,7,3,1,4,2
1511884650401363,1,-1,-2,2,2,-2,0,1
1511884650408492,0,-4,-2,-3,-6,0,3,-3
1511884650408492,1,1,3,3,1,-3,-1,0
1511884650424408,0,-5,-7,-6,1,-1,-7,1
1511884650424408,2,1,4,2,-1,0,0,3
1511884650424408,0,2,-2,-4,-2,0,-1,-2
1511884650424408,-4,-3,-9,-7,-4,-1,-2,1
1511884650438442,0,-1,-1,-3,-1,-1,-1,-2
1511884650438442,-1,0,9,3,-8,-1,-2,0
1511884650445668,1,-1,-4,3,11,-1,2,2
1511884650445668,-2,0,0,-2,2,0,-1,-1
1511884650462505,2,3,4,4,0,8,5,3
1511884650462505,0,0,2,-1,-2,2,0,-3
1511884650468524,-3,-5,1,3,-4,-1,-1,-2
1511884650468524,0,0,-3,-2,-1,-2,0,1
1511884650483706,-1,0,-1,-7,1,2,1,-1
1511884650483706,-2,-2,-4,5,1,-4,2,-2
1511884650484706,-3,0,-2,-3,-6,-5,-2,-4
1511884650484706,0,-1,-1,-3,-3,1,1,0
1511884650497885,0,-2,3,5,0,-3,-4,-2
1511884650497885,1,-3,-2,-8,0,2,-1,0
1511884650506128,-1,-1,-2,-6,-4,0,-1,-3
1511884650506128,-1,0,4,4,2,-2,-1,-1
1511884650520978,-3,-3,1,3,1,-2,-2,-3
1511884650520978,-2,-3,-4,-3,-3,1,2,3
1511884650528109,-1,0,-5,-5,-1,-4,-6,1
1511884650528109,0,-2,-1,-1,-2,0,3,-3
1511884650544417,0,1,-2,-3,-3,-1,2,-1
1511884650544417,1,2,1,1,4,0,-1,-1
1511884650545300,-1,-1,4,8,2,3,0,1
1511884650545300,-1,1,0,1,-2,1,2,1
1511884650558336,-2,-1,3,0,3,-2,-3,1
1511884650558336,-1,-1,-6,-5,-10,0,0,-8
1511884650565397,1,-2,-3,-10,-1,-1,-1,-8
1511884650565397,3,1,-1,4,9,1,0,8
1511884650581393,0,-2,-3,0,-6,-2,-2,-3
1511884650581393,-1,-1,0,2,2,1,-1,0
1511884650588649,-4,-2,0,-8,-8,-3,1,-5
1511884650588649,-1,-3,-2,-8,-4,3,1,-4
1511884650604521,-1,-1,0,1,1,-3,0,-2
1511884650604521,0,0,-2,3,4,-2,-5,7
1511884650604521,-2,-3,-5,0,-3,0,-3,-3
1511884650604521,-1,-1,1,2,2,0,0,-2
1511884650619532,1,2,-3,-3,-1,-1,0,1
1511884650619532,-2,-2,-2,-5,-5,-4,-1,-3
1511884650625552,-2,0,4,5,3,3,-2,-2
1511884650625552,-1,1,-3,0,-2,0,-3,-1
1511884650640710,3,-2,-2,-6,-1,0,-1,0
1511884650640710,0,1,0,-5,2,-1,4,-1
1511884650648834,0,2,0,4,5,1,2,2
1511884650648834,-2,-2,-1,0,-2,-2,-3,-3
1511884650663960,1,-3,-1,1,-1,-3,4,7
1511884650663960,-3,1,0,1,0,5,1,-3
1511884650664770,-1,-3,-4,-5,0,-8,-4,1
1511884650664770,-1,3,3,-1,-1,9,2,-1
1511884650679810,2,3,1,4,1,-4,-2,0
1511884650679810,-1,-4,0,6,7,1,-4,1
1511884650686025,1,1,3,3,-5,-2,0,-2
1511884650686025,1,-5,-6,-2,-3,-6,-3,-1
1511884650700870,-4,-2,-2,-4,1,0,3,-1
1511884650700870,-1,-1,-2,-4,3,2,0,0
1511884650707904,-1,-1,-2,0,-2,1,-3,-2
1511884650707904,1,2,0,-2,-3,-4,-3,0
1511884650723146,-3,-8,5,4,2,8,-1,-5
1511884650723146,1,0,0,4,3,-6,-2,0
1511884650731167,1,4,-5,-8,-2,2,-3,-3
1511884650731167,0,-2,-3,-7,-13,-5,-4,1
1511884650740299,0,-7,-1,7,21,5,0,1
1511884650740299,-1,-1,0,-1,-3,1,-2,-5
1511884650745518,0,1,5,6,-4,-5,0,4
1511884650745518,0,4,-1,-3,0,3,5,-5
1511884650760490,-1,-7,-4,-4,-7,-7,-3,-2
1511884650760490,1,0,-4,1,9,0,3,0
1511884650768830,-3,0,-1,-5,-9,-4,1,2
1511884650768830,-2,2,5,3,3,6,-1,-5
1511884650783854,0,0,-7,-8,-10,-2,-4,-3
1511884650783854,-1,-7,-2,0,6,-3,1,0
1511884650790712,0,-1,0,2,1,2,2,3
1511884650790712,-4,-5,-2,-2,2,-3,-1,2
1511884650799734,-2,4,3,0,-9,-5,-4,-1
1511884650799734,-1,1,2,-8,-12,0,-2,-1
1511884650805754,-2,0,-3,2,3,-1,-2,-3
1511884650805754,-2,-4,-3,1,0,-6,-5,1
1511884650820792,2,5,-1,-2,0,0,5,2
1511884650820792,0,6,2,-1,-4,-3,-2,-2
1511884650827810,3,-5,-2,-1,4,1,0,1
1511884650827810,0,-3,0,0,6,0,-3,-1
1511884650842964,-1,1,-2,0,-3,-1,1,-4
1511884650842964,-2,1,3,-1,-7,-3,3,-2
1511884650850985,-2,2,0,6,12,6,1,2
1511884650850985,0,-1,-4,-8,-7,-4,0,1
1511884650865911,-2,1,-3,-9,-11,-6,-4,-1
1511884650865911,2,2,0,1,-2,-1,2,2
1511884650866911,-2,1,5,6,8,4,-1,-1
1511884650866911,-2,1,0,1,2,1,3,-1
1511884650880948,0,-1,3,2,3,3,4,1
1511884650880948,-1,-1,-3,-4,-4,0,-3,3
1511884650887967,1,-1,1,0,-6,-6,-2,0
1511884650887967,-4,-2,-3,3,-2,-7,-3,-3
1511884650903010,1,5,-2,-2,7,10,-3,0
1511884650903010,-1,-1,-1,-8,-7,0,-4,-4
1511884650919232,2,-1,-1,5,-2,-11,1,5
1511884650919232,1,-3,-5,-5,1,2,-6,2
1511884650926087,-3,-2,4,1,-8,-10,-4,-6
1511884650926087,4,3,0,3,6,3,-1,4
1511884650927071,0,1,1,-4,1,6,3,-4
1511884650927071,-2,-2,-1,1,0,4,0,-4
1511884650941109,1,2,2,2,-2,-4,-4,-5
1511884650941109,-3,-2,-5,2,5,-2,-6,1
1511884650948130,1,-1,-2,-5,-6,3,0,-1
1511884650948130,-4,2,5,11,6,-4,-8,-11
1511884650963289,0,3,-8,-8,0,11,5,-2
1511884650963289,-1,-6,3,1,-3,-7,-5,1
1511884650971285,-6,-2,-6,-9,-6,-10,-21,15
1511884650971285,1,4,1,2,2,-2,-9,-4
1511884650986365,7,-13,5,-2,-1,0,-3,-3
1511884650986365,-9,4,0,0,0,-3,-6,-4
1511884650987269,-1,0,-2,1,0,0,-8,-11
1511884650987269,1,-4,3,-3,-1,1,2,1
1511884651001269,-9,-1,-5,0,-4,-13,-15,-1
1511884651001269,5,1,-2,-2,-3,8,5,17
1511884651008291,4,-5,-3,0,0,-9,7,-7
1511884651008291,-3,-2,-5,-8,-7,-5,-3,3
1511884651023335,2,-1,-1,1,8,7,-1,-3
1511884651023335,-7,-6,0,3,1,0,-3,-13
1511884651031350,-2,4,4,0,0,3,3,-6
1511884651031350,2,-4,-4,-3,-5,-3,4,2
1511884651046505,-7,0,1,2,-2,-2,11,0
1511884651046505,2,0,-1,-6,0,-2,-10,-7
1511884651047391,9,3,5,2,1,9,1,6
1511884651047391,-1,-4,1,3,1,-4,-6,6
1511884651060445,-12,3,-3,-3,-4,-3,-5,-11
1511884651060445,4,-6,-3,1,-1,-5,4,3
1511884651068716,2,-3,-4,-5,0,18,15,2
1511884651068716,3,-4,-4,-2,-2,3,6,-1
1511884651083690,-5,4,0,2,0,-11,-7,1
1511884651083690,9,0,1,1,-1,4,1,1
1511884651090673,0,-2,-2,-1,3,0,-3,-7
1511884651090673,2,2,2,4,8,12,1,-6
1511884651106716,2,-5,-1,0,6,10,7,11
1511884651106716,-1,3,-2,-5,-8,-5,0,-4
1511884651107719,-5,-4,-1,5,7,-5,-5,-9
1511884651107719,0,2,0,-6,-7,-4,15,4
1511884651120753,5,3,3,3,-2,1,-1,-5
1511884651120753,-2,-9,-5,1,4,0,0,5
1511884651128786,-10,-2,-3,-1,-10,-6,5,2
1511884651128786,-4,0,3,-1,5,4,7,-17
1511884651143142,6,2,2,-2,-1,-3,5,10
1511884651143142,-7,-3,10,7,3,4,7,-9
1511884651151156,1,7,3,0,-2,-5,-6,5
1511884651151156,-3,-3,0,2,-1,-1,0,-4
1511884651166144,0,17,1,-1,1,3,0,-5
1511884651166144,-2,-21,-11,-3,3,1,3,-4
1511884651167093,4,4,4,4,0,6,2,-1
1511884651167093,0,1,0,0,2,-1,-4,0
1511884651181264,0,4,3,6,-3,-4,-2,5
1511884651181264,-6,-2,-10,-16,-9,-2,4,4
1511884651188155,-3,-4,-3,-6,-2,0,8,-3
1511884651188155,4,3,-5,0,-5,-12,-12,2
1511884651203314,-1,-8,-7,-5,7,8,9,-3
1511884651203314,-1,7,4,3,-4,-5,-6,-6
1511884651211386,-2,-8,-3,2,-3,-4,-3,3
1511884651211386,-4,3,0,-3,-5,1,-1,1
1511884651226633,4,-11,-7,-6,-3,-6,-6,-1
1511884651226633,4,8,6,7,7,-1,-1,4
1511884651227425,-5,0,0,-9,-6,-3,0,0
1511884651227425,0,-6,4,15,9,1,-2,1
1511884651240477,-1,-8,-19,-26,-7,-1,-3,-1
1511884651240477,6,3,4,11,6,4,4,1
1511884651248586,-3,0,-6,-7,-1,-5,1,-4
1511884651248586,1,5,5,0,-5,2,9,12
1511884651263830,1,9,20,9,-9,-6,-7,2
1511884651263830,-8,-2,-1,2,10,2,-5,-5
1511884651271036,2,5,-4,-2,-3,-3,-5,-3
1511884651271036,-4,-12,-6,-4,1,0,-5,-8
1511884651286121,2,0,-8,0,-1,-2,9,5
1511884651286121,1,2,1,-8,-10,3,2,0
1511884651287123,1,6,0,-2,-2,-2,0,0
1511884651287123,-1,-6,-11,-6,7,2,1,0
1511884651301205,-2,0,9,4,-1,-6,-6,-1
1511884651301205,1,2,2,4,3,-1,-1,0
1511884651308228,-4,-16,-4,2,3,-3,2,-2
1511884651308228,5,7,4,4,1,5,2,0
1511884651323310,-4,-10,-8,-13,-6,-2,5,0
1511884651323310,1,6,9,7,4,7,0,9
1511884651331322,-1,-2,-3,5,1,0,-6,-1
1511884651331322,-2,1,-3,-2,6,-4,0,5
1511884651348338,-1,0,-3,-17,-14,0,-3,-7
1511884651348338,0,1,-3,-4,-19,-6,2,7
1511884651348338,2,1,7,17,18,6,1,-2
1511884651348338,6,1,10,3,-3,1,0,7
1511884651360569,-1,-2,-8,4,2,-1,-4,-11
1511884651360569,-3,-2,-13,-24,-8,-4,1,-2
1511884651368785,-3,-2,1,3,-1,2,-2,-4
1511884651368785,2,7,5,3,-7,-4,1,6
1511884651383897,-1,-2,5,10,9,4,-1,1
1511884651383897,0,-3,1,-1,-3,-7,0,-5
1511884651390963,4,4,0,1,8,10,3,6
1511884651390963,-3,-3,-6,-10,-8,-9,-1,0
1511884651406961,3,2,7,14,3,5,1,6
1511884651406961,0,2,0,2,11,-4,-10,-7
1511884651406961,-4,-3,-3,-15,-9,-10,1,0
1511884651406961,2,-4,0,4,5,8,18,-3
1511884651421115,-1,0,0,-1,-3,3,6,-8
1511884651421115,-2,-2,-4,-1,-4,1,-2,3
1511884651428055,-9,-9,-6,-5,-1,-2,-12,4
1511884651428055,-1,8,3,-3,-4,-4,-12,0
1511884651443095,-5,5,2,1,2,-6,-5,1
1511884651443095,-1,-13,-3,1,5,5,-6,-7
1511884651451277,1,1,-2,1,-3,1,5,-8
1511884651451277,-3,0,-5,-6,-6,0,-6,1
1511884651466152,4,-5,-3,-3,2,-11,-19,14
1511884651466152,-3,5,-1,-2,-10,-8,4,-11
1511884651467117,2,0,0,-9,-1,3,-3,-1
1511884651467117,-1,-2,-6,-13,-7,7,8,3
1511884651481198,-3,-8,2,4,5,-2,-5,5
1511884651481198,3,-2,3,0,-9,-3,-1,-2
1511884651488292,0,0,0,4,-1,-8,0,1
1511884651488292,-4,-2,-1,-1,3,3,-6,-4
1511884651503363,-3,0,-2,-2,1,5,5,-1
1511884651503363,-3,2,0,2,0,0,0,1
1511884651511365,-1,1,-1,-1,0,3,-1,-3
1511884651511365,-1,-3,-2,1,0,-7,-8,-1
1511884651526412,2,-7,2,4,2,1,5,-6
1511884651526412,-5,4,-4,-1,2,1,-7,-3
1511884651527373,2,3,3,0,-2,-3,-1,3
1511884651527373,-1,-4,1,5,5,1,0,-4
1511884651540410,-2,-1,-3,-1,-3,-1,-1,-7
1511884651540410,1,2,1,0,1,0,0,2
1511884651548476,-3,-6,-3,-9,-8,-6,4,3
1511884651548476,2,2,-2,-5,-2,2,7,-1
1511884651563521,0,-1,-2,7,1,5,7,5
1511884651563521,-3,-1,-2,-14,-8,-7,4,5
1511884651570536,0,-3,0,4,4,9,1,2
1511884651570536,-5,-3,-3,-2,-6,-1,-2,-2
1511884651586558,2,4,1,1,-2,-3,-1,3
1511884651586558,-3,-1,0,4,2,4,2,-9
1511884651587533,2,-1,-1,1,-5,-1,-2,-4
1511884651587533,1,0,-1,2,2,-1,1,1
1511884651600693,-2,0,-2,-4,0,0,1,2
1511884651600693,0,-1,6,2,-1,-1,-2,-7
1511884651608799,0,4,0,-3,-3,-3,-2,0
1511884651608799,0,-5,0,3,0,1,0,-1
1511884651622964,1,4,-2,-4,-1,-2,-1,-7
1511884651622964,2,-3,1,3,3,3,-4,0
1511884651631115,-2,2,1,0,-4,-3,-3,-1
1511884651631115,-2,0,2,3,3,-4,1,2
1511884651646064,-2,-3,-1,0,-1,-1,0,-1
1511884651646064,2,0,-4,-2,0,-1,-1,2
1511884651654085,0,-4,-2,-1,0,0,2,0
1511884651654085,-1,2,0,2,-1,-1,-11,-7
1511884651669126,-3,-2,0,-1,-1,0,-5,-3
1511884651669126,-2,-1,-5,1,-2,-3,-2,0
1511884651670091,3,1,0,-1,0,6,6,7
1511884651670091,0,1,-1,-3,-2,-5,1,-2
1511884651683247,-1,-2,-4,-7,-10,-6,2,-3
1511884651683247,3,3,4,11,15,11,8,6
1511884651691328,0,-2,-1,0,-3,-6,-1,1
1511884651691328,2,1,1,4,6,3,0,0
1511884651706347,-1,-3,2,1,-3,-2,0,0
1511884651706347,-2,0,-1,-5,-3,-4,-4,-4
1511884651714377,0,-1,-4,1,0,1,-3,-3
1511884651714377,0,3,0,-2,-1,1,-3,3
1511884651721387,-1,9,-5,-14,-14,1,-5,0
1511884651721387,-3,0,-7,-2,7,-2,-4,0
1511884651728397,-2,-3,1,4,11,4,-5,1
1511884651728397,-2,-11,-3,-1,-7,-6,-4,-1
1511884651743448,-2,-5,5,3,2,3,-1,-6
1511884651743448,4,-6,-1,-8,-3,2,8,3
1511884651750430,-1,3,3,8,-4,-4,3,-3
1511884651750430,-1,3,1,4,6,1,4,-5
1511884651765595,1,2,-3,-6,-4,1,8,1
1511884651765595,0,0,1,9,4,1,1,1
1511884651774513,1,-3,0,1,0,-1,-1,1
1511884651774513,3,3,4,11,5,-3,1,6
1511884651780817,0,2,0,-4,-3,1,5,3
1511884651780817,-2,-5,-13,-19,-11,-3,-3,-1
1511884651788703,-3,-1,-9,-15,-2,-1,0,-1
1511884651788703,0,-1,5,2,-4,0,-1,-5
1511884651803742,1,-10,8,19,16,6,1,3
1511884651803742,-1,-6,13,16,1,0,-1,2
1511884651810764,-2,-5,-5,-11,-7,-1,-12,-7
1511884651810764,-2,-4,-9,-15,-10,-2,0,5
1511884651826007,-2,2,-8,-9,2,-4,-7,-3
1511884651826007,0,2,3,4,0,-5,-26,2
1511884651834065,1,2,6,5,-1,0,-8,-4
1511884651834065,-1,0,-2,4,7,0,-5,-7
1511884651849106,1,0,5,6,2,-1,-8,-2
1511884651849106,-1,4,-2,-2,-3,-2,5,-3
1511884651850108,0,0,-2,-2,-5,-3,9,11
1511884651850108,0,-2,-1,-7,-13,-5,2,4
1511884651863183,-2,-1,-5,1,11,-2,9,1
1511884651863183,-1,0,-4,-5,-6,-1,3,7
1511884651871283,0,-2,1,-4,-3,-2,5,-3
1511884651871283,0,1,1,-1,-2,1,2,2
1511884651886241,1,-3,2,4,5,1,-4,3
1511884651886241,0,1,0,-4,-1,2,5,-4
1511884651894274,0,2,-4,0,-1,1,-2,-14
1511884651894274,1,-2,2,2,3,0,-4,-7
1511884651909261,1,-1,-3,-2,-1,-3,0,-2
1511884651909261,-3,-2,0,0,0,0,-1,-3
1511884651909261,-2,-2,-2,-4,-2,-3,-4,3
1511884651909261,-1,-1,-2,-4,2,2,-5,-3
1511884651923298,1,-1,1,1,-2,-1,-4,-1
1511884651923298,-1,-1,3,5,4,0,4,-3
1511884651931363,-1,1,0,1,0,0,0,1
1511884651931363,-2,-3,0,-1,1,0,4,2
1511884651945563,-1,-4,-1,-1,-5,-4,-1,-1
1511884651945563,-1,2,1,5,-1,1,2,-2
1511884651954508,-2,-2,-6,-7,-9,-1,2,-6
1511884651954508,-1,0,-4,-6,4,-1,-4,0
1511884651969502,-1,-1,-2,-3,-7,-2,-3,0
1511884651969502,4,0,0,-4,-2,-1,-1,-2
1511884651969502,-1,-1,5,11,1,-2,-2,2
1511884651969502,-2,1,0,-3,-2,1,1,-6
1511884651983485,-4,0,-2,-1,2,2,0,-4
1511884651983485,-3,-5,-7,-4,-3,1,1,3
1511884651990477,-1,0,-2,-5,-1,-3,0,1
1511884651990477,-2,-3,-1,2,-2,-2,-4,-4
1511884652005651,-2,-2,1,1,0,0,1,-1
1511884652005651,2,2,1,-1,1,-1,-2,-1
1511884652013881,1,-4,0,2,4,0,0,2
1511884652013881,-1,1,-2,-2,-2,-2,-2,-2
1511884652028856,0,2,0,1,1,1,3,1
1511884652028856,-2,-3,-2,0,-2,-2,0,-3
1511884652029740,-2,0,-1,-2,1,-3,1,0
1511884652029740,-1,-1,-2,-2,1,0,0,1
1511884652043781,1,-1,-1,-2,-4,0,-2,0
1511884652043781,-1,-1,-1,1,0,0,2,-1
1511884652050985,-1,1,3,5,2,-1,-3,-2
1511884652050985,2,-2,-4,-3,0,1,2,3
1511884652065971,-2,-3,-5,-4,-3,-2,0,-1
1511884652065971,-2,1,1,-2,-3,-2,-2,-1
1511884652073992,3,2,-1,2,10,2,0,0
1511884652073992,-2,1,0,-3,-4,-2,1,2
1511884652089236,-1,-1,-5,-5,-3,-3,-1,-1
1511884652089236,0,-1,3,0,-3,-2,1,2
1511884652090199,-2,-2,2,0,-3,0,-2,-6
1511884652090199,-1,-2,-4,1,3,0,-3,-1
1511884652103069,-2,1,2,1,2,-1,-2,3
1511884652103069,-1,3,-3,-5,-6,0,-1,-5
1511884652111092,3,1,2,2,5,-1,-2,-1
1511884652111092,0,-2,0,0,-3,1,0,0
1511884652126129,0,0,4,4,0,1,0,0
1511884652126129,1,-2,-1,-1,3,0,0,1
1511884652134152,-3,1,-7,-6,-3,2,-1,-1
1511884652134152,0,0,-2,-7,-7,-1,-1,-3
1511884652149322,0,-2,-9,-5,-2,0,-3,-2
1511884652149322,-1,-1,0,-1,0,-1,-2,-3
1511884652150194,3,-1,4,7,4,1,-2,0
1511884652150194,0,0,4,9,1,-1,-2,2
1511884652163273,0,2,2,-1,2,4,1,-1
1511884652163273,1,-5,-2,1,5,-3,-2,0
1511884652171284,-4,-4,-4,-6,-7,-2,-1,0
1511884652171284,-2,-1,-5,-7,1,0,0,-4
1511884652186430,1,-4,2,-1,0,-2,-1,-1
1511884652186430,-2,-1,0,6,2,1,-1,-2
1511884652194496,0,-2,-3,-6,-4,-4,2,0
1511884652194496,-3,-1,1,-2,0,0,1,-4
1511884652208491,-1,1,0,3,-1,-1,-2,-11
1511884652208491,-1,0,-3,-7,-1,-1,-2,2
1511884652209491,-1,-2,6,3,-1,3,0,-1
1511884652209491,0,1,1,4,-3,-3,-4,-1
1511884652223670,-1,-3,-4,-2,-4,-3,-1,-2
1511884652223670,-2,1,-5,-9,-6,2,-2,-5
1511884652230689,-3,-1,-1,-2,0,0,0,1
1511884652230689,-1,0,-5,-1,-1,-2,2,3
1511884652245728,-1,1,5,7,5,-1,1,1
1511884652245728,1,1,3,5,3,-3,0,2
1511884652253918,-1,1,-1,-3,-3,0,0,1
1511884652253918,0,-3,0,0,-1,0,-2,0
1511884652268936,-2,-1,-3,-5,-1,-1,-3,-2
1511884652268936,1,1,-1,-4,-4,2,1,0
1511884652269790,0,1,2,3,5,-2,1,1
1511884652269790,-2,-1,4,3,2,2,-1,0
1511884652284830,0,2,-2,0,-2,0,-1,3
1511884652284830,0,-2,-1,-3,-1,-1,-2,-1
1511884652290848,-2,4,5,5,1,2,2,-7
1511884652290848,-1,-4,-6,0,-2,0,1,3
1511884652306044,-3,-5,-10,-10,-6,-4,-2,1
1511884652306044,-1,4,1,4,4,1,1,-1
1511884652314157,0,-5,-9,-2,-3,0,-2,0
1511884652314157,0,1,3,-1,2,1,1,3
1511884652329124,1,1,11,11,5,1,-2,1
1511884652329124,-2,-2,-8,-7,-4,-3,-1,-1
1511884652330094,0,-2,-3,-10,-4,-1,-4,0
1511884652330094,1,-2,0,-1,-3,-1,-1,-1
1511884652343126,0,-1,1,2,0,2,-1,1
1511884652343126,-3,0,4,4,-1,1,3,-3
1511884652351171,2,-2,-2,0,0,0,0,1
1511884652351171,-1,-3,-2,-3,1,-1,-1,-4
1511884652366184,0,1,2,1,0,0,-3,-3
1511884652366184,-3,-4,-2,0,-2,2,-1,0
1511884652374209,-1,-1,-6,-2,0,-3,1,0
1511884652374209,-3,0,-1,-5,-2,-2,0,1
1511884652389383,0,-2,-5,-8,-5,1,-1,0
1511884652389383,-2,-4,0,0,3,-2,-2,0
1511884652389383,1,-1,5,7,-1,1,2,0
1511884652389383,0,1,1,0,2,-1,0,-6
1511884652403672,-1,2,1,1,1,-1,0,-2
1511884652403672,-3,-7,-8,-7,-5,2,-2,0
1511884652410514,0,2,-2,0,4,-2,-3,1
1511884652410514,0,0,0,-2,-3,-3,-1,1
1511884652425921,0,0,-3,-4,-4,-1,3,5
1511884652425921,-1,2,5,9,5,-1,0,-7
1511884652434128,-3,-5,3,9,-3,-2,1,4
1511884652434128,-3,-2,-5,-5,1,-2,-3,-1
1511884652448984,-1,-1,-5,-8,-3,1,3,-1
1511884652448984,0,0,-6,-6,-3,-3,0,1
1511884652449987,-1,1,3,0,1,-1,-1,4
1511884652449987,0,3,4,2,0,-1,3,-4
1511884652463144,1,-2,-2,-3,0,0,1,1
1511884652463144,1,1,0,0,0,-2,0,-2
1511884652471156,1,2,1,-2,1,0,2,-5
1511884652471156,0,-4,-2,-2,-1,1,0,2
1511884652486213,-4,0,1,1,0,1,-1,-2
1511884652486213,0,-4,1,2,1,-1,2,3
1511884652494292,-1,-2,-2,0,-1,-1,-1,-2
1511884652494292,-2,-1,0,7,-2,0,1,-1
1511884652509331,-1,-3,-7,-10,-2,0,-3,-2
1511884652509331,0,0,-3,-7,-1,-1,-1,4
1511884652509331,-1,2,4,-2,-4,-1,-4,-4
1511884652509331,3,0,4,8,6,0,-2,0
1511884652523527,-1,-3,1,-2,-2,-2,0,0
1511884652523527,-1,1,-4,5,0,1,1,-3
1511884652530492,-2,-1,-5,-5,-5,-4,-2,-1
1511884652530492,0,-1,0,0,1,-2,-4,0
1511884652545528,-2,0,0,1,-3,-6,-3,1
1511884652545528,0,0,-2,-3,2,2,2,-1
1511884652553595,1,-2,1,2,3,2,0,-1
1511884652553595,1,4,5,3,-3,-1,2,-5
1511884652568676,-3,-4,-5,-5,-5,-3,-2,-6
1511884652568676,1,2,-2,-9,-3,-2,-3,0
1511884652569641,-3,-3,-3,-1,1,1,0,-1
1511884652569641,-1,-1,2,-3,-3,-2,-4,-1
1511884652583674,1,0,-3,1,0,-1,-2,1
1511884652583674,0,0,0,-1,-2,-1,1,-1
1511884652590692,-1,-2,-3,-1,-2,0,-1,-1
1511884652590692,-1,0,-2,-1,1,1,0,3
1511884652605780,-1,4,5,7,1,0,1,1
1511884652605780,-2,-3,-3,3,0,-3,-2,-1
1511884652613880,-2,-5,-4,-9,-3,0,-1,0
1511884652613880,0,0,-2,0,0,-3,-1,2
1511884652628819,2,1,3,2,2,1,-1,-5
1511884652628819,-2,2,0,-1,1,0,-3,1
1511884652636999,-1,3,7,2,1,0,0,0
1511884652636999,-4,-6,-3,0,-4,-2,0,-4
1511884652642976,-2,2,-4,-6,2,3,0,3
1511884652642976,-1,-4,2,1,-1,-2,-2,0
1511884652650951,-3,-2,-5,-3,-1,-3,-3,-6
1511884652650951,0,-6,-13,-9,-5,1,-2,3
1511884652665988,0,-3,6,10,5,3,1,0
1511884652665988,0,1,2,-3,-4,-2,-1,-4
1511884652674166,-2,-2,-5,-4,-1,0,-2,2
1511884652674166,0,2,3,0,-2,-1,-3,-7
1511884652688186,-3,-1,-6,-7,-4,-1,1,-1
1511884652688186,-2,-3,-1,-1,1,2,-1,1
1511884652696207,1,1,4,2,1,-2,0,-4
1511884652696207,-2,-1,0,0,4,0,-3,0
1511884652703338,1,-3,2,2,1,-3,-3,-1
1511884652703338,3,2,2,2,-1,0,1,1
1511884652710244,2,0,1,-1,-5,-2,1,3
1511884652710244,-1,-2,-5,-2,0,0,1,0
1511884652726291,-2,-4,-6,-7,-4,-3,-1,-3
1511884652726291,-3,-1,2,-1,0,1,-1,-4
1511884652734489,0,0,-1,5,1,-1,0,3
1511884652734489,1,2,-6,-7,2,2,3,1
1511884652748733,3,-2,4,2,-3,-1,0,2
1511884652748733,-3,-2,-1,-3,-2,-3,-1,-5
1511884652756556,0,-2,-2,-7,-1,1,-2,-3
1511884652756556,-1,0,5,2,0,1,1,3
1511884652771589,-2,3,1,2,3,0,2,-1
1511884652771589,0,-1,-1,-2,-4,-2,1,0
1511884652772592,-1,4,1,3,3,2,1,0
1511884652772592,0,-2,-3,-3,-3,-1,1,1
1511884652785628,2,3,8,4,-1,-1,-1,-2
1511884652785628,1,0,-3,2,3,0,2,0
1511884652801854,-2,-3,-5,-3,-1,-4,2,0
1511884652801854,0,0,2,-3,-3,1,2,-4
1511884652808692,1,3,2,5,-1,0,3,-2
1511884652808692,-1,-1,1,-1,3,-1,1,-3
1511884652816996,-2,-1,-8,-6,-3,-3,-1,-1
1511884652816996,0,1,2,-4,-3,0,-1,4
1511884652831982,-1,-1,-3,-3,-2,-1,-2,-7
1511884652831982,-1,0,3,4,2,0,-2,1
1511884652832879,1,1,7,9,2,2,3,-8
1511884652832879,-1,-4,-1,-1,-1,-2,0,1
1511884652846005,-3,-1,-5,-3,-1,-3,-2,1
1511884652846005,-2,0,-4,-6,-3,-1,-5,0
1511884652854015,-2,-1,0,0,-2,1,-1,-7
1511884652854015,1,-1,1,-2,-2,-2,-2,-2
1511884652867975,-5,-1,-11,-5,-2,1,-1,-2
1511884652867975,2,2,4,3,1,-1,-3,-6
1511884652875996,0,-1,2,-1,1,0,-3,3
1511884652875996,-1,-2,0,0,0,-3,0,-4
1511884652891033,2,1,-2,-8,2,1,-2,1
1511884652891033,-1,-1,0,-2,-3,2,2,2
1511884652892036,0,-2,-3,1,0,-1,-1,3
1511884652892036,0,2,3,3,1,2,-1,1
1511884652906076,0,-6,5,5,0,-2,-1,-3
1511884652906076,-2,-5,-14,-10,-6,-3,1,4
1511884652914094,-2,-2,-3,-7,-2,0,1,-1
1511884652914094,-1,0,-3,-2,-3,-2,-2,-3
1511884652928132,-1,-2,-2,1,-2,0,1,-3
1511884652928132,1,2,4,9,1,0,0,-3
1511884652936334,4,1,-1,3,2,1,-1,3
1511884652936334,0,2,1,0,0,0,-1,-2
1511884652951389,-4,-2,-5,-7,-1,-1,1,-3
1511884652951389,-1,-1,2,0,-1,1,-2,-1
1511884652952196,1,2,5,2,1,0,-1,7
1511884652952196,0,-2,-3,5,2,-1,0,-2
1511884652965235,3,4,0,-1,-3,2,0,3
1511884652965235,-2,-3,-7,-7,-3,-2,1,-1
1511884652974257,1,1,11,4,6,4,5,-7
1511884652974257,-2,-2,-5,-1,-1,-2,2,3
1511884652988293,0,0,12,9,4,7,16,-1
1511884652988293,-3,2,-7,-5,5,4,1,-16
1511884652996599,0,3,-4,-11,-7,-2,-10,-3
1511884652996599,3,3,0,4,3,-1,-3,3
1511884653011469,2,2,6,9,8,1,3,2
1511884653011469,2,0,6,-1,-5,0,6,2
1511884653012473,1,-3,-14,-7,-6,-1,6,5
1511884653012473,-4,2,2,-3,-2,2,-4,-8
1511884653025736,-3,-6,-1,1,3,-3,-7,-3
1511884653025736,1,0,4,8,3,-1,2,4
1511884653033755,-1,2,2,1,-7,-4,-5,1
1511884653033755,-2,-4,-4,-10,-6,-4,2,-2
1511884653047987,0,1,-4,-7,-4,-2,-6,6
1511884653047987,0,-1,-3,-1,-3,-1,-4,2
1511884653056819,-4,0,3,6,2,-1,2,-3
1511884653056819,-3,0,-3,0,-2,-4,-4,0
1511884653071856,-3,1,-5,-9,-2,-4,0,0
1511884653071856,0,2,-8,-9,-2,2,5,1
1511884653071856,2,-1,5,7,0,0,-4,0
1511884653071856,-3,-2,3,8,8,6,4,-10
1511884653085896,2,-1,-1,-8,-6,-3,-7,1
1511884653085896,3,1,0,-2,-1,-2,-3,3
1511884653093919,-3,-2,-1,-2,1,2,2,-2
1511884653093919,-3,2,8,2,-3,-5,-4,1
1511884653107952,-5,-6,-12,3,12,6,7,-3
1511884653107952,-1,3,1,-10,-13,-2,-7,-1
1511884653116014,-1,-1,8,8,8,2,4,1
1511884653116014,1,-3,-6,-5,-4,-4,-3,-4
1511884653131045,-1,-1,1,2,-4,-3,1,-3
1511884653131045,-3,-2,3,-1,7,0,-2,-2
1511884653132033,0,-5,-16,-10,-7,-1,-2,1
1511884653132033,-1,-3,-1,-11,-3,1,-4,0
1511884653146078,-1,-4,-5,-2,-5,-6,-10,-1
1511884653146078,4,-1,5,8,2,-3,2,-3
1511884653153121,-2,4,7,10,5,6,-2,-2
1511884653153121,-3,-5,-2,-1,2,0,2,-1
1511884653168116,-1,-1,2,0,-2,2,3,2
1511884653168116,-3,-1,-7,1,-2,-5,-5,-5
1511884653176133,-2,0,-10,-7,-2,0,-3,-2
1511884653176133,6,2,-1,3,-1,-3,6,3
1511884653191177,-1,2,-1,-3,-4,-6,-11,-7
1511884653191177,-3,-4,-11,-5,-2,-1,1,-1
1511884653192175,-5,-2,-7,-4,-1,0,3,-2
1511884653192175,-2,2,-3,-3,-3,0,-3,-3
1511884653206217,3,7,10,-1,-6,0,2,4
1511884653206217,2,3,5,9,9,-1,-1,1
1511884653213235,0,-3,-7,-10,-3,-9,-7,1
1511884653213235,-2,-8,-6,-3,0,4,8,1
1511884653228275,-1,-2,-1,6,1,-1,-2,-2
1511884653228275,0,-2,4,-1,-6,3,-1,0
1511884653236617,3,5,11,5,0,-3,-2,-1
1511884653236617,-3,5,11,4,0,0,-4,-1
1511884653251655,-3,-11,-11,-3,-1,1,-2,-5
1511884653251655,0,-1,-1,-2,-4,-2,1,3
1511884653252474,1,0,0,-12,-7,2,8,0
1511884653252474,-1,4,0,-3,0,-2,-1,-4
1511884653265512,12,9,21,11,4,3,-2,3
1511884653265512,-30,-28,-19,-4,3,-3,-1,-14
1511884653273533,-1,3,-13,-5,-8,-9,-12,7
1511884653273533,5,1,-3,0,0,4,-1,2
1511884653287902,-7,2,8,7,3,5,9,-5
1511884653287902,10,4,0,6,7,9,12,-4
1511884653296731,-3,-4,-2,-1,-1,6,1,-11
1511884653296731,5,2,2,-4,-5,-10,1,8
1511884653311823,0,1,7,7,15,5,-1,-4
1511884653311823,4,0,-15,-3,-3,0,-4,4
1511884653311823,-1,-3,-1,-11,-6,-7,-3,-1
1511884653311823,1,-4,-6,-3,-5,1,-7,0
1511884653325860,4,11,-2,-8,-8,-3,3,-3
1511884653325860,-3,-2,4,4,-2,-5,-3,5
1511884653332875,-3,-9,7,5,3,1,6,-3
1511884653332875,1,-2,-11,-1,4,3,3,-7
1511884653348121,-1,4,1,-11,-4,-3,-5,3
1511884653348121,3,3,5,1,-2,-5,-5,2
1511884653357004,-1,2,-2,-7,-1,-5,-5,-2
1511884653357004,-2,0,10,5,-2,2,-3,2
1511884653370979,-5,-5,0,11,6,-2,-2,7
1511884653370979,2,6,6,-8,-6,-1,-3,0
1511884653371978,1,-5,-1,14,7,6,9,-8
1511884653371978,-1,0,-17,-14,-3,-6,-4,1
1511884653386019,4,-9,-25,-22,-7,-3,-4,2
1511884653386019,0,2,10,-2,-8,-7,-6,0
1511884653393039,-1,2,9,8,2,3,-4,8
1511884653393039,-6,-10,-2,8,4,1,1,-4
1511884653410084,-2,-10,-4,4,-3,3,6,3
1511884653410084,0,-3,-5,-10,-1,-10,5,2
1511884653416104,-2,-4,7,10,4,9,8,-3
1511884653416104,0,2,6,-7,-5,-4,-4,-1
1511884653431322,2,0,-4,-1,-2,-6,2,1
1511884653431322,2,4,0,1,-2,1,-4,-1
1511884653432140,-2,4,0,-1,-1,-3,0,-3
1511884653432140,-1,-7,-2,-7,-2,-3,-3,-1
1511884653445323,1,8,6,-2,0,0,-2,0
1511884653445323,-3,-4,3,4,4,4,-3,2
1511884653453332,4,-2,-24,-5,-1,-5,-7,3
1511884653453332,0,5,3,-1,0,2,-3,3
1511884653468372,-3,-1,-5,-2,-6,-5,-3,-5
1511884653468372,4,4,5,2,0,1,4,3
1511884653476346,-3,3,-7,-6,0,-2,0,-2
1511884653476346,-3,-16,1,7,5,2,6,2
1511884653491328,-4,-2,0,-11,-8,2,3,1
1511884653491328,2,6,6,8,9,2,-4,0
1511884653492331,0,-2,-7,-5,-6,-2,0,-2
1511884653492331,4,1,-6,-1,0,0,3,-1
1511884653505365,-2,-2,-5,2,0,-7,-4,-1
1511884653505365,3,2,11,5,0,-3,-6,1
1511884653513584,-3,3,0,-11,-7,6,0,-5
1511884653513584,8,11,6,10,1,-8,-8,3
1511884653528431,-3,0,1,-7,-9,4,-5,-2
1511884653528431,1,-15,-35,-21,-10,-7,-2,0
1511884653536449,1,2,-2,-6,-8,-7,-5,3
1511884653536449,8,6,7,13,11,2,4,4
1511884653550598,-4,-4,4,0,2,-3,-4,-4
1511884653550598,0,4,13,11,6,4,5,4
1511884653558510,1,-5,-8,1,4,-7,0,4
1511884653558510,0,2,0,-4,-5,1,3,-1
1511884653565528,-4,-8,-3,3,4,2,9,-1
1511884653565528,-9,-9,-11,-9,-1,6,-7,-3
1511884653573749,-3,-5,10,-3,-15,-13,-4,-2
1511884653573749,-4,4,17,11,10,5,6,4
1511884653587954,-1,-10,-22,-5,0,-1,2,3
1511884653587954,-2,1,5,0,0,2,4,-4
1511884653596973,-3,-4,-17,-8,2,2,-1,-4
1511884653596973,-6,1,4,-8,-9,-5,-9,-3
1511884653633908,6,10,16,8,-2,-2,1,11
1511884653633908,-5,-22,-22,-6,0,4,6,-2
1511884653642066,5,10,30,23,13,12,8,2
1511884653642066,-9,0,17,11,1,-1,-1,-3
1511884653657241,-4,-9,-24,-18,-3,2,-7,-2
1511884653657241,0,-3,-4,-3,-16,-8,-4,1
1511884653658244,1,1,7,6,19,7,5,3
1511884653658244,2,-2,-12,-6,-3,-3,-7,-2
1511884653671521,2,8,23,10,-11,-11,-3,1
1511884653671521,-3,8,29,16,27,15,9,7
1511884653672419,-1,-10,-19,-18,-14,-8,-7,-7
1511884653672419,6,1,-5,0,4,1,6,-6
1511884653685456,5,8,20,8,2,7,0,1
1511884653685456,3,15,4,-1,-6,-7,5,2
1511884653694692,3,0,6,6,4,3,4,9
1511884653694692,3,-3,-6,-8,-1,0,-1,2
1511884653709766,-1,-15,8,16,12,5,10,2
1511884653709766,-2,1,-10,-9,-3,5,-5,-5
1511884653711768,-2,-7,3,4,-2,-6,9,7
1511884653711768,-2,-7,-15,-6,-5,-3,0,0
1511884653724941,2,1,3,-1,4,4,-5,1
1511884653724941,1,2,2,1,7,-3,-8,6
1511884653725945,-2,0,-5,-12,-1,6,-5,6
1511884653725945,2,-8,1,-1,-15,-14,3,5
1511884653738978,0,-3,-10,-2,2,-1,-12,0
1511884653738978,5,-6,-23,-15,-2,3,-1,-9
1511884653745997,0,5,10,4,8,4,2,4
1511884653745997,0,-4,-3,-2,4,-5,0,6
1511884653762203,1,-3,-15,-9,-1,4,2,0
1511884653762203,2,1,10,8,4,-3,1,5
1511884653764169,1,-1,1,0,-3,-4,1,8
1511884653764169,2,-2,-5,-6,-1,-5,-18,10
1511884653776195,3,2,4,-1,4,-1,-11,1
1511884653776195,4,7,12,2,-5,-2,-6,2
1511884653785221,-2,-1,-1,-3,-4,-2,-4,5
1511884653785221,-3,0,3,2,10,11,6,-2
1511884653799462,12,-1,-8,-9,-7,-11,24,33
1511884653799462,-1,3,15,8,3,0,-1,-13
1511884653801263,-9,-7,-10,-6,-5,0,-2,-4
1511884653801263,3,5,0,2,3,-6,-19,-6
1511884653822318,3,-1,1,3,8,27,13,-4
1511884653822318,9,-5,1,-4,-8,-9,1,9
1511884653823326,5,-7,-5,-1,1,-7,-6,-1
1511884653823326,-4,4,2,1,4,14,8,-8
1511884653836382,-2,3,-1,-3,1,-2,-3,4
1511884653836382,-3,-8,-1,-1,0,-1,1,3
1511884653844459,5,-3,0,0,-3,3,-1,12
1511884653844459,-5,-6,-5,-6,0,-2,12,-6
1511884653850397,-4,-4,-9,-8,-2,-9,-7,-3
1511884653850397,2,0,-2,0,-3,-5,1,15
1511884653859453,-5,-2,3,3,-4,-10,-12,-11
1511884653859453,6,8,7,4,1,9,15,6
1511884653874457,-16,-16,-9,-4,-1,-6,-8,-6
1511884653874457,-12,2,3,3,2,1,7,-11
1511884653874457,0,9,0,1,0,5,-1,-11
1511884653874457,6,5,7,-2,-4,-5,1,11
1511884653888494,13,1,-5,-4,0,-3,-14,8
1511884653888494,-9,-5,-1,0,-2,-2,-7,-6
1511884653896829,3,1,-4,-3,0,7,1,-4
1511884653896829,-7,-3,-1,-3,-4,-4,-21,-9
1511884653910968,8,8,6,4,2,6,11,-5
1511884653910968,-1,3,1,2,3,8,2,-1
1511884653918969,3,-1,0,-3,-3,-4,-6,2
1511884653918969,-10,-7,-4,-3,-3,2,6,-8
1511884653933908,0,-2,-1,2,-1,-6,-15,-19
1511884653933908,2,0,-6,-3,-6,-2,-5,11
1511884653934916,-4,5,6,3,3,1,9,-2
1511884653934916,-4,-5,-9,-3,1,6,4,17
1511884653948063,-1,8,5,3,-2,-7,-12,-22
1511884653948063,14,-4,2,-3,-2,10,11,12
1511884653956083,-6,-4,-5,-8,-3,-8,-6,9
1511884653956083,14,2,-6,-2,-3,-1,7,11
1511884653971116,-21,-3,-3,-2,-5,-1,2,-6
1511884653971116,-5,-3,-1,-1,2,-4,-2,-14
1511884653979062,12,7,4,1,3,2,12,9
1511884653979062,-7,-8,7,11,4,3,-10,-1
1511884653994101,16,4,-6,-9,-5,-6,15,9
1511884653994101,-8,0,0,-4,2,0,-13,-12
1511884653995070,5,0,-4,-8,-8,-15,-17,-5
1511884653995070,-2,2,1,3,6,13,6,-1
1511884654008139,4,-3,8,12,4,2,-2,-2
1511884654008139,3,9,2,-1,-5,5,6,-3
1511884654016245,0,-4,1,12,6,-5,7,-1
1511884654016245,-9,-10,-9,-12,-5,-7,-10,-7
1511884654031304,-3,-2,-9,-13,-7,-3,-16,3
1511884654031304,3,-3,-7,-3,-5,-7,-10,5
1511884654039304,-7,-2,3,4,5,3,0,-4
1511884654039304,3,5,11,9,-3,-2,0,-8
1511884654054421,0,2,4,12,11,5,19,14
1511884654054421,-2,-4,-6,-2,0,-2,11,-9
1511884654054421,0,-1,-15,-22,-7,4,5,1
1511884654054421,4,6,2,-3,-5,-9,-6,-12
1511884654068415,-3,-1,1,10,5,1,4,1
1511884654068415,-13,-7,2,-10,-7,2,-4,-14
1511884654076405,2,9,5,8,1,2,3,-4
1511884654076405,1,0,-5,1,4,-4,4,5
1511884654090556,1,4,0,-9,-9,-2,-10,-6
1511884654090556,13,15,11,21,15,2,15,14
1511884654099501,-7,-8,-3,6,-9,-8,-8,-5
1511884654099501,-2,0,-8,-5,-3,4,6,4
1511884654113503,1,2,6,-4,3,-3,-2,1
1511884654113503,-1,-5,-8,-7,-3,-1,-8,1
1511884654114502,-5,-6,-6,-20,-6,-6,-8,1
1511884654114502,0,-4,6,14,1,0,4,3
1511884654128541,-2,-7,0,-9,-7,-7,2,6
1511884654128541,2,1,-3,-2,5,1,-13,-10
1511884654143581,6,2,10,27,2,5,23,6
1511884654143581,-5,-6,-13,-26,-10,-3,-11,-5
1511884654159624,-7,2,-2,-3,-4,-7,-11,-9
1511884654159624,-1,-12,6,0,-3,2,1,10
1511884654160624,-1,-2,12,18,9,2,-3,6
1511884654160624,-3,0,-10,-13,4,3,0,-8
1511884654181867,0,-4,2,10,2,2,1,2
1511884654181867,-4,-4,-4,-5,-8,-6,2,1
1511884654182682,-3,-14,-11,-7,-10,-2,-14,-10
1511884654182682,5,5,6,1,0,-1,3,9
1511884654189700,-7,-2,2,0,10,4,-4,-4
1511884654189700,5,3,-9,1,-6,-19,-11,9
1511884654196720,-2,0,4,2,0,8,-1,2
1511884654196720,0,0,6,8,-2,-3,-9,-2
1511884654210756,-2,-5,-5,-13,-13,3,4,0
1511884654210756,-6,-2,-1,7,5,-5,-3,-13
1511884654218779,2,1,-3,-14,-3,-6,3,4
1511884654218779,3,-1,-3,9,-8,-2,11,5
1511884654233819,2,6,3,4,32,24,21,1
1511884654233819,2,0,5,8,-5,-1,6,0
1511884654234821,-5,8,-6,-7,0,0,-5,-13
1511884654234821,4,15,5,5,2,-1,-1,-5
1511884654247856,-4,-7,-3,2,-8,-7,-1,1
1511884654247856,-1,-6,-7,-7,1,2,-11,7
1511884654256903,8,-4,0,1,4,-7,-8,8
1511884654256903,-12,-4,-4,-11,-4,-4,-2,-2
1511884654285957,4,2,-1,3,-6,-6,-2,-1
1511884654285957,-5,-6,-8,-10,0,0,-8,4
1511884654292976,-2,-3,-1,0,-5,7,-1,-5
1511884654292976,1,-8,-1,2,4,3,-9,-1
1511884654317040,-4,0,-9,-9,-7,-14,-13,-1
1511884654317040,-1,0,4,-1,1,20,18,-12
1511884654319045,2,5,2,-4,7,15,5,1
1511884654319045,-4,-9,-8,-2,1,1,2,-5
1511884654339122,-2,1,2,6,-8,-8,2,0
1511884654339122,2,10,-1,2,-3,-6,0,-9
1511884654346140,-2,7,-10,-7,6,4,-9,-3
1511884654346140,-1,-8,-1,-7,-5,-5,1,2
1511884654369202,0,-5,3,5,3,2,-2,-2
1511884654369202,4,-8,6,8,1,-4,2,5
1511884654371184,1,-2,5,2,3,3,7,-1
1511884654371184,0,-1,-10,-6,-4,-2,-3,1
1511884654392266,3,26,3,0,-5,0,-3,1
1511884654392266,4,-6,0,-3,2,-2,4,2
1511884654393269,-12,-15,-2,6,2,-5,-3,-12
1511884654393269,12,-1,5,6,0,-1,1,0
1511884654414298,-9,-9,-8,-7,-12,-8,0,11
1511884654414298,-4,8,-1,-6,-6,-6,-6,-4
1511884654423322,-2,-1,-2,3,4,-8,-9,12
1511884654423322,2,-3,-4,-9,1,12,-3,8
1511884654444378,-2,-3,-1,-2,-5,2,7,-17
1511884654444378,1,1,0,3,5,6,6,3
1511884654446383,3,-3,3,1,-3,-16,-12,-1
1511884654446383,-3,2,4,8,5,-2,-2,-4
1511884654466439,0,-3,-2,1,4,1,-3,-2
1511884654466439,-1,-3,0,0,-8,3,9,7
1511884654473482,1,1,-3,-9,-8,5,7,-3
1511884654473482,0,-1,-1,-5,0,-3,0,9
1511884654488519,3,-2,5,2,0,0,1,-3
1511884654488519,-2,1,-2,2,4,-12,-6,3
1511884654497544,2,0,3,7,0,3,7,-2
1511884654497544,-3,5,0,2,-3,-7,-2,-2
1511884654504561,-1,-7,-4,1,1,-4,-2,4
1511884654504561,-1,1,0,0,1,5,-3,-3
1511884654506566,4,1,-1,-6,-3,1,3,3
1511884654506566,-3,1,-2,-2,-1,0,7,7
1511884654511556,-5,-3,5,6,4,-1,-5,-19
1511884654511556,13,5,2,2,2,-3,0,13
1511884654512559,-5,-4,0,-4,-3,2,-7,-13
1511884654512559,8,-1,-6,-3,-2,-3,1,-13
1511884654519578,4,1,-3,-4,0,3,-3,6
1511884654519578,-5,2,4,1,1,-2,-10,-8
1511884654521583,2,-3,-2,-3,3,2,0,0
1511884654521583,-4,0,2,4,-3,-5,-8,2
1511884654526596,3,-2,-3,-2,-2,-2,4,7
1511884654526596,-5,-1,2,2,5,3,1,-19
1511884654527599,-1,0,-3,1,-3,-6,6,21
1511884654527599,-4,-2,-1,-3,2,4,-4,-7
1511884654533616,3,0,-4,-9,-4,3,7,6
1511884654533616,-12,-5,-4,-3,-6,-6,-13,-10
1511884654542639,5,1,2,3,3,-5,1,-8
1511884654542639,13,0,4,-2,-8,-3,6,30
1511884654547652,-10,-1,2,14,10,-3,-5,-12
1511884654547652,2,1,-7,-16,-3,-4,-2,1
1511884654557681,-18,-3,-7,-4,5,-2,-8,-17
1511884654557681,6,7,6,-1,0,-2,-4,-6
1511884654570741,-9,-6,-1,13,3,0,2,-1
1511884654570741,22,1,-6,-12,-10,0,-8,13
1511884654579738,-12,-3,-11,-13,-5,-4,-4,-24
1511884654579738,7,-9,-8,-6,3,9,5,14
1511884654592772,-6,-1,-2,1,-1,-4,-14,-9
1511884654592772,-5,7,14,26,-2,-8,-4,-2
1511884654601824,7,7,-3,-6,4,5,11,13
1511884654601824,-7,-3,-2,5,5,-1,3,-6
1511884654607812,2,-6,-19,-37,-6,1,-9,10
1511884654607812,-3,-1,-2,3,6,4,8,2
1511884654622866,0,0,6,-2,-8,0,-16,1
1511884654622866,-4,6,20,29,8,1,1,-3
1511884654630874,4,3,17,19,4,5,7,2
1511884654630874,-2,-5,-16,-19,-17,-8,2,-1
1511884654639898,-1,-8,-11,-3,6,8,31,-4
1511884654639898,-1,0,55,-11,12,9,2,-5
1511884654661956,10,12,109,4,4,2,4,7
1511884654661956,-18,-1,54,-2,0,2,-3,-27
1511884654663962,4,2,-45,16,8,5,8,24
1511884654663962,0,-16,-128,0,-9,-3,-3,-7
1511884654675994,9,-2,-128,-2,-6,-17,-7,1
1511884654675994,0,-7,-70,-9,3,0,-5,11
1511884654691058,3,0,-16,-13,-16,-8,-14,2
1511884654691058,-6,1,9,4,4,-5,-20,2
1511884654692036,-3,-4,11,-6,-14,-12,2,-3
1511884654692036,0,-1,23,0,-1,-5,8,7
1511884654707076,-2,1,26,-4,-2,9,2,-12
1511884654707076,-2,0,22,0,-5,-7,-3,2
1511884654713116,2,-3,21,2,2,12,7,-9
1511884654713116,6,1,1,-6,5,4,6,10
1511884654722117,7,2,23,11,7,1,-2,6
1511884654722117,-5,-1,20,-7,-16,-4,9,-12
1511884654736154,-7,1,-9,-12,-4,8,3,-6
1511884654736154,5,-4,-2,3,7,6,3,3
1511884654743173,-4,1,8,4,-2,-15,-12,-3
1511884654743173,-1,3,2,-5,-4,-6,-4,-7
1511884654750219,0,-4,-5,1,-2,0,-6,4
1511884654750219,-2,1,-4,1,3,3,0,-14
1511884654760217,3,5,2,0,-4,0,6,9
1511884654760217,-6,-4,-2,0,-2,-7,2,-3
1511884654773276,-2,-2,-3,3,9,14,6,0
1511884654773276,-6,-1,4,4,-7,-13,-20,-3
1511884654782277,2,-1,-2,-1,0,-3,2,7
1511884654782277,-7,-2,-3,-9,-2,7,2,-6
1511884654797340,6,1,-8,-9,-13,-4,-1,20
1511884654797340,-3,-3,2,15,17,7,10,1
1511884654798320,-1,-3,-2,-8,-10,-5,-7,-7
1511884654798320,0,2,2,0,1,-1,-4,-4
1511884654810351,-10,-6,-1,3,-2,-3,-2,-13
1511884654810351,0,1,-5,-2,-4,5,2,9
1511884654827397,-2,-1,-2,-7,-1,-5,0,-5
1511884654827397,-4,-4,-3,4,2,-7,-14,2
1511884654833445,-6,1,3,1,4,1,3,-9
1511884654833445,14,-1,-4,-6,-7,5,3,16
1511884654842436,-7,1,9,7,0,1,-1,-5
1511884654842436,-7,-4,-5,-1,-1,-11,-3,-6
1511884654855471,6,4,-4,-11,6,10,1,4
1511884654855471,-3,-2,5,1,-6,-7,-7,-8
1511884654864495,1,-5,-1,3,1,0,1,-8
1511884654864495,3,0,-2,-1,-2,-3,-3,6
1511884654870511,2,3,5,12,13,5,-11,-1
1511884654870511,-2,-4,1,6,10,7,18,0
1511884654879535,2,-2,0,0,-3,3,2,-4
1511884654879535,-2,-2,-6,-4,0,-1,2,0
1511884654893572,-1,-3,-11,-14,-15,-10,-8,-3
1511884654893572,-3,1,-2,-3,2,-2,-4,-3
1511884654902596,3,-4,6,8,2,1,8,5
1511884654902596,2,0,-2,-4,2,2,-1,2
1511884654915631,2,-2,2,0,-3,-3,1,5
1511884654915631,-6,1,0,5,2,0,-1,-19
1511884654924655,11,1,-1,1,-3,-4,-1,2
1511884654924655,-20,-3,-7,-9,-4,3,4,-18
1511884654930671,9,2,0,-4,-2,1,10,20
1511884654930671,-1,-1,6,5,-1,1,-2,-1
1511884654939695,-5,-1,-5,-10,-8,-9,-4,-2
1511884654939695,1,2,1,0,4,-1,-8,-7
1511884654952730,-1,-3,0,4,2,5,-4,-11
1511884654952730,0,3,4,5,3,-3,4,3
1511884654961753,-3,-4,4,-1,-16,5,2,1
1511884654961753,2,-1,-6,-6,18,13,6,-3
1511884654984815,0,1,0,-3,-1,-8,2,-3
1511884654984815,-8,-5,-8,-3,-1,-2,-4,-29
1511884654985818,-3,1,4,10,4,-3,0,-2
1511884654985818,-6,-2,-7,-12,-12,-4,-5,-5
1511884654990834,-5,0,1,3,4,7,-4,-5
1511884654990834,-4,-2,-3,-2,-2,-1,-2,-2
1511884654999856,-9,-1,0,1,6,-4,-5,-5
1511884654999856,10,1,7,12,-1,5,5,19
1511884655021918,-3,-3,1,5,1,-6,-4,-4
1511884655021918,0,-1,-9,-17,-15,-6,-4,11
1511884655023923,-5,-2,-4,-5,1,2,-3,-14
1511884655023923,6,0,-2,-8,-10,1,1,8
1511884655036980,-3,-2,4,10,6,5,8,-2
1511884655036980,0,-3,-3,-8,-4,-5,-8,11
1511884655038963,0,-1,1,7,12,4,1,1
1511884655038963,-1,7,5,6,-5,-2,1,-13
1511884655051123,0,0,-2,-8,-7,-3,-1,2
1511884655051123,-6,-4,-8,-2,0,-5,-6,-10
1511884655060199,8,0,-2,-7,-2,-1,0,20
1511884655060199,5,1,8,7,7,3,1,2
1511884655073234,-3,1,1,5,-7,-8,-1,-6
1511884655073234,4,0,4,0,5,6,1,1
1511884655082260,0,-2,-10,-5,1,-1,1,-2
1511884655082260,0,-5,-4,-7,-4,-6,0,-5
1511884655097336,7,1,-1,-1,4,1,1,5
1511884655097336,-7,0,4,5,1,-3,3,0
1511884655098301,-3,-3,-4,-6,-2,2,-3,0
1511884655098301,-3,-4,0,4,-1,-1,-4,1
1511884655111333,-1,0,-3,-3,-1,-8,-5,-7
1511884655111333,3,3,-2,0,0,10,21,-4
1511884655119462,2,-1,2,5,1,-1,2,5
1511884655119462,-1,1,1,2,2,0,2,-1
1511884655142506,-3,-3,-6,-3,-5,-4,-9,5
1511884655142506,1,-2,-3,-11,-9,-6,1,7
1511884655143435,-4,1,-3,-5,-1,-2,-4,-4
1511884655143435,6,-1,4,5,7,2,-4,2
1511884655157457,-13,-1,6,7,3,4,12,-26
1511884655157457,13,2,-4,0,-3,-3,-5,26
1511884655158457,-6,-3,-4,-8,0,9,-1,-7
1511884655158457,6,6,0,0,-5,1,3,13
1511884655170599,-3,1,5,7,-2,-9,-4,-4
1511884655170599,-2,-1,3,0,2,9,0,0
1511884655179630,3,-1,-1,-4,-4,-3,6,10
1511884655179630,2,0,1,-1,3,4,1,1
1511884655193670,-9,-7,-3,-9,-2,0,-4,-9
1511884655193670,2,2,2,2,-2,-4,-2,2
1511884655202727,1,0,7,7,1,1,1,-1
1511884655202727,-4,-5,2,5,-1,-5,1,-10
1511884655216730,3,0,-6,-10,-2,0,-7,5
1511884655216730,-1,1,-5,-5,1,0,-7,-1
1511884655218735,3,-2,1,-1,-3,-5,-4,-5
1511884655218735,-2,5,0,-5,-5,1,2,-5
1511884655230769,1,-3,-1,-1,-2,1,-9,8
1511884655230769,-3,0,-1,4,4,-4,0,-4
1511884655239790,-5,-4,-6,-8,-4,-3,-3,-9
1511884655239790,-3,0,3,3,2,-2,-2,6
1511884655261852,1,0,-7,-10,-1,2,3,5
1511884655261852,-1,-4,0,3,8,0,-8,-4
1511884655263854,-5,0,1,-2,-3,-4,5,-5
1511884655263854,-3,-3,0,-2,-7,-4,-1,2
1511884655276889,5,2,0,3,9,5,4,4
1511884655276889,-3,-1,-1,1,-4,-2,5,-5
1511884655278894,3,0,1,4,1,-2,-1,0
1511884655278894,-3,-3,-4,-5,-2,-5,-3,-3
1511884655300073,3,1,3,2,0,4,7,7
1511884655300073,-2,1,-4,-7,-8,-2,1,-5
1511884655301076,1,3,5,9,6,1,-6,1
1511884655301076,1,-1,-1,2,2,4,-3,-5
1511884655313235,1,-2,-5,-1,-2,-5,-3,4
1511884655313235,-9,-5,-4,-4,-3,-2,-2,-12
1511884655322257,-2,-3,-4,-6,-3,-3,-6,-4
1511884655322257,9,-3,-1,-2,3,4,10,10
1511884655337340,-10,2,4,6,3,6,1,-14
1511884655337340,4,2,5,7,2,0,6,11
1511884655338304,0,3,-4,-4,-3,-7,-2,-2
1511884655338304,-5,-1,-4,-4,1,3,4,5
1511884655350360,1,-3,-3,-3,-6,-7,-11,1
1511884655350360,1,-2,-10,-4,2,3,11,0
1511884655359388,-5,2,4,-2,-4,2,-6,-3
1511884655359388,-7,-1,-2,1,1,-2,1,-15
1511884655373418,7,-3,-3,-3,-7,-6,7,20
1511884655373418,-1,4,9,9,6,6,-2,-4
1511884655382417,2,-6,-2,0,0,-10,-2,6
1511884655382417,-1,-1,-3,-1,-4,0,4,-1
1511884655397581,-5,-4,-5,-9,-9,-1,-1,-6
1511884655397581,0,-3,-4,-8,-4,-8,-9,-3
1511884655398464,-1,-2,-2,0,3,17,3,-2
1511884655398464,2,-1,0,-3,-3,-8,-9,3
1511884655419746,4,0,5,10,4,-2,-1,4
1511884655419746,-5,-2,-4,-4,-5,-3,1,0
1511884655421563,2,1,-4,-7,-1,0,6,0
1511884655421563,-1,-1,1,2,2,-1,0,-2
1511884655433752,-3,3,7,6,0,0,-5,-7
1511884655433752,-2,-7,-5,-3,-2,-2,-7,1
1511884655442621,-3,-2,-4,-4,1,2,8,0
1511884655442621,0,1,0,-1,0,-1,1,-1
1511884655456656,0,0,-4,1,-1,0,5,0
1511884655456656,3,2,2,-2,-4,0,-4,2
1511884655462922,0,-2,0,0,-2,-7,-12,-5
1511884655462922,0,1,-2,-1,2,12,6,2
1511884655470934,-2,1,5,5,4,-5,-3,-6
1511884655470934,-1,-5,-3,6,-1,-2,-7,1
1511884655479854,3,5,4,-2,-1,-3,-1,5
1511884655479854,-4,-8,0,2,1,-2,-5,-6
1511884655492901,-2,-1,-2,-4,1,4,-1,1
1511884655492901,2,-1,-1,-5,-8,-3,1,0
1511884655502019,-1,1,5,2,0,-1,1,-1
1511884655502019,-1,2,-3,5,5,2,-2,2
1511884655516144,-1,-4,-2,-2,-1,1,1,-3
1511884655516144,0,-1,0,2,4,-4,-10,-1
1511884655522969,0,-2,-4,0,-1,5,6,1
1511884655522969,2,2,5,1,-2,-6,-5,-1
1511884655530991,-5,1,-1,4,2,-1,0,0
1511884655530991,0,0,-4,-12,-3,1,2,-3
1511884655539228,-3,-3,-5,-2,-4,-3,-9,-3
1511884655539228,0,-2,-3,-5,-3,-4,7,1
1511884655553383,2,-1,2,-3,-2,-3,4,4
1511884655553383,-3,-2,7,7,1,3,2,-8
1511884655562289,-2,-2,-4,5,0,3,0,1
1511884655562289,-1,-4,-4,-7,1,-1,2,-4
1511884655576368,-1,2,-4,-6,-6,-2,0,-7
1511884655576368,-1,-1,0,4,3,2,0,2
1511884655583370,-1,-1,-1,-1,6,4,-5,1
1511884655583370,-1,-2,2,9,-5,-1,-4,-2
1511884655599507,0,-4,-5,-4,5,1,-2,-5
1511884655599507,2,5,2,1,0,0,1,3
1511884655601393,0,0,-2,-5,-5,-3,0,1
1511884655601393,-1,2,6,-4,0,0,-5,-1
1511884655613427,2,-1,-3,-1,-5,-1,-2,-2
1511884655613427,-1,-1,-5,-2,5,-1,-1,1
1511884655622449,-1,-1,-1,-2,0,0,-3,-1
1511884655622449,2,4,1,3,-2,-2,0,2
1511884655636489,1,-1,0,-2,-3,-3,0,3
1511884655636489,-1,-3,2,0,-2,1,6,2
1511884655643508,-1,-7,-6,2,0,-5,-11,1
1511884655643508,-2,-3,0,-6,-1,-1,-1,-2
1511884655659550,0,0,1,2,-2,-3,-3,-4
1511884655659550,-1,1,-4,-1,0,-2,-4,0
1511884655661708,-2,-1,-1,-3,-3,3,4,-1
1511884655661708,-3,2,-4,2,1,2,2,-1
1511884655673691,-1,0,0,-4,2,2,0,3
1511884655673691,0,-1,1,5,-1,-2,1,3
1511884655681734,-2,2,3,2,1,-1,1,-6
1511884655681734,1,0,-2,-4,-4,-1,-3,-3
1511884655696778,-1,1,-4,1,7,5,5,-2
1511884655696778,2,-1,3,4,-6,-1,-2,-1
1511884655702793,-3,-5,-4,-5,0,-2,2,2
1511884655702793,-2,0,-5,-3,-4,-3,-2,-2
1511884655719836,-3,-3,-1,-12,-5,-2,-6,-1
1511884655719836,-1,-2,-4,0,0,0,2,-4
1511884655720850,3,2,2,1,1,-6,6,12
1511884655720850,-4,0,-2,-2,-3,3,-3,-2
1511884655732891,1,0,2,5,2,-3,-5,1
1511884655732891,0,1,4,4,0,-1,1,-5
1511884655741895,1,2,-3,2,0,-3,-4,-7
1511884655741895,0,-2,-5,-4,1,2,1,-1
1511884655756942,0,0,-1,-3,-3,-2,-1,1
1511884655756942,-1,2,1,-3,0,1,4,0
1511884655762950,3,1,5,2,-1,4,5,-2
1511884655762950,-1,-2,-2,2,-3,-1,-5,-3
1511884655780022,-1,-1,-2,6,0,1,3,-1
1511884655780022,-2,-5,-11,-9,1,-3,-7,-4
1511884655780999,-6,1,-1,-9,-2,3,-5,-2
1511884655780999,1,-1,3,6,1,-1,2,5
1511884655793054,0,1,3,3,1,2,4,-2
1511884655793054,0,0,0,-4,-3,-3,-1,-1
1511884655802066,-1,-2,-4,-6,-4,-5,-7,-2
1511884655802066,0,0,-1,-1,-1,-5,-1,-1
1511884655816127,-2,0,3,4,6,1,-2,-5
1511884655816127,1,1,0,-1,-3,-3,-2,1
1511884655823110,1,-1,0,6,2,-1,3,3
1511884655823110,-2,-2,2,6,2,2,3,-1
1511884655839156,-3,-3,-5,-11,-12,-9,-12,-1
1511884655839156,-1,-3,-8,-11,0,2,3,-1
1511884655841158,3,0,1,0,3,0,6,2
1511884655841158,6,2,7,8,6,4,0,4
1511884655853190,-2,-1,1,6,-2,-1,-1,-2
1511884655853190,1,-1,-2,-8,-4,3,1,2
1511884655862215,-2,-4,-1,-5,-3,-2,1,-3
1511884655862215,1,1,-5,-4,-1,-3,-6,1
1511884655876416,2,1,4,6,2,-1,0,4
1511884655876416,-1,1,8,13,2,1,-2,-2
1511884655883433,-1,0,-6,-7,1,-1,-1,2
1511884655883433,-2,-2,-3,-10,-3,-6,-7,-6
1511884655899579,1,-1,15,19,6,6,3,3
1511884655899579,-3,0,-1,0,-1,-2,0,-1
1511884655901482,-5,-4,-19,-16,-6,4,-8,-8
1511884655901482,-3,-3,-15,-24,-12,-7,3,3
1511884655913622,-2,1,-4,-12,-2,0,-2,1
1511884655913622,3,5,20,24,8,4,1,4
1511884655922561,0,1,14,19,4,-1,4,-3
1511884655922561,-3,-3,1,1,0,5,3,1
1511884655936670,-1,-4,-8,-6,4,-1,-3,-6
1511884655936670,-1,-4,-1,-6,-3,-1,-13,-4
1511884655943595,1,-1,1,-5,-7,-6,-4,3
1511884655943595,-3,-1,-8,-4,1,1,-2,-6
1511884655959761,0,2,-7,-15,-9,-3,1,3
1511884655959761,-2,-4,2,9,14,2,0,-2
1511884655961711,0,-1,3,7,1,-1,-3,-2
1511884655961711,0,0,1,-3,-1,0,2,1
1511884655973675,1,-2,-2,0,1,-2,4,2
1511884655973675,-1,-5,-12,-13,-12,-3,-2,1
1511884655982778,-3,-1,3,-1,6,3,-3,-5
1511884655982778,1,0,12,12,6,-1,-1,3
1511884655996773,-1,-2,-3,-2,-4,-3,-7,-2
1511884655996773,1,0,-2,-9,-7,0,6,2
1511884656003778,1,0,10,16,3,3,1,-1
1511884656003778,-3,-5,-13,-7,0,-6,-11,-4
1511884656019904,-3,-5,-16,-14,0,1,0,2
1511884656019904,-4,1,-2,-6,-1,-2,0,-4
1511884656020909,1,3,4,2,0,-4,-1,4
1511884656020909,-1,-3,5,3,8,11,8,-1
1511884656032831,1,2,4,1,1,-6,6,-3
1511884656032831,1,1,1,2,1,-2,-4,3
1511884656048872,2,1,4,9,1,4,7,1
1511884656048872,2,2,7,7,0,-10,-6,2
1511884656055938,-3,-10,-14,-9,1,1,-2,-1
1511884656055938,-5,-4,-8,-8,-18,-6,1,-5
1511884656065116,2,0,-3,-3,10,0,-1,-3
1511884656065116,2,-4,3,-3,-11,0,4,3
1511884656079304,-3,-2,3,3,-5,-2,-5,-1
1511884656079304,1,2,-4,4,15,-3,1,3
1511884656081140,1,-1,-6,-1,-9,-5,-6,-2
1511884656081140,-1,1,-1,-5,-8,-4,9,0
1511884656093176,1,5,7,2,7,6,4,-3
1511884656093176,-2,-4,1,3,-6,-5,-4,2
1511884656102195,-2,-1,-10,-3,-4,2,2,0
1511884656102195,2,2,1,-5,1,-4,-10,-2
1511884656116267,-1,2,-1,-7,-3,-1,1,2
1511884656116267,-3,-1,3,2,4,-5,3,1
1511884656140297,-2,-9,-8,-1,-3,3,-6,-2
1511884656140297,-5,-1,-14,-14,-4,-2,-1,-6
1511884656141303,11,10,10,0,-11,4,2,6
1511884656141303,3,10,12,9,18,7,-4,-1
1511884656142303,1,2,17,4,-8,-1,12,6
1511884656142303,-2,-5,-4,4,0,-7,-6,-3
1511884656153563,-6,-4,1,-4,7,5,-5,-3
1511884656153563,-1,-1,-3,-4,-9,-2,3,-1
1511884656162480,0,2,-3,-6,1,1,-4,-3
1511884656162480,2,4,4,11,10,12,0,1
1511884656175517,1,2,6,0,-4,-7,-10,0
1511884656175517,-1,-11,-19,-13,-18,-6,0,-5
1511884656184682,6,9,1,-8,-1,2,1,3
1511884656184682,-2,-1,-8,-4,-3,-10,-4,-3
1511884656199748,-6,-7,-7,8,13,8,-2,-3
1511884656199748,-1,-2,2,4,11,16,6,2
1511884656200813,-3,-6,-10,-3,-4,-1,-8,-3
1511884656200813,3,5,9,-5,-12,-13,-2,0
1511884656213758,3,4,9,5,3,6,4,0
1511884656213758,-4,-4,-2,2,-3,-16,-3,1
1511884656221781,-3,0,-3,-3,9,9,-4,-7
1511884656221781,-1,4,20,13,-1,1,0,1
1511884656235916,-1,-6,-15,-3,-9,-12,-1,1
1511884656235916,-1,-1,-4,-17,-7,6,0,-1
1511884656245025,1,4,2,-8,0,-2,0,2
1511884656245025,2,2,2,10,8,10,-5,3
1511884656260063,-3,1,10,17,7,-4,1,1
1511884656260063,2,-1,-8,-2,-3,-1,-4,0
1511884656261066,2,0,-5,-6,-4,-4,1,3
1511884656261066,0,-1,-8,2,5,1,4,-6
1511884656273138,-1,-3,-1,-5,-11,-2,6,0
1511884656273138,-4,3,6,7,14,17,6,-4
1511884656282121,-4,-4,7,8,-1,-7,6,4
1511884656282121,3,0,-13,-11,-6,3,0,-1
1511884656296162,4,9,18,7,1,-1,-3,4
1511884656296162,-5,-9,-14,-9,-5,-1,-4,-7
1511884656304528,3,4,3,0,-6,-4,-3,-2
1511884656304528,-2,-12,-17,4,11,4,-4,-1
1511884656319587,-1,-2,0,-5,2,4,3,4
1511884656319587,4,-3,3,6,4,-6,-4,3
1511884656321487,-8,1,-1,-8,-7,-2,-2,-5
1511884656321487,0,6,2,-5,-4,-4,2,0
1511884656333679,-2,1,-6,-4,-5,-2,-5,-5
1511884656333679,0,1,3,-2,-2,-2,-1,1
1511884656342543,0,0,-17,-2,1,-3,0,-7
1511884656342543,-1,-6,13,1,-4,-1,-1,-2
1511884656355579,-1,4,10,0,1,-1,-3,-7
1511884656355579,-5,2,-7,-7,-5,-3,0,3
1511884656364602,-3,-4,17,13,7,2,-5,-8
1511884656364602,-4,-6,-11,-14,-2,8,2,1
1511884656378744,1,-4,6,4,6,5,7,2
1511884656378744,-4,2,-1,-6,-7,-7,-12,-2
1511884656385754,-4,-15,-5,0,-3,0,15,-5
1511884656385754,-1,4,3,-1,-1,0,-3,2
1511884656393748,0,-5,-3,5,5,3,2,-4
1511884656393748,0,2,5,1,-5,-4,1,-2
1511884656402736,1,1,-6,1,0,2,-5,-3
1511884656402736,1,-2,6,2,0,4,2,4
1511884656415803,-6,-5,-13,-13,-10,-9,-1,2
1511884656415803,2,-1,3,0,2,-2,1,-8
1511884656424762,1,5,0,-2,-4,-4,-3,13
1511884656424762,0,-3,0,-1,0,-10,-10,1
1511884656438971,1,-2,-3,2,2,1,-2,-8
1511884656438971,0,-3,-5,-1,-3,-2,1,10
1511884656445919,-4,-8,-2,-3,5,7,8,1
1511884656445919,4,4,1,2,-5,1,13,-11
1511884656452929,8,0,-11,-10,-6,-1,-1,2
1511884656452929,-18,6,4,4,8,7,3,-26
1511884656461867,12,-3,-1,1,-3,-1,-8,19
1511884656461867,-10,-3,-4,-2,0,-1,4,-8
1511884656475998,8,1,0,-1,-2,-1,13,5
1511884656475998,14,5,5,3,-2,-2,2,-3
1511884656484925,7,2,2,0,8,12,23,2
1511884656484925,-21,-7,-1,4,3,-5,-11,-37
1511884656498999,1,2,-3,-3,-4,0,0,12
1511884656498999,4,1,-6,-5,-4,-2,-4,23
1511884656506022,-7,-6,-2,-5,-7,-10,-28,-7
1511884656506022,11,-2,-1,-4,-2,1,-32,12
1511884656513038,-8,-3,-4,-1,1,1,-10,-10
1511884656513038,3,1,5,6,6,7,-9,-10
1511884656522021,-10,-1,-1,1,1,-3,-1,-18
1511884656522021,15,4,-1,-1,-5,5,18,35
1511884656536059,-10,-4,0,-1,3,-5,-5,-12
1511884656536059,-2,-3,-4,-5,-5,-6,1,3
1511884656545181,2,4,1,0,0,0,6,12
1511884656545181,1,1,0,2,3,-2,7,-8
1511884656559221,-1,-2,-3,-4,0,-6,-7,2
1511884656559221,6,-2,3,2,1,2,0,-1
1511884656566259,6,-2,-2,-3,-3,-3,-3,3
1511884656566259,-10,0,0,-2,-3,-7,-1,-12
1511884656582321,0,-2,-3,-2,-2,-3,-3,18
1511884656582321,0,3,6,3,4,2,-8,-11
1511884656583283,-1,-7,-10,-7,-7,-10,-18,0
1511884656583283,-6,-1,-3,-2,-1,1,5,-5
1511884656596365,-3,0,-3,1,2,3,5,-12
1511884656596365,5,1,1,-2,-3,0,9,14
1511884656604451,2,7,8,5,3,3,3,-2
1511884656604451,-4,-2,0,-2,-1,-1,2,-3
1511884656619403,-12,0,-4,-1,-3,0,-9,-14
1511884656619403,2,-3,-2,0,2,0,2,-4
1511884656625397,2,0,2,1,-4,-8,7,14
1511884656625397,-9,-5,-5,3,5,11,8,15
1511884656642483,19,3,2,0,0,4,3,-2
1511884656642483,-1,1,2,5,2,0,-2,5
1511884656643442,-7,-1,2,3,1,-1,3,-11
1511884656643442,7,1,0,-7,-1,2,4,-5
1511884656655516,-9,-8,-4,-2,-5,-13,-17,9
1511884656655516,-8,-11,-5,-7,-3,-1,-2,-1
1511884656664498,-6,4,4,4,5,9,16,-7
1511884656664498,1,1,7,2,-1,-4,-4,6
1511884656678538,8,-3,-6,3,2,2,5,5
1511884656678538,5,1,-4,-11,-6,-2,-10,4
1511884656685553,-10,4,2,0,0,-3,-1,-20
1511884656685553,1,-7,3,-2,-6,-4,-11,2
1511884656701596,8,3,-1,0,4,7,24,-3
1511884656701596,-6,3,1,9,1,-5,-9,7
1511884656703602,-5,-18,-7,-6,-1,-1,7,0
1511884656703602,9,12,-1,-9,-7,-11,0,1
1511884656715633,-9,1,4,5,0,8,-6,-7
1511884656715633,-6,-11,-8,1,4,-3,7,0
1511884656724658,3,0,1,-2,2,4,-10,0
1511884656724658,3,-3,-5,3,-3,-6,-16,2
1511884656738722,-7,-2,0,-8,-6,-6,7,4
1511884656738722,2,3,-1,9,11,2,0,-10
1511884656769805,4,3,13,10,12,3,0,8
1511884656769805,-2,-9,11,28,14,2,-1,-4
1511884656770780,-2,-1,-21,-34,-21,-7,-9,0
1511884656770780,-4,7,-6,-24,-9,2,-2,-6
1511884656772786,10,8,6,3,4,-1,-2,7
1511884656772786,1,5,19,23,13,9,-1,-2
1511884656775793,3,3,32,65,28,1,7,1
1511884656775793,-2,-3,-10,8,-15,-8,1,-6
1511884656784818,-2,-21,-60,-73,-33,-5,-4,17
1511884656784818,26,12,-15,-55,-15,-6,-2,2
1511884656807879,-3,0,-9,-43,-12,-5,-4,-10
1511884656807879,-5,7,37,46,19,9,-5,-9
1511884656808882,2,-1,26,77,22,-1,3,11
1511884656808882,-12,-11,-27,-32,-18,-7,-4,-8
1511884656821917,-10,-7,-34,-40,-18,0,-10,-15
1511884656821917,15,8,-14,-47,-14,-2,3,18
1511884656823922,-9,3,21,14,7,5,7,-18
1511884656823922,10,2,23,37,12,-3,2,23
1511884656835954,3,6,26,36,19,9,1,10
1511884656835954,-9,-7,-4,23,-1,-7,3,-8
1511884656844978,-5,1,-21,-25,-11,19,11,-8
1511884656844978,-13,-10,-17,-30,-8,-4,5,-5
1511884656859014,-3,-1,2,2,1,-3,-2,0
1511884656859014,12,5,7,15,13,-1,0,14
1511884656866033,-9,-8,13,11,-14,-11,-9,-6
1511884656866033,-6,-3,-20,-3,-6,-4,-1,-3
1511884656882076,1,-4,-13,-11,-1,7,0,1
1511884656882076,1,-5,-3,-27,-14,-6,-1,-10
1511884656884082,0,13,-3,-9,3,0,-2,3
1511884656884082,-16,-5,-3,-10,0,0,2,-5
1511884656896114,16,5,17,28,4,-7,-4,9
1511884656896114,0,-2,-1,7,7,7,6,7
1511884656905137,5,5,4,-4,2,-1,-4,-8
1511884656905137,0,4,1,8,-3,1,7,0
1511884656919175,-15,-10,-3,0,2,-1,-11,-26
1511884656919175,-4,-6,0,1,-6,-4,-3,16
1511884656925191,21,2,-2,0,2,-6,-8,18
1511884656925191,-14,-1,-3,0,-4,-1,-4,-9
1511884656942239,2,1,3,6,5,12,18,4
1511884656942239,-6,-3,1,-1,0,3,4,-3
1511884656943242,-8,-5,-8,-9,-4,-9,-10,-4
1511884656943242,6,3,-5,6,15,14,-1,-2
1511884656956275,-4,-2,-6,-20,-18,-13,-9,6
1511884656956275,3,2,9,1,6,3,2,-6
1511884656964333,-1,7,2,20,11,2,4,-1
1511884656964333,-2,-13,-5,-13,-6,2,0,-10
1511884656979353,1,-2,3,17,5,0,0,0
1511884656979353,-5,-9,-22,-25,-8,-2,-1,-6
1511884656985354,-3,-4,4,-7,-5,-3,-3,-4
1511884656985354,2,4,10,22,8,2,0,-2
1511884657002439,1,0,2,-5,2,3,0,2
1511884657002439,-8,-4,2,0,-4,-6,-5,0
1511884657003403,-4,0,-2,2,2,2,4,-4
1511884657003403,3,5,4,0,-5,-8,-9,0
1511884657015564,3,0,-5,-12,-10,-8,3,17
1511884657015564,-2,-8,3,5,-2,-7,-14,-11
1511884657024454,6,-3,-3,-5,1,7,21,31
1511884657024454,-5,-7,-1,0,0,-3,1,-1
1511884657038495,2,0,-2,-3,-3,-7,-7,-3
1511884657038495,-8,1,-1,6,5,-2,-1,-9
1511884657045515,-5,-5,-4,-8,-4,-5,-5,-2
1511884657045515,7,4,4,0,-3,-3,0,10
1511884657062585,-2,-1,-2,7,2,-2,-4,4
1511884657062585,2,1,-3,-6,-1,4,8,0
1511884657063589,-4,-1,2,-1,1,2,-5,-15
1511884657063589,3,2,-1,1,-1,3,-1,10
1511884657075623,-5,-4,-6,-3,-1,-7,1,-5
1511884657075623,4,1,-2,-6,1,4,13,4
1511884657084645,-3,2,-3,-3,-2,-9,-11,-11
1511884657084645,-1,2,2,7,-1,-1,24,7
1511884657099695,-1,-4,-2,-1,0,1,-3,-3
1511884657099695,3,3,0,-2,-2,4,-3,0
1511884657105701,-1,-2,1,5,-4,-8,-6,-3
1511884657105701,4,-3,-3,-4,-1,-7,-19,3
1511884657121743,-9,0,-3,-4,-3,3,8,-10
1511884657121743,0,3,0,-1,-2,-1,-6,-2
1511884657123748,2,-6,-1,-2,1,2,-6,-10
1511884657123748,-11,-1,4,3,5,4,-9,-3
1511884657135781,14,6,6,4,2,1,3,7
1511884657135781,-8,-4,4,6,-3,-1,-5,-9
1511884657144815,-5,-2,-5,-3,-2,3,7,-7
1511884657144815,4,2,-6,-19,-6,-2,4,-4
1511884657158844,0,3,2,1,2,4,6,-1
1511884657158844,-4,-3,0,5,3,1,-1,-5
1511884657165988,5,4,9,8,1,-5,-5,0
1511884657165988,-3,-4,-2,5,-3,-4,0,-2
1511884657181906,-3,-5,-9,-5,-2,-2,-7,-5
1511884657181906,3,-1,-2,-6,-2,2,3,-1
1511884657183910,-5,-4,-5,-12,-13,-5,-7,-4
1511884657183910,1,-2,-4,-1,0,2,-5,-1
1511884657196056,-2,-2,0,-2,0,-7,-5,5
1511884657196056,0,4,0,1,0,-3,-15,-4
1511884657205119,1,1,0,1,4,5,6,16
1511884657205119,5,6,20,21,6,2,5,-3
1511884657219263,2,0,-2,17,2,-6,-6,1
1511884657219263,-26,0,-21,-26,-4,0,5,6
1511884657226179,-11,-6,-15,-17,-6,-2,-1,-2
1511884657226179,29,1,0,-7,-1,1,6,25
1511884657242221,-10,7,17,13,4,1,0,-14
1511884657242221,-1,-1,-8,-15,-8,-5,-2,-12
1511884657244223,13,11,31,40,12,4,3,10
1511884657244223,-17,-4,5,13,-5,-13,-23,-3
1511884657256257,-4,-8,-21,-29,1,8,-4,-4
1511884657256257,21,9,-12,-37,-11,-11,-12,6
1511884657265281,4,4,3,-6,3,5,3,-8
1511884657265281,-6,-2,29,44,3,12,28,-11
1511884657279527,-14,-4,-6,0,8,4,4,-10
1511884657279527,14,2,-2,-2,5,-2,-1,-4
1511884657285701,1,-2,0,5,-1,8,-6,-8
1511884657285701,7,0,-6,-10,4,0,-5,-2
1511884657301645,-10,0,-2,-5,-8,-1,3,-13
1511884657301645,11,-11,-15,-1,-15,1,20,32
1511884657307873,-6,2,8,7,18,2,-6,-18
1511884657307873,-12,-3,-6,11,1,9,11,-38
1511884657315887,1,-4,-11,-21,-5,-3,-11,20
1511884657315887,-1,-4,8,-5,-3,-2,13,8
1511884657324824,-5,0,1,-6,-8,4,7,4
1511884657324824,-5,2,7,8,11,-7,-10,-5
1511884657338850,8,-4,-2,-7,-11,-1,-3,-5
1511884657338850,-3,-3,10,21,-1,0,-9,2
1511884657345868,-12,-3,-11,-7,1,-8,-5,-14
1511884657345868,10,1,-5,-12,6,7,1,11
1511884657361909,-2,7,10,5,7,1,-1,-11
1511884657361909,-6,4,28,36,10,3,-3,4
1511884657367924,-2,-7,-14,3,-10,-5,-2,-6
1511884657367924,-20,-10,-42,-57,-18,-8,-10,-11
1511884657376090,21,1,-1,-5,-3,-3,5,18
1511884657376090,-12,-5,2,9,8,-1,-7,-5
1511884657384294,3,4,-1,-16,-3,-12,-4,14
1511884657384294,4,4,14,21,8,6,7,7
1511884657399509,-4,-1,4,6,-10,-6,-7,7
1511884657399509,3,-2,6,12,11,4,-6,1
1511884657405327,0,-2,-5,0,0,0,-3,-3
1511884657405327,4,0,6,5,4,4,1,-1
1511884657421507,-3,-5,-25,-19,-6,-6,-1,4
1511884657421507,0,4,1,-6,-13,6,2,-14
1511884657428529,19,-1,-4,-9,-5,-2,-6,20
1511884657428529,-15,3,5,5,11,-1,-1,-19
1511884657444572,9,0,14,27,14,-1,-7,10
1511884657444572,-1,-2,-2,-5,-2,-2,1,-12
1511884657446578,-7,-11,-17,-16,-13,-1,-10,1
1511884657446578,3,-1,-13,-26,-19,-3,0,3
1511884657458609,-2,7,8,1,6,-3,2,-3
1511884657458609,-23,-10,-7,-5,-5,-1,1,-19
1511884657465628,-6,-1,11,14,2,1,-7,0
1511884657465628,10,0,1,3,-1,-3,0,15
1511884657481862,22,-3,-3,-6,-5,1,0,21
1511884657481862,1,6,8,13,4,-1,0,5
1511884657487854,3,0,-3,-10,-6,-11,-8,-2
1511884657487854,-4,-5,-13,-13,-2,8,12,5
1511884657519951,-23,0,2,8,1,1,-2,-22
1511884657519951,3,-1,4,14,4,1,11,-5
1511884657520772,3,-4,-4,-8,-6,-7,-8,18
1511884657520772,2,3,-6,-5,-5,0,-10,-1
1511884657541832,4,-5,4,-10,-7,0,3,10
1511884657541832,-2,3,3,13,5,-1,1,-8
1511884657549850,2,3,-1,-1,4,7,10,-8
1511884657549850,0,-5,0,12,3,-3,3,6
1511884657571910,-8,1,-3,-1,-4,-3,-1,-7
1511884657571910,8,-1,-11,-14,-4,-4,-9,9
1511884657573917,0,0,2,1,3,4,7,-12
1511884657573917,10,0,5,1,-3,-12,-7,32
1511884657594166,7,-1,3,11,2,8,3,-9
1511884657594166,-11,-4,-15,-13,2,-6,-5,0
1511884657600984,8,-1,-2,-11,-5,0,-1,0
1511884657600984,3,1,10,13,0,1,-1,-13
1511884657616025,-17,-3,6,13,6,1,10,1
1511884657616025,12,-1,-9,-7,-7,-4,-4,11
1511884657624210,-12,1,-5,-14,-5,-5,-3,-14
1511884657624210,-7,-5,-8,-7,-3,-5,-1,-1
1511884657648270,2,-1,-4,-7,-4,-2,-3,3
1511884657648270,-2,-2,8,6,6,6,-1,-4
1511884657650277,-11,-2,2,16,5,-2,-3,-4
1511884657650277,3,5,1,-5,-2,-2,9,-3
1511884657668327,3,3,3,-2,-5,2,11,-11
1511884657668327,-5,-2,-7,-3,2,-5,-7,4
1511884657677348,3,1,1,9,2,3,6,-8
1511884657677348,3,0,-7,-11,-5,0,5,16
1511884657699410,-11,-1,3,6,2,-4,-13,-8
1511884657699410,3,2,2,2,1,6,15,2
1511884657701412,-1,-1,-5,-2,-2,0,4,1
1511884657701412,-3,0,9,2,0,4,0,0
1511884657721643,8,0,-2,-2,3,-1,-3,4
1511884657721643,6,6,-2,-14,-7,0,-2,1
1511884657729487,-5,-1,7,13,9,3,1,-1
1511884657729487,-9,-1,2,0,1,3,-8,-19
1511884657751655,5,-2,1,-3,-5,-1,0,2
1511884657751655,-2,-1,0,4,-3,1,0,-11
1511884657753551,-1,-1,-2,-7,-3,-1,3,-2
1511884657753551,-11,-4,-10,-6,-4,-2,-5,-17
1511884657758568,14,1,2,-5,-2,-6,1,20
1511884657758568,-1,-1,5,11,6,0,-2,12
1511884657759575,-5,0,-5,-3,-6,-3,-5,-8
1511884657759575,10,0,-5,-2,-3,-3,2,6
1511884657766585,-10,-3,-6,-14,-4,1,-6,-6
1511884657766585,1,-2,11,12,8,2,1,-7
1511884657768590,-1,-6,-9,2,-3,-4,4,4
1511884657768590,2,-1,-8,-15,-7,-6,-13,3
1511884657773608,2,-3,-4,5,4,3,1,13
1511884657773608,-2,-2,-6,-14,-6,-1,-5,-8
1511884657774607,2,4,5,11,2,3,5,0
1511884657774607,-1,3,3,5,-1,-2,-8,-2
1511884657796668,0,-3,0,-2,0,1,9,-5
1511884657796668,0,-2,-4,0,-2,-4,-3,-2
1511884657798671,3,-2,2,-1,2,5,3,2
1511884657798671,-4,-3,-4,-12,-5,-2,-6,4
1511884657818725,-2,5,5,10,6,-2,-6,-7
1511884657818725,-10,-1,-1,0,-3,-2,-7,-13
1511884657828751,11,0,-3,-13,-4,0,8,8
1511884657828751,-1,4,9,12,5,0,9,-4
1511884657849980,-5,-2,1,5,-1,-3,-7,3
1511884657849980,8,-1,-1,-4,-5,-4,4,8
1511884657850991,-13,-4,3,-5,0,-4,-15,-8
1511884657850991,-3,-2,-4,-4,-1,0,-2,-14
1511884657871031,4,-1,-2,-2,-3,-1,-3,2
1511884657871031,1,1,0,5,-1,4,3,2
1511884657881058,-9,2,3,0,1,1,-3,-10
1511884657881058,9,-1,-2,1,2,2,6,27
1511884657882092,-5,2,-2,-4,-4,-9,-7,-18
1511884657882092,-3,-9,-10,-4,1,4,-1,-1
1511884657887107,4,4,4,5,-3,-2,7,11
1511884657887107,-8,-6,-10,-9,-1,9,1,-9
1511884657888078,-3,0,-7,-17,-10,-6,0,-4
1511884657888078,0,1,5,0,1,3,6,2
1511884657889080,4,4,4,6,6,0,-1,9
1511884657889080,0,2,13,22,3,-4,-3,-3
1511884657894223,1,0,-6,5,2,0,1,8
1511884657894223,-1,2,-5,-16,-6,-4,6,-5
1511884657895101,-4,-3,-8,-10,-4,-3,-3,0
1511884657895101,1,2,4,-1,-2,1,-3,1
1511884657901115,-1,-1,2,5,4,4,4,-2
1511884657901115,0,4,8,12,2,-4,0,-6
1511884657908130,-7,1,-1,-1,0,4,-5,-14
1511884657908130,-2,1,-7,-7,2,3,12,1
1511884657924175,-7,-2,2,0,-1,-3,5,-10
1511884657924175,2,-2,3,6,1,-4,-9,-2
1511884657926178,-6,-4,-4,-8,-3,4,2,8
1511884657926178,15,-1,6,2,3,4,1,23
1511884657939212,-5,-3,-6,-1,-3,5,-1,-9
1511884657939212,0,-2,1,-5,-3,0,4,13
1511884657946231,7,5,2,8,-1,-8,-8,-5
1511884657946231,-8,-4,3,5,5,5,4,-4
1511884657961274,5,1,3,2,2,-5,-1,4
1511884657961274,2,-1,-8,-10,-7,-4,-5,3
1511884657968416,6,0,-2,-3,-3,-4,1,4
1511884657968416,-2,0,-4,-6,-6,-5,-4,-7
1511884657984459,-2,-2,3,4,4,-1,-3,-8
1511884657984459,-6,1,0,-3,-3,-1,-1,7
1511884657986464,1,-5,-1,-1,1,3,3,1
1511884657986464,0,1,0,-6,-2,-8,-8,-11
1511884657998691,2,5,22,12,0,5,0,0
1511884657998691,-6,-8,-23,-7,-1,-4,-3,-1
1511884658007524,3,0,13,4,0,0,-4,-8
1511884658007524,-6,-8,-8,5,-1,-3,-1,-1
1511884658021558,5,0,2,-1,1,3,-2,6
1511884658021558,-6,4,10,-8,-5,-4,4,4
1511884658028754,-3,0,3,4,-2,-5,-3,-10
1511884658028754,-5,-1,-1,1,-1,3,1,-10
1511884658044767,0,-3,-4,-2,-2,1,0,0
1511884658044767,6,2,2,6,4,-2,-7,4
1511884658045771,-2,-3,-5,-3,0,-3,1,3
1511884658045771,-4,0,3,-6,-6,-3,3,3
1511884658057803,5,-2,-8,-5,-4,-2,0,5
1511884658057803,-6,-6,1,3,0,-1,-8,-8
1511884658066871,3,0,-7,-4,-1,1,5,3
1511884658066871,0,3,-1,6,0,5,-1,-5
1511884658082030,-1,-4,-5,-6,-4,-3,2,2
1511884658082030,1,4,7,7,2,1,0,-5
1511884658087918,-2,-3,6,3,1,1,-1,-2
1511884658087918,-4,-4,-19,-17,-4,-4,-9,-3
1511884658104950,-1,0,-8,-17,-9,-4,1,-2
1511884658104950,4,5,12,8,2,3,0,-4
1511884658105938,-1,-4,7,9,3,0,-3,3
1511884658105938,1,0,11,10,2,1,1,-3
1511884658118097,0,-5,-24,-8,-5,-3,-1,-1
1511884658118097,-3,-6,-13,-9,-4,-4,-6,-7
1511884658127118,2,3,1,-1,-2,2,-1,1
1511884658127118,0,-1,8,4,5,-5,-8,2
1511884658141158,-3,0,2,5,0,-3,-6,-1
1511884658141158,2,-3,1,8,1,4,7,-2
1511884658148328,-3,-2,-17,-17,-4,4,-1,2
1511884658148328,3,2,-1,-3,-4,-3,-4,-2
1511884658164441,3,6,7,3,3,2,3,0
1511884658164441,0,2,1,4,0,3,1,1
1511884658166251,-2,-2,-3,4,0,-4,-1,-1
1511884658166251,-2,0,-4,-6,-4,-4,1,0
1511884658178285,-1,3,3,-1,1,2,-4,0
1511884658178285,2,3,-3,-2,-2,-1,-2,0
1511884658187307,-3,-7,-1,4,1,-2,-12,-2
1511884658187307,2,1,-3,0,-3,-3,-1,0
1511884658201554,-1,-1,-1,3,2,5,6,-1
1511884658201554,-2,-2,-4,-16,-6,-9,-14,-4
1511884658208362,2,0,-6,-7,-2,0,1,5
1511884658208362,-2,1,7,7,1,-5,-1,-3
1511884658224405,-3,-4,10,10,5,3,4,-3
1511884658224405,-1,-3,-6,-9,-1,-2,1,-6
1511884658226414,0,-1,-2,-5,-4,-4,9,0
1511884658226414,0,2,2,6,1,2,1,-3
1511884658238442,-3,-4,-3,2,-1,-1,-5,-1
1511884658238442,0,-6,-4,1,0,4,8,5
1511884658247467,-4,-5,-2,-6,-5,-4,-8,-2
1511884658247467,1,-4,-5,-7,-2,-4,-8,-1
1511884658261552,0,2,8,3,3,2,5,-2
1511884658261552,5,3,6,9,3,2,0,3
1511884658268749,0,-1,-3,-6,-2,-5,-2,-5
1511884658268749,1,1,-1,-3,2,5,7,3
1511884658284001,-2,1,-3,-7,-3,-5,-7,0
1511884658284001,2,3,14,24,7,2,6,1
1511884658290917,0,1,-5,-10,-5,0,7,2
1511884658290917,-3,-2,-13,-17,-5,-6,-9,-2
1511884658298041,-3,-2,-8,-5,-3,-5,-10,-1
1511884658298041,-1,-1,5,2,1,2,7,0
1511884658314978,1,4,9,13,6,-1,-5,-3
1511884658314978,-1,-1,2,7,1,2,2,-2
1511884658320997,-1,-2,-2,-4,-1,0,0,2
1511884658320997,-4,-2,-8,-13,-5,0,-3,0
1511884658328013,1,1,-2,-2,-1,-1,-1,1
1511884658328013,-2,-3,2,-1,-1,-2,-3,0
1511884658344054,1,1,5,1,0,2,6,-2
1511884658344054,1,0,7,6,1,-3,-9,-1
1511884658351091,-3,-6,-7,-4,-1,-3,2,-3
1511884658351091,-1,2,5,-8,-3,3,2,-2
1511884658358095,-5,-4,-6,-7,-2,-2,3,-3
1511884658358095,1,-2,1,-4,0,0,-3,1
1511884658367116,1,-2,4,11,4,1,-2,3
1511884658367116,2,-1,-3,2,2,2,3,-1
1511884658381280,-1,-1,0,1,0,0,-4,0
1511884658381280,-2,-3,-5,-5,-1,1,2,-5
1511884658388375,-1,3,5,4,0,1,3,0
1511884658388375,-2,-2,-2,6,3,0,4,-1
1511884658404434,1,-1,-3,-2,-1,-4,-1,6
1511884658404434,-1,-2,-4,-1,0,0,-2,-2
1511884658410451,-5,-3,-7,-3,-1,4,2,-8
1511884658410451,-1,1,-1,-2,0,-2,-5,0
1511884658434700,0,-3,2,1,-1,-1,-2,-4
1511884658434700,0,1,0,-3,1,2,4,2
1511884658436531,3,4,1,-1,-2,-1,-3,-2
1511884658436531,3,-2,2,2,2,1,2,-1
1511884658441519,0,2,-2,-2,-2,2,-2,-2
1511884658441519,1,-1,-8,-6,-4,-2,2,0
1511884658448538,0,3,5,0,3,2,2,3
1511884658448538,-1,-2,3,9,3,-2,0,2
1511884658463579,0,0,-11,-2,-4,-1,2,-1
1511884658463579,-3,-1,-3,-4,-4,-4,-2,-2
1511884658470781,-1,0,-6,-8,-2,0,1,0
1511884658470781,-2,-4,-5,-12,-9,-7,-6,-3
1511884658486716,1,0,7,12,7,-2,-2,-3
1511884658486716,0,-2,-3,-7,-7,0,-4,3
1511884658488642,3,3,7,11,5,0,2,6
1511884658488642,0,0,3,10,5,4,-2,0
1511884658500676,0,-2,1,-6,-6,-9,-6,-1
1511884658500676,-1,-5,-3,1,1,-7,-11,-2
1511884658509825,1,-2,-4,-5,-3,2,6,1
1511884658509825,-3,0,-7,-4,-3,3,2,1
1511884658523980,-1,0,-5,-4,-2,-2,-1,-2
1511884658523980,-2,0,2,-3,0,4,5,-3
1511884658531001,-1,-5,-4,1,-2,-6,-6,-5
1511884658531001,-1,0,12,12,2,-6,-10,-1
1511884658547043,-1,-4,-2,1,-4,0,-4,1
1511884658547043,-1,-1,-8,-12,0,1,5,-2
1511884658548952,-1,-6,-14,-10,-2,4,-4,-1
1511884658548952,-1,-2,-5,-5,-5,0,2,-2
1511884658561966,-1,1,5,-1,1,3,0,0
1511884658561966,0,-3,0,5,2,-3,0,3
1511884658568002,-1,-1,2,5,0,5,-2,-5
1511884658568002,1,-2,-3,1,0,-2,-1,0
1511884658584024,-3,-2,1,1,0,-2,3,1
1511884658584024,-1,-1,-4,-1,1,-1,-7,1
1511884658591040,0,2,7,9,2,-1,3,2
1511884658591040,0,4,-5,-10,-3,0,0,-3
1511884658607239,-1,-5,-3,-6,-1,5,4,-5
1511884658607239,-1,0,-2,-4,-4,-2,-2,-4
1511884658608242,1,1,3,-1,-3,-8,-3,-3
1511884658608242,-1,2,2,3,1,1,1,0
1511884658621288,2,-1,3,2,1,-1,-2,-2
1511884658621288,-4,-4,-1,8,3,0,-2,2
1511884658628298,-3,-3,3,7,2,9,15,1
1511884658628298,0,-8,-6,-20,-7,-9,-6,-1
1511884658643335,-1,0,-12,-14,-7,-2,1,0
1511884658643335,-1,0,2,-2,-2,0,2,0
1511884658650354,-2,1,7,6,0,0,1,1
1511884658650354,-2,4,3,6,3,1,3,-1
1511884658667400,1,-1,-2,2,2,2,4,3
1511884658667400,0,-2,2,1,-3,-6,-6,-3
1511884658668409,-1,0,-3,-4,-1,-5,-4,1
1511884658668409,-3,0,-3,0,-1,1,-2,-2
1511884658681472,2,-4,-9,-11,-5,-6,-10,5
1511884658681472,0,-1,-1,-4,-2,3,6,5
1511884658688458,0,2,0,-2,0,-1,-3,-1
1511884658688458,0,1,8,9,5,3,6,0
1511884658703495,-3,-4,-2,9,1,-3,-5,-1
1511884658703495,-2,-2,-9,-7,-3,-1,-4,-5
1511884658710514,-5,-3,-11,-13,-4,-1,-4,-4
1511884658710514,1,-3,-1,-2,-3,-2,-5,6
1511884658726556,-1,4,7,4,0,1,2,-2
1511884658726556,1,0,3,4,0,-2,2,-1
1511884658728562,-3,1,6,2,0,-2,0,-2
1511884658728562,0,-5,-4,1,2,-3,-6,1
1511884658741596,-2,1,5,-2,0,0,3,1
1511884658741596,-1,3,1,1,-1,-2,-4,-3
1511884658755633,-2,-4,-9,-5,-3,-3,2,-1
1511884658755633,1,2,2,1,1,4,3,-3
1511884658763655,0,1,6,7,-2,-5,1,2
1511884658763655,-3,-3,-1,4,1,1,2,0
1511884658770750,1,-2,-10,-11,-2,1,-4,3
1511884658770750,-3,-4,-4,-4,1,5,6,-11
1511884658786886,2,0,0,7,2,-2,-9,-5
1511884658786886,-1,0,-6,-6,-2,0,7,-2
1511884658788891,-2,2,2,-7,-2,-5,-3,-2
1511884658788891,-3,-2,0,3,4,4,-3,2
1511884658801927,-1,-4,-2,-3,-2,0,-2,-1
1511884658801927,2,-2,-3,-2,-1,-1,6,0
1511884658807967,1,0,9,2,3,3,2,-8
1511884658807967,1,2,3,2,-5,-5,-11,-2
1511884658824075,0,1,2,5,4,-1,-5,1
1511884658824075,2,0,1,-1,2,4,7,3
1511884658831268,2,-2,0,2,0,-2,2,1
1511884658831268,0,-1,3,2,2,4,6,-3
1511884658847331,2,0,1,3,-1,-1,0,1
1511884658847331,-4,-1,-5,0,3,3,1,0
1511884658849214,2,2,-2,-7,-4,-1,-5,0
1511884658849214,0,0,0,-3,-4,-1,2,3
1511884658861237,-4,1,-10,-7,-4,-1,3,-4
1511884658861237,3,1,0,-4,-1,-4,-2,-1
1511884658868202,2,4,6,16,9,-1,4,2
1511884658868202,0,-3,3,8,2,1,5,2
1511884658883407,-2,-1,-2,-10,-2,3,5,0
1511884658883407,-1,-1,2,0,0,-1,-6,-1
1511884658890428,1,-2,-5,-1,-4,-3,-4,2
1511884658890428,-3,-3,-4,-5,-2,-4,3,3
1511884658907472,2,3,-1,1,3,9,1,-2
1511884658907472,-4,0,4,0,-1,2,12,4
1511884658908474,0,-4,-4,2,0,1,-6,0
1511884658908474,0,2,-3,2,3,1,5,0
1511884658920727,-1,-5,10,10,4,-1,4,-1
1511884658920727,-1,-1,-5,-8,-1,-1,-4,-3
1511884658929646,-4,-7,-14,-14,-5,-2,-1,-3
1511884658929646,2,0,-6,-9,-2,-4,-7,2
1511884658943687,-3,2,6,5,-2,-7,-1,-1
1511884658943687,2,1,10,12,2,2,-2,-1
1511884658950880,-5,-4,-1,0,0,1,-2,-2
1511884658950880,-1,-2,-2,-1,-2,-3,-3,0
1511884658966887,-1,-4,-5,-9,-1,-5,-5,-1
1511884658966887,-2,-3,-7,-15,-10,-5,-3,-1
1511884658968893,3,3,2,7,2,-1,2,3
1511884658968893,-2,2,3,3,0,1,-1,-3
1511884658981050,-3,-1,0,1,2,4,3,-1
1511884658981050,-3,-2,-5,-2,-1,3,0,-7
1511884658989948,0,-4,-3,-4,-1,-5,-1,-1
1511884658989948,0,1,1,-5,-5,5,4,0
1511884659003986,4,3,4,4,1,-3,-5,1
1511884659003986,0,2,2,3,8,2,2,-4
1511884659011197,1,-2,5,5,0,0,-3,0
1511884659011197,1,-1,-5,-1,1,5,2,-2
1511884659027050,0,-1,-1,0,2,2,2,1
1511884659027050,0,-2,5,7,2,-1,-3,1
1511884659029053,-1,3,5,0,0,9,6,-1
1511884659029053,-1,2,-1,-7,-4,-4,-2,-1
1511884659041087,-3,-3,-14,-2,-2,3,-1,-1
1511884659041087,-1,0,4,-3,-6,-5,-9,2
1511884659050111,-2,-2,4,3,0,0,0,1
1511884659050111,-1,1,-1,3,-3,-3,1,0
1511884659064146,0,-3,-4,-12,-4,0,2,0
1511884659064146,-1,-1,-6,-2,-1,-2,-2,1
1511884659071165,1,1,2,-1,-3,-2,0,0
1511884659071165,-2,-2,-2,1,1,-1,-2,-4
1511884659087210,0,-3,-8,-1,-3,-3,-2,0
1511884659087210,1,2,1,-1,1,-4,-4,0
1511884659088210,2,-3,0,3,1,0,9,1
1511884659088210,0,-1,1,1,3,-2,-12,0
1511884659100242,0,0,-5,-5,-2,1,2,3
1511884659100242,0,-4,0,0,-6,-2,0,1
1511884659109269,-1,3,-16,-8,-2,-3,-2,-3
1511884659109269,-1,0,4,-1,2,0,-1,-4
1511884659124306,3,1,7,3,-1,1,-1,3
1511884659124306,1,0,-5,-4,-3,-2,2,0
1511884659130324,-2,-3,1,-3,-1,0,-2,-2
1511884659130324,-3,2,0,1,0,-1,2,-2
1511884659147560,1,0,4,-4,-3,-1,-3,-2
1511884659147560,0,0,-1,6,1,-2,-1,-2
1511884659148437,0,-1,5,1,-1,2,2,2
1511884659148437,2,-2,-2,-2,-3,-6,-10,-3
1511884659160458,-2,0,3,-2,3,1,-1,-3
1511884659160458,-1,0,0,4,4,4,4,1
1511884659169482,-4,-8,-9,-5,-3,-9,-14,-3
1511884659169482,-2,-3,-5,-12,-6,6,4,2
1511884659183519,-2,-1,2,-3,0,-4,4,0
1511884659183519,1,2,9,9,5,5,-3,4
1511884659190541,3,6,8,5,-4,1,6,4
1511884659190541,-2,-5,2,2,3,-2,2,-4
1511884659206585,-2,-3,1,1,-3,3,0,0
1511884659206585,-2,-1,-8,-5,-1,-4,2,-3
1511884659213602,-1,-1,-1,0,4,0,-4,2
1511884659213602,0,1,-2,-7,-9,-3,1,0
1511884659220621,0,2,2,-1,3,2,1,-2
1511884659220621,1,5,3,5,-3,-5,1,0
1511884659229787,4,1,0,2,3,0,-3,-1
1511884659229787,0,1,-3,5,-2,-8,-6,0
1511884659243860,-2,1,-8,-6,2,2,7,-1
1511884659243860,0,-3,-4,-4,-6,-1,0,1
1511884659250841,-2,-1,-3,-5,1,0,2,-1
1511884659250841,0,2,4,6,-1,0,-2,2
1511884659266914,1,1,-7,-2,-1,-2,0,-1
1511884659266914,-1,0,1,-4,-5,-2,-4,-2
1511884659272901,-1,-1,-4,-7,-2,-3,-7,-4
1511884659272901,2,-3,3,4,9,7,10,9
1511884659280920,-3,-1,4,4,-5,-3,-6,-2
1511884659280920,0,2,4,-4,7,3,-1,1
1511884659289943,-6,-4,-7,-6,-9,-9,-4,-3
1511884659289943,1,1,-7,-7,-1,0,-7,-3
1511884659303981,2,4,1,2,-2,2,1,2
1511884659303981,0,0,-7,-6,-4,-1,-2,1
1511884659311007,0,0,6,5,4,0,5,-2
1511884659311007,-1,-3,-1,-1,-14,-4,-4,-4
1511884659326042,-2,0,8,17,16,4,2,0
1511884659326042,-3,-10,-5,1,-5,0,-7,-2
1511884659333058,1,0,-10,-1,1,2,-9,2
1511884659333058,0,-1,2,-5,0,5,14,5
1511884659341079,-1,1,-4,-8,1,-5,-5,-4
1511884659341079,1,2,0,9,-2,6,0,8
1511884659350104,0,7,8,2,-10,-10,-8,-6
1511884659350104,-6,-4,-4,-5,5,-8,-4,-4
1511884659363251,-4,-12,-18,-10,-2,-4,-2,1
1511884659363251,-2,-7,-17,-16,-28,-10,-1,-2
1511884659372162,-1,-3,-8,-25,5,21,2,3
1511884659372162,3,3,10,29,2,-18,-8,1
1511884659386202,0,5,8,-12,-16,-5,1,0
1511884659386202,3,0,4,21,1,15,1,-2
1511884659393221,-2,-3,8,13,22,24,10,3
1511884659393221,-2,-5,-17,-12,-2,7,-3,-4
1511884659409261,-3,-1,-1,2,0,-10,-17,-5
1511884659409261,5,4,3,6,5,-2,-6,-1
1511884659411272,5,11,21,13,6,-9,10,6
1511884659411272,-3,1,9,3,1,2,-9,-3
1511884659424301,-4,-14,-25,-4,-9,-4,1,-5
1511884659424301,-2,-7,-18,-26,-14,-3,0,3
1511884659430344,-1,5,14,8,1,-7,-10,-1
1511884659430344,-2,-3,-2,-3,2,1,6,5
1511884659446486,2,6,26,2,-10,-4,6,3
1511884659446486,-3,1,4,1,16,-5,5,-2
1511884659453505,-4,-8,-10,-1,-2,1,3,0
1511884659453505,-1,-2,7,-1,2,11,4,-4
1511884659469547,-1,3,6,18,0,-4,-1,-3
1511884659469547,0,-6,-4,-16,-5,-6,6,0
1511884659471426,-4,0,14,12,2,-3,1,-2
1511884659471426,-1,4,2,0,1,9,5,2
1511884659483458,-2,-4,0,-3,-1,4,-2,3
1511884659483458,-5,0,2,0,16,3,-6,-1
1511884659490480,-5,-12,-20,-15,-20,-18,-9,-6
1511884659490480,0,-2,10,3,15,8,0,2
1511884659506520,-1,-3,-6,-5,-7,-4,-5,0
1511884659506520,-4,3,14,15,6,-2,3,-3
1511884659513589,2,-2,-24,-10,-11,-7,-1,0
1511884659513589,-4,-3,-3,-3,1,-2,5,1
1511884659529615,0,-7,-10,-1,2,6,5,-4
1511884659529615,2,1,-6,-2,1,-6,-2,0
1511884659531623,-1,4,15,7,1,5,2,-2
1511884659531623,-1,-3,-9,-8,-9,-10,-1,1
1511884659543820,-1,0,-8,-1,4,5,-2,1
1511884659543820,-1,0,2,-4,-1,0,-3,-2
1511884659551857,4,-4,-1,-1,-1,-4,0,-1
1511884659551857,-1,3,8,2,-3,-3,-4,-2
1511884659589797,-1,0,-6,-18,-11,-10,-8,0
1511884659589797,-2,-2,-1,4,3,1,2,-1
1511884659598796,-2,2,-3,1,-1,3,-1,-4
1511884659598796,-3,0,-4,-5,-1,-1,2,-7
1511884659627877,-1,5,4,0,4,9,3,3
1511884659627877,-1,-3,4,0,-4,-3,0,-1
1511884659634893,1,-1,-2,3,-1,-4,0,6
1511884659634893,-1,-5,-17,-7,-6,-4,3,0
1511884659665980,-2,3,8,4,3,-3,-17,-1
1511884659665980,-3,-4,-10,-3,-6,2,4,4
1511884659671991,-1,-3,1,-5,-3,-2,-6,-4
1511884659671991,5,2,3,0,-1,1,0,6
1511884659703077,0,-1,3,3,2,2,3,-2
1511884659703077,-1,1,11,4,2,0,-11,-1
1511884659710096,0,-5,-17,-4,-6,-4,-4,-6
1511884659710096,-3,-9,-14,-9,-13,-2,-5,-7
1511884659740403,0,-2,-1,5,10,3,9,1
1511884659740403,0,1,5,-1,-2,-1,4,-1
1511884659747309,-2,13,3,0,5,5,-1,-5
1511884659747309,-3,-2,-3,-2,-3,-3,-2,-4
1511884659754327,4,-3,-1,2,-2,0,7,-2
1511884659754327,-2,-5,-6,-2,-1,-4,5,2
1511884659754327,-1,-7,-4,-3,-6,-2,3,6
1511884659754327,0,1,-1,-1,-3,-7,-14,3
1511884659761349,2,4,0,2,0,5,-14,-1
1511884659761349,1,22,4,9,12,9,-23,-5
1511884659762353,3,-6,-4,-7,-2,0,-14,3
1511884659762353,0,-6,4,8,4,-1,-4,1
1511884659785410,-5,-7,0,-8,-4,-4,1,-16
1511884659785410,5,-1,-1,-1,-1,2,17,26
1511884659787415,6,0,5,2,0,7,12,3
1511884659787415,-6,-9,-9,-4,-7,-11,3,-9
1511884659788418,0,4,-1,-3,-9,-10,-2,-1
1511884659788418,0,-2,-3,-1,20,36,7,-5
1511884659793434,-6,4,5,4,2,3,1,-24
1511884659793434,4,2,2,-1,-1,-11,-2,3
1511884659794437,2,3,-1,1,-1,3,7,2
1511884659794437,-3,-2,-3,-5,-7,-5,6,-4
1511884659794437,0,-1,0,5,9,21,9,9
1511884659794437,0,3,-5,-7,13,26,9,-7
1511884659795436,-5,-1,3,2,-9,-6,1,1
1511884659795436,2,-1,2,1,-4,-14,3,-12
1511884659799450,-10,-4,-9,-10,-6,-3,0,-2
1511884659799450,15,4,2,2,-3,-5,2,30
1511884659800450,3,-1,-2,0,2,4,-2,10
1511884659800450,2,-7,-4,-3,-5,-8,-15,-2
1511884659801460,-10,-2,-1,1,-9,-10,3,3
1511884659801460,-4,4,1,-2,-3,-1,0,-18
1511884659806489,-3,-4,1,5,7,-5,-5,-6
1511884659806489,-6,-2,-1,-2,-6,-14,-7,-11
1511884659820534,8,3,0,-2,3,1,2,40
1511884659820534,2,1,1,1,2,0,5,-7
1511884659829746,-1,1,-3,2,11,16,6,-4
1511884659829746,-3,1,2,1,0,-5,0,1
1511884659831564,0,-1,1,-1,-8,-13,-7,-13
1511884659831564,0,-2,4,4,-1,4,2,-1
1511884659843705,6,-1,-2,-2,5,1,-2,-2
1511884659843705,-5,-4,-2,-3,2,-2,0,-18
1511884659852619,3,-2,1,3,-2,-12,-1,1
1511884659852619,2,-1,-1,-4,-10,-5,-5,22
1511884659866659,-9,0,-4,-5,-2,-2,-2,-16
1511884659866659,1,-3,-5,-5,-2,-4,-7,13
1511884659872810,2,-1,1,2,6,1,0,-11
1511884659872810,-4,1,2,3,-4,-6,-5,-18
1511884659889872,-17,-5,-1,-3,-3,-3,0,5
1511884659889872,3,1,2,-1,-2,9,2,-13
1511884659891860,-2,-1,-3,0,4,-1,5,4
1511884659891860,7,-1,0,4,8,6,-1,-6
1511884659903072,8,-4,-8,-11,-8,4,7,4
1511884659903072,-7,-4,-4,-1,-2,5,2,-1
1511884659911918,-12,-2,-2,-3,-8,-12,-1,-9
1511884659911918,7,3,0,0,2,-3,-12,-2
1511884659927002,8,2,6,7,5,4,10,22
1511884659927002,-4,-5,-2,0,-4,-8,-2,5
1511884659933010,1,0,-2,-1,5,5,2,-6
1511884659933010,-24,-9,-3,1,-5,-3,3,-23
1511884659949011,14,2,-4,-8,-10,-17,-14,20
1511884659949011,7,2,9,7,10,19,24,8
1511884659951017,-8,-2,-2,-2,-6,-5,-9,-5
1511884659951017,6,4,5,2,6,11,3,-2
1511884659963049,5,-6,-3,0,2,-3,0,0
1511884659963049,-6,2,1,1,-7,-5,1,-2
1511884659980096,7,0,-6,-2,2,4,3,2
1511884659980096,2,0,2,3,-2,6,5,9
1511884659986111,-8,-2,-2,-3,-3,-5,-9,-11
1511884659986111,-1,-2,-3,0,13,0,-6,6
1511884659993129,3,3,5,7,-2,-1,-3,-6
1511884659993129,-7,-7,-14,-15,-9,-9,-7,-1
1511884660009201,-12,-1,0,-2,-7,1,12,-7
1511884660009201,21,2,-2,-2,1,1,-5,11
1511884660011178,2,2,5,5,-3,-2,-1,-7
1511884660011178,-2,-1,7,8,9,9,-1,-1
1511884660023210,-5,1,1,2,0,-7,0,-6
1511884660023210,8,2,-2,-2,-8,-8,-13,-9
1511884660032233,-1,1,1,5,7,4,11,0
1511884660032233,-1,1,8,3,-5,-13,3,-5
1511884660054413,3,1,-8,1,3,5,-6,6
1511884660054413,-3,-7,-7,-7,-5,1,-6,2
1511884660056297,7,3,-1,-6,-1,-3,-1,-5
1511884660056297,-8,0,-8,-7,-8,-6,7,-4
1511884660069464,0,-1,0,-4,0,3,9,4
1511884660069464,-6,1,-2,-6,-10,-16,-16,-8
1511884660071339,1,1,6,1,7,19,-11,1
1511884660071339,0,0,4,4,1,-12,3,9
1511884660092393,0,1,4,13,9,6,-2,-8
1511884660092393,-5,-5,-10,-7,-9,-1,-1,3
1511884660093396,-2,-3,-4,-10,5,3,-1,-2
1511884660093396,3,2,5,3,6,-3,8,12
1511884660106434,0,0,8,7,2,4,-3,-7
1511884660106434,-8,-7,3,13,2,0,14,-4
1511884660113452,-1,-6,-15,-7,1,-11,-11,6
1511884660113452,0,0,0,-18,-6,-1,-7,-10
1511884660136512,-1,-1,6,1,-3,5,25,1
1511884660136512,-3,3,5,23,5,0,-11,-2
1511884660138516,-1,-3,-15,-12,-14,-13,-24,-5
1511884660138516,-2,-7,-16,-30,-5,13,14,-2
1511884660143532,-3,1,2,-5,-4,-12,-21,-7
1511884660143532,-11,0,-30,-45,-16,-1,-1,-19
1511884660152583,1,1,-2,-28,-11,-4,-5,6
1511884660152583,2,-1,17,27,13,6,9,14
1511884660166590,1,5,28,38,16,10,3,4
1511884660166590,8,3,20,41,13,-3,7,3
1511884660173727,-18,-12,-22,-14,-15,-4,-2,-17
1511884660173727,11,12,-17,-35,-15,-6,0,37
1511884660188947,-9,0,4,7,9,8,-4,-9
1511884660188947,6,1,10,8,2,-6,-5,-5
1511884660195783,4,-4,4,7,-4,1,1,16
1511884660195783,0,2,3,13,7,-1,-2,-14
1511884660202802,4,-8,-11,-7,-6,-13,-14,3
1511884660202802,-3,-1,-10,-16,-5,3,-4,-4
1511884660211826,2,2,9,-3,-1,-8,3,6
1511884660211826,-2,1,1,10,4,3,3,-7
1511884660226867,-1,-4,-4,-3,0,-2,-1,-5
1511884660226867,-4,-7,-6,-17,-14,-6,-5,-3
1511884660232916,1,5,-6,6,3,-2,3,1
1511884660232916,-3,0,-4,-14,-4,2,-11,-4
1511884660249048,2,1,-6,-12,2,-3,8,0
1511884660249048,9,4,7,14,9,3,2,27
1511884660255940,3,2,9,16,7,9,-1,-13
1511884660255940,-2,-3,-7,-7,-11,-13,-8,-10
1511884660262962,-2,-5,-6,-6,1,14,11,9
1511884660262962,3,5,12,2,-3,-4,-10,-6
1511884660271995,-2,-3,4,10,3,-1,5,2
1511884660271995,1,1,4,10,1,-4,-9,-5
1511884660286200,-8,0,-13,-15,-16,-15,-20,-8
1511884660286200,5,1,7,2,9,1,37,10
1511884660293042,2,1,5,2,-8,-10,-6,4
1511884660293042,-3,-2,4,14,4,-4,-6,-1
1511884660308082,7,4,-10,-16,3,22,5,-7
1511884660308082,-8,-3,-5,-5,-8,-16,-5,-7
1511884660316278,5,2,1,-11,-1,6,4,6
1511884660316278,-4,-8,2,10,1,-1,3,-2
1511884660331558,0,2,1,8,-3,-4,-2,6
1511884660331558,-4,-1,-6,-12,7,6,-5,1
1511884660332377,-1,0,8,6,-2,3,10,-2
1511884660332377,-3,1,-8,-4,-8,-9,-7,-4
1511884660347416,5,-7,-1,2,5,5,8,1
1511884660347416,-3,-2,-7,-7,-9,-5,-5,9
1511884660353436,-3,-2,3,3,0,-5,-1,6
1511884660353436,1,-6,-6,0,1,4,3,10
1511884660369518,-9,-1,-6,-8,-12,-14,-12,0
1511884660369518,-3,1,5,-1,0,8,-6,-19
1511884660375597,-12,-14,-9,-2,2,-1,10,9
1511884660375597,3,6,2,2,4,5,5,-7
1511884660391681,-6,3,0,-2,-2,3,-3,-5
1511884660391681,0,-3,-2,-2,-4,-18,-21,10
1511884660391681,-8,6,6,5,0,-3,-25,-5
1511884660391681,1,-8,-5,-3,-1,-9,-6,9
1511884660406723,0,-3,-7,-9,-11,2,-1,-7
1511884660406723,7,6,4,4,6,5,-2,3
1511884660413747,1,-2,-1,-1,-4,4,1,-8
1511884660413747,-2,-15,6,14,18,14,1,-5
1511884660429805,3,2,4,3,-9,-9,-17,13
1511884660429805,-4,0,-7,-11,6,1,14,4
1511884660435826,6,2,4,9,6,3,-12,-1
1511884660435826,-7,-3,-5,-10,-6,7,-11,-11
1511884660451839,7,6,6,6,-7,-13,-7,-2
1511884660451839,-3,8,10,8,2,9,8,-7
1511884660451839,3,-11,-6,-3,-5,-8,7,5
1511884660451839,0,-8,7,10,1,-17,-32,2
1511884660466879,-9,9,-1,-1,2,4,15,-16
1511884660466879,6,7,2,1,0,-5,0,10
1511884660472896,4,4,0,-6,2,3,8,-14
1511884660472896,-6,17,8,2,-4,-7,-8,-12
1511884660489940,-9,-18,-9,-4,1,4,31,-2
1511884660489940,-5,1,-7,-4,0,3,-5,-12
1511884660495974,0,8,10,14,8,9,7,-7
1511884660495974,11,7,2,16,0,-7,0,7
1511884660511151,10,-4,-13,-20,0,3,-2,1
1511884660511151,-10,-2,-10,-11,-1,11,1,-14
1511884660512151,4,-1,-3,-3,-6,-19,-35,19
1511884660512151,-1,1,4,3,-3,15,9,2
1511884660527308,1,0,5,10,15,-2,-6,-1
1511884660527308,-1,-10,-3,2,-1,6,3,6
1511884660533324,-3,-1,-4,-11,-16,-7,-4,-5
1511884660533324,1,-3,-6,2,12,12,26,0
1511884660563570,-1,2,0,-12,-18,-20,-22,26
1511884660563570,3,-5,-5,-2,-4,1,-3,-13
1511884660572591,-1,-1,0,-2,-1,-3,15,7
1511884660572591,-7,4,-3,-5,0,3,7,-10
1511884660594653,12,1,14,22,11,7,8,9
1511884660594653,6,-4,4,5,-1,-6,7,1
1511884660596717,-7,4,-7,-4,-6,3,6,-10
1511884660596717,-7,-7,-30,-37,-13,-10,3,-3
1511884660616711,0,0,-5,-16,2,11,15,4
1511884660616711,-1,3,13,8,1,-4,-12,-9
1511884660623729,20,7,16,17,9,5,5,27
1511884660623729,3,13,9,7,-1,1,-2,-7
1511884660647891,-17,-5,-6,2,-2,-12,-21,8
1511884660647891,6,8,-10,-6,-10,-4,-10,13
1511884660649796,-11,-12,-3,2,16,13,-2,-10
1511884660649796,-1,3,12,7,1,-2,-3,3
1511884660667848,1,-3,-12,-11,-5,-5,-4,-1
1511884660667848,4,-15,3,5,18,14,9,0
1511884660676984,1,-7,3,-3,-7,-6,1,-17
1511884660676984,-1,-19,-10,-10,0,-5,-9,-10
1511884660699933,-3,2,2,10,-1,-4,3,-17
1511884660699933,-6,-7,-13,-25,-11,-10,-2,3
1511884660700932,-2,10,13,17,-1,-1,-1,11
1511884660700932,-6,9,-4,3,-1,-1,4,-6
1511884660720985,0,16,0,-11,-7,3,9,14
1511884660720985,-3,-5,-7,-6,-5,2,-1,-7
1511884660730036,5,-6,1,-4,2,-2,-9,-5
1511884660730036,-11,-13,6,8,-2,0,1,-19
1511884660752068,-5,-7,11,8,3,-9,-22,-15
1511884660752068,6,0,-4,6,3,10,-10,18
1511884660753071,-20,-6,-2,-4,-3,-2,1,-16
1511884660753071,11,4,-3,-7,-1,-6,-13,11
1511884660773124,1,5,5,5,7,5,6,-20
1511884660773124,-8,-5,1,1,-2,-1,4,5
1511884660782148,2,5,-8,-11,-7,-6,8,-4
1511884660782148,4,1,3,-1,6,2,2,12
1511884660805209,2,-4,-1,3,8,8,9,-4
1511884660805209,-1,0,4,10,3,-2,-6,-6
1511884660807215,0,-1,-12,-16,-10,2,11,2
1511884660807215,2,4,-4,4,9,-2,-1,9
1511884660825266,3,-6,1,1,-8,0,1,-2
1511884660825266,-4,1,4,4,-5,-15,2,-11
1511884660834397,3,4,-3,2,7,14,8,8
1511884660834397,-5,-1,3,-5,-4,4,9,2
1511884660857461,3,1,4,7,-2,1,3,3
1511884660857461,-4,1,-3,-1,-5,3,-8,2
1511884660858460,-3,-11,-18,-17,-7,-5,-5,-12
1511884660858460,3,0,3,5,-3,0,3,6
1511884660878625,-12,-13,-14,-12,0,-4,-11,-13
1511884660878625,6,4,10,11,4,19,30,6
1511884660888690,-3,2,5,12,-3,-10,-16,-10
1511884660888690,6,-4,-6,-6,1,4,1,5
1511884660909747,3,3,2,2,-7,-6,-8,-2
1511884660909747,-6,0,0,-4,-1,-2,1,-5
1511884660910750,0,2,9,15,8,7,-1,5
1511884660910750,-1,-1,-3,10,-2,-8,0,0
1511884660930892,0,-6,-6,-20,-10,1,-3,-4
1511884660930892,1,-8,-9,-1,3,-12,-7,0
1511884660939913,4,7,-5,-30,-11,-4,7,1
1511884660939913,-2,5,7,3,3,2,-8,2
1511884660962018,-8,-8,4,15,8,-2,4,-4
1511884660962018,4,10,12,12,8,-4,-22,10
1511884660963987,0,-2,5,14,10,3,13,-10
1511884660963987,-3,-4,-5,-5,-6,-1,8,14
1511884660984032,7,3,-5,-7,0,-4,-13,2
1511884660984032,-7,-2,-1,-8,-12,-11,-4,-3
1511884660992059,-10,4,4,16,12,1,5,-10
1511884660992059,2,-3,-13,-19,-8,17,15,5
1511884661014112,-1,-4,-5,0,-1,2,4,0
1511884661014112,0,5,-1,-5,-3,-10,4,-4
1511884661016118,3,-3,2,4,3,-6,-8,5
1511884661016118,-2,-1,5,2,-2,-4,2,-1
1511884661037367,1,3,-6,-10,-8,-7,-1,0
1511884661037367,-3,-2,0,-2,3,3,-13,-3
1511884661038348,-3,-5,-2,3,0,0,5,-10
1511884661038348,1,-1,2,1,-1,2,-8,2
1511884661058231,-1,4,3,3,0,-4,-4,0
1511884661058231,0,2,-1,-1,-3,5,17,-14
1511884661068255,7,1,1,-1,3,2,-4,9
1511884661068255,-8,-7,-5,-6,-1,-1,-16,-12
1511884661089315,3,0,8,6,1,-4,7,6
1511884661089315,3,-1,-1,5,5,5,2,-3
1511884661091316,-4,0,-4,-11,-6,0,-7,-3
1511884661091316,3,0,1,-5,-10,-16,-8,-8
1511884661112505,-5,2,1,1,9,11,-3,6
1511884661112505,4,6,7,8,2,-8,0,-1
1511884661113385,-5,-3,-6,-3,-4,4,7,2
1511884661113385,9,-4,-9,-12,-10,-11,-16,3
1511884661118391,-2,-1,3,2,-4,-7,-3,-4
1511884661118391,0,0,5,6,1,8,13,4
1511884661119390,0,0,0,8,-2,5,-12,2
1511884661119390,-11,-2,-7,-9,-3,3,16,-10
1511884661127412,6,1,-4,-7,1,-5,0,13
1511884661127412,-1,-3,3,1,-4,2,-5,-11
1511884661128415,-1,0,5,-1,-1,-7,-1,13
1511884661128415,-8,-1,9,19,9,8,13,-17
1511884661133429,1,0,-4,0,4,6,5,0
1511884661133429,-3,-6,-10,-10,1,8,-6,1
1511884661134430,2,-2,-3,-7,-7,-6,-2,-9
1511884661134430,4,5,4,1,0,-7,-5,10
1511884661157496,0,-1,7,7,6,0,5,-2
1511884661157496,1,-1,-6,-1,3,4,11,6
1511884661158494,-2,0,-11,-17,-6,-2,3,-7
1511884661158494,2,-1,3,0,1,10,2,6
1511884661178552,5,4,4,5,0,-1,-2,-6
1511884661178552,3,-2,-1,4,0,2,5,13
1511884661187572,-2,2,3,4,-3,-9,-20,-5
1511884661187572,-1,-6,-3,3,-1,1,3,0
1511884661209658,-10,-1,-3,-5,-3,0,-5,-12
1511884661209658,2,-5,-9,-8,-5,-9,-6,2
1511884661211664,-6,2,-1,-3,5,6,2,-10
1511884661211664,3,-1,1,-1,-8,-14,-7,17
1511884661216678,7,0,8,11,4,5,0,15
1511884661216678,-1,-3,-1,0,2,-14,-11,0
1511884661216678,-3,-5,-6,3,0,1,5,0
1511884661216678,-3,2,-4,-11,-6,-4,-1,-7
1511884661223699,0,-1,-3,-5,-3,3,-4,-3
1511884661223699,-3,2,2,-8,-5,-3,5,-1
1511884661224698,4,-3,9,9,5,9,6,6
1511884661224698,-4,-2,-8,-3,0,-8,-7,-6
1511884661231717,5,-4,-2,0,-1,5,-2,3
1511884661231717,-6,-3,-7,-8,-4,-1,2,-11
1511884661233725,3,0,-2,-4,0,3,0,3
1511884661233725,1,4,3,1,-2,-3,1,-3
1511884661238737,1,2,3,4,-1,-3,-1,-4
1511884661238737,-3,-3,4,9,4,1,0,-3
1511884661239738,-1,-1,-8,-9,-7,-11,-7,1
1511884661239738,-1,-2,-2,-8,1,3,2,2
1511884661246883,-4,0,-4,3,3,-1,3,-1
1511884661246883,1,2,0,1,-1,-1,-3,0
1511884661248769,-2,-3,-1,-2,2,4,7,2
1511884661248769,4,-2,-4,4,4,0,-9,-1
1511884661253894,-5,0,0,0,-1,-1,0,-9
1511884661253894,-5,-1,-5,-13,-8,-1,-4,1
1511884661254786,9,5,4,2,-3,-3,-12,4
1511884661254786,-5,-3,1,8,6,3,6,-8
1511884661261800,-1,-3,-1,-2,-3,0,8,3
1511884661261800,4,1,6,4,3,-1,-4,-5
1511884661261800,-3,-4,-7,-1,-2,-2,-3,-1
1511884661261800,0,2,-4,-7,-6,-3,-3,-3
1511884661270002,-2,1,-3,-1,-2,-5,-5,6
1511884661270002,-2,-1,-1,-8,-4,2,4,-5
1511884661270943,1,1,2,3,2,-1,3,0
1511884661270943,3,4,10,13,5,13,29,8
1511884661275838,0,-2,-3,-2,-3,1,-9,-3
1511884661275838,-3,-4,-7,-5,-3,-2,-8,-3
1511884661276836,-5,1,0,0,0,-3,3,-1
1511884661276836,1,0,-2,-3,-2,0,-4,-8
1511884661290874,0,0,-1,-1,-1,-1,2,1
1511884661290874,2,1,1,-2,2,4,0,-1
1511884661297908,5,-1,1,1,-4,-1,2,1
1511884661297908,-4,-4,0,-1,-2,-5,-5,-2
1511884661313939,-2,-2,0,-4,-1,2,0,-3
1511884661313939,-2,0,0,5,-1,-6,-7,-5
1511884661314942,-3,1,1,0,4,5,6,3
1511884661314942,0,-6,-5,-2,-3,-6,-10,-2
1511884661329979,1,-3,-5,-7,-3,-6,-7,-1
1511884661329979,3,2,2,-1,-1,1,0,3
1511884661335995,4,-1,0,2,0,-2,-4,10
1511884661335995,-1,0,1,-2,-2,-4,-7,-3
1511884661351062,-3,0,-1,-2,-1,6,9,-1
1511884661351062,0,-1,-3,-5,-3,-3,4,-2
1511884661358054,1,-1,4,3,9,6,-7,-3
1511884661358054,3,2,5,5,3,2,3,3
1511884661374099,-1,-1,0,0,-2,-7,-1,-1
1511884661374099,1,0,0,2,-1,3,8,4
1511884661375103,-4,-3,-5,-3,-1,-1,2,-5
1511884661375103,-2,1,1,0,1,0,8,2
1511884661390166,-1,-3,-2,-4,-2,0,0,-6
1511884661390166,0,0,4,6,4,1,3,-2
1511884661396210,-2,-1,-5,-7,-9,-6,-3,-1
1511884661396210,2,0,-8,-13,-5,-2,-5,0
1511884661410195,-1,-1,0,-1,-2,0,-2,-2
1511884661410195,-2,-2,-1,4,-1,-3,-4,-1
1511884661418214,1,-1,5,6,3,-3,-1,-3
1511884661418214,-2,3,5,8,3,3,8,3
1511884661434382,-1,-1,-8,-6,-6,-5,-8,-3
1511884661434382,0,-1,-6,-8,-4,-1,-5,1
1511884661435262,2,2,0,-5,-3,1,-2,3
1511884661435262,0,-1,-3,1,1,-5,-8,-1
1511884661449462,0,0,6,7,4,-4,-8,8
1511884661449462,-4,-7,-3,-1,-2,-2,2,-1
1511884661455479,1,-1,-2,0,-3,2,1,-4
1511884661455479,-1,-3,-1,-8,1,8,6,-5
1511884661470740,0,3,0,-1,3,3,17,-4
1511884661470740,-1,1,3,4,1,3,1,4
1511884661478700,-3,-2,1,2,-1,0,2,-3
1511884661478700,-2,-2,0,1,0,-4,-4,0
1511884661493837,1,-1,-1,-2,-2,1,1,-1
1511884661493837,-1,-2,2,0,1,-4,-9,-2
1511884661494728,0,0,-1,5,3,2,10,-1
1511884661494728,-5,-2,-3,-5,-2,-12,-19,-3
1511884661509768,2,3,1,1,2,2,6,3
1511884661509768,1,0,-3,-2,-2,0,4,1
1511884661515956,-3,-1,-5,-6,-6,-2,-4,-1
1511884661515956,1,-1,0,-1,-3,-7,-6,2
1511884661531231,2,1,3,3,4,7,5,1
1511884661531231,-1,-2,-5,1,3,4,2,-5
1511884661538059,-1,-4,-2,-3,-1,-4,-9,-5
1511884661538059,-2,-3,-2,-4,-7,-5,-4,-2
1511884661554282,-4,-1,-6,-5,-2,0,8,1
1511884661554282,3,0,7,7,-1,-1,0,4
1511884661555102,-2,-4,-9,-6,-3,-1,2,2
1511884661555102,1,0,0,-1,-3,-1,-1,-4
1511884661570140,0,0,1,3,-3,-5,-14,-1
1511884661570140,-1,-1,-5,-10,2,4,20,1
1511884661576173,-1,1,3,6,2,-8,-7,-1
1511884661576173,0,0,2,9,5,-1,16,4
1511884661591225,-2,-3,-9,-14,-7,0,-3,-4
1511884661591225,0,2,2,-2,-4,-2,-2,4
1511884661598403,0,-1,-4,-4,-2,-2,0,-4
1511884661598403,1,2,3,3,6,8,7,-1
1511884661614446,-2,-2,5,12,1,-5,-6,-4
1511884661614446,-3,5,1,0,0,-5,-8,-3
1511884661615300,-1,-1,-2,-9,0,5,7,0
1511884661615300,0,-3,-4,-7,-7,0,-5,-3
1511884661629475,3,-2,-3,1,2,3,2,-2
1511884661629475,-1,-1,-2,-2,0,-5,-11,-8
1511884661635570,-1,1,6,6,3,9,3,-3
1511884661635570,-4,1,3,4,3,-3,-6,-2
1511884661650506,-2,-2,-5,-7,-1,1,-1,0
1511884661650506,1,-3,-3,-1,-5,0,2,-2
1511884661658673,1,2,1,-1,-1,-5,-2,1
1511884661658673,-2,-1,0,5,2,3,-1,-2
1511884661673836,-1,-1,0,-3,-2,3,4,-2
1511884661673836,-2,-1,0,-2,1,-5,-14,-3
1511884661674839,1,-1,-7,-1,-2,-4,2,1
1511884661674839,-1,0,0,-8,-4,2,-2,-2
1511884661690039,-1,2,1,-1,-2,-1,-2,3
1511884661690039,-1,-2,-1,2,1,-3,3,1
1511884661696054,2,1,5,4,1,2,-2,-2
1511884661696054,1,-1,-1,3,-2,2,2,3
1511884661711218,-1,-3,-8,-10,-3,-5,-1,-1
1511884661711218,-1,-1,0,1,-3,0,0,-3
1511884661718236,-3,-1,2,5,2,1,0,-2
1511884661718236,-4,-4,-2,0,-3,-4,-7,-3
1511884661734333,1,0,1,5,-2,-1,2,0
1511884661734333,0,-1,-4,-8,0,2,1,-1
1511884661734333,0,-2,-2,-2,0,-1,-2,1
1511884661734333,2,3,0,-1,-2,-6,-4,-3
1511884661749375,-1,-1,5,8,6,-2,5,2
1511884661749375,-2,0,-4,-3,-5,-3,-3,1
1511884661755391,0,-1,1,-1,-2,4,8,2
1511884661755391,0,0,-3,-1,2,1,-6,4
1511884661770609,-1,-1,1,-2,-3,-8,-4,0
1511884661770609,-1,-4,1,5,0,1,-5,0
1511884661778457,1,-3,-1,0,3,1,3,0
1511884661778457,-2,1,-1,-3,-1,-3,-2,-1
1511884661793496,-1,1,-3,-8,-1,3,-1,1
1511884661793496,-4,0,0,2,2,7,11,-1
1511884661794495,-1,0,-3,-4,-3,-7,-7,-1
1511884661794495,-2,2,1,8,-2,1,3,-2
1511884661809677,1,0,4,4,0,-6,-10,-1
1511884661809677,1,1,-4,-3,-3,1,-1,1
1511884661815696,-2,2,-5,-8,-3,0,1,-3
1511884661815696,-1,1,0,0,1,4,4,1
1511884661830910,0,3,10,6,3,7,-1,0
1511884661830910,-1,-5,-1,5,1,-9,-6,-1
1511884661837891,-3,-3,-14,-17,-6,-3,-5,-1
1511884661837891,-1,-3,-4,-5,-1,-3,4,0
1511884661853965,-2,-1,2,3,5,4,1,0
1511884661853965,0,1,7,10,2,-1,5,1
1511884661854954,1,1,8,7,-2,-3,-4,0
1511884661854954,0,0,-4,-5,-3,2,-3,-1
1511884661869973,-5,-3,-12,-15,-5,-8,-1,-3
1511884661869973,0,1,1,-4,2,4,-4,-2
1511884661875992,0,0,0,3,-1,-2,-4,-1
1511884661875992,2,1,7,8,3,-4,-5,2
1511884661891032,1,-1,2,6,2,5,4,2
1511884661891032,-1,2,0,4,0,-3,-13,-4
1511884661898384,-4,-3,-3,-6,0,-4,-1,-4
1511884661898384,-2,-1,-2,-7,-4,1,1,-3
1511884661914233,-3,-1,-2,0,-1,-2,0,-2
1511884661914233,0,0,-2,-6,-1,1,9,-2
1511884661914233,0,-1,6,7,-1,1,4,1
1511884661914233,1,-2,1,1,2,0,0,2
1511884661929472,1,1,-3,1,-1,-4,-1,-1
1511884661929472,0,-5,-12,-13,-8,0,1,0
1511884661935475,-1,1,0,1,4,3,1,1
1511884661935475,-2,-3,-1,-3,-2,2,4,-1
1511884661950327,-1,-1,0,6,-1,1,-5,-3
1511884661950327,0,0,-1,-3,-3,-6,-3,-3
1511884661958350,0,-4,-2,1,1,1,4,0
1511884661958350,-2,-2,-3,2,0,0,-1,-1
1511884661973476,-2,0,3,0,-4,0,1,0
1511884661973476,0,-1,-2,0,0,0,-3,-1
1511884661974474,0,-1,-1,-5,2,0,-2,-3
1511884661974474,-2,4,4,-1,2,3,8,-1
1511884661989514,-2,-5,-3,-1,1,-4,-12,-1
1511884661989514,0,0,2,3,2,1,4,2
1511884661995534,0,0,-1,-2,-4,-1,-6,-1
1511884661995534,1,-2,-4,-8,-2,0,-2,-1
1511884662010574,0,1,-1,-4,-1,2,6,-5
1511884662010574,0,1,6,2,3,-3,-4,0
1511884662018760,-1,1,1,5,0,1,3,1
1511884662018760,1,-2,1,6,-2,-2,0,-2
1511884662032858,-1,-3,-7,-9,-4,-9,-10,0
1511884662032858,-2,1,3,3,4,4,0,0
1511884662040793,-1,0,1,-1,-2,-2,-1,-3
1511884662040793,-1,-3,-10,-6,-1,5,18,2
1511884662049889,2,-1,-3,-1,1,-6,-10,-1
1511884662049889,1,-2,-5,-3,-2,-3,1,2
1511884662055904,-1,1,4,3,0,-2,-5,6
1511884662055904,1,0,4,5,2,-3,-2,0
1511884662070995,2,-1,3,8,1,1,3,2
1511884662070995,-2,-1,-5,-8,-3,1,-3,-7
1511884662078007,-1,0,-3,-4,-4,0,5,2
1511884662078007,1,1,0,1,-1,1,-9,1
1511884662093047,-1,-1,4,6,2,3,8,-1
1511884662093047,-1,0,3,4,0,-6,-10,-1
1511884662101023,-1,-1,-6,-7,-1,-2,6,0
1511884662101023,-1,-3,-6,-8,-3,-5,-4,-2
1511884662110045,2,1,0,1,4,1,-6,-2
1511884662110045,-1,-1,-1,-2,-2,3,2,-2
1511884662116096,1,-1,0,-1,-4,-2,-5,-1
1511884662116096,0,1,1,5,1,4,3,-2
1511884662131126,-3,0,1,0,0,-9,-6,2
1511884662131126,-1,-3,-5,-2,-5,-2,-5,1
1511884662138122,-1,-1,-1,0,3,2,-1,2
1511884662138122,-2,1,5,2,-2,-1,-8,0
1511884662153426,0,-3,-6,-5,-2,2,2,1
1511884662153426,-1,2,-2,1,0,-1,6,0
1511884662160319,1,-1,2,-3,-1,-5,-2,-3
1511884662160319,-1,-2,-1,4,0,0,-4,-5
1511884662169346,0,-3,-7,-12,-4,1,4,2
1511884662169346,1,0,0,-3,-3,-2,0,-1
1511884662175497,0,-2,0,5,2,0,-2,-3
1511884662175497,0,0,3,3,2,-3,-3,-3
1511884662190678,-3,-1,-2,-3,-3,0,6,-5
1511884662190678,-1,-2,-7,-8,-2,-1,-4,-4
1511884662197940,1,0,1,5,3,11,10,2
1511884662197940,-1,0,1,2,2,-2,-7,0
1511884662212875,-3,-1,-1,-4,-3,-3,-7,-2
1511884662212875,-1,-1,-2,-1,0,3,3,1
1511884662221078,0,-2,-2,-2,-2,-2,-2,-3
1511884662221078,0,-1,0,-1,2,-6,-4,0
1511884662236987,-2,1,4,3,1,3,1,-2
1511884662236987,1,2,3,0,1,0,-6,-1
1511884662236987,-2,-1,-1,-4,-4,-3,-3,-1
1511884662236987,-2,-5,-5,-2,-3,-4,2,1
1511884662251163,1,1,1,2,-1,5,1,1
1511884662251163,2,4,-2,0,-1,-1,-1,3
1511884662258356,7,8,2,2,-2,-2,-2,-2
1511884662258356,-12,-19,-11,-11,-4,2,0,-2
1511884662273274,-1,1,0,-1,3,0,-1,3
1511884662273274,1,-1,7,7,3,-1,7,0
1511884662289313,0,2,0,-2,-1,2,0,-4
1511884662289313,1,5,2,-1,-2,0,-6,-8
1511884662296578,1,-1,0,-3,-6,-4,-2,5
1511884662296578,-1,1,0,-1,1,6,4,5
1511884662297597,-4,-5,-2,4,1,-2,3,1
1511884662297597,2,1,-1,-9,-5,-5,3,1
1511884662310509,-2,-1,-2,0,-1,9,2,-8
1511884662310509,-1,-2,1,4,0,-3,-12,-2
1511884662318728,-2,-4,1,3,0,-8,-5,3
1511884662318728,1,3,-1,3,4,5,-1,0
1511884662332880,3,-2,2,2,-1,-2,2,0
1511884662332880,-2,-5,-3,-4,-2,-2,-6,1
1511884662340746,-4,-1,-2,-2,0,2,-2,-3
1511884662340746,2,1,1,-5,-1,-2,1,-1
1511884662356757,-1,-1,3,1,1,-2,1,1
1511884662356757,1,-1,-5,-3,-2,1,5,-2
1511884662356757,-4,-4,0,-3,-1,-1,-4,-4
1511884662356757,1,1,-2,-1,-2,-5,4,3
1511884662370837,-2,-3,-2,-3,0,-4,4,2
1511884662370837,-1,2,3,6,1,-2,-1,-1
1511884662377850,4,6,3,-1,-6,0,-4,1
1511884662377850,-6,-8,-4,1,2,-1,-2,0
1511884662392900,-1,-1,-9,-11,-5,1,1,-4
1511884662392900,0,-4,-3,-7,-5,-8,-9,-1
1511884662400877,-2,-2,-1,-2,0,5,15,2
1511884662400877,2,5,8,7,0,0,-4,-2
1511884662416008,-2,0,1,8,3,8,7,-2
1511884662416008,-4,-1,-3,-3,-5,-8,-10,-2
1511884662417007,-1,-3,-1,1,1,4,3,-2
1511884662417007,0,1,-6,-4,-2,-2,3,3
1511884662431048,-1,0,-1,1,-1,-3,-26,1
1511884662431048,1,-1,1,0,2,7,-19,-2
1511884662438171,0,-1,0,0,5,-7,-22,-4
1511884662438171,-3,-2,4,-3,3,7,-10,-1
1511884662453107,-1,-1,-2,1,-2,-10,-4,-2
1511884662453107,-1,-3,-5,4,-2,1,5,1
1511884662461150,-3,-2,-9,-11,-4,-6,-5,-1
1511884662461150,1,1,-5,-7,-5,5,5,-2
1511884662476213,-1,0,3,7,6,1,4,-1
1511884662476213,-1,-2,2,2,3,0,13,0
1511884662477169,0,-3,-2,-3,-5,-3,3,2
1511884662477169,1,-1,-5,-6,-4,-4,1,2
1511884662490258,-2,1,4,6,2,0,0,-4
1511884662490258,1,2,5,7,4,5,12,2
1511884662498227,16,7,1,1,-3,0,6,7
1511884662498227,1,4,-1,-1,-1,-2,5,0
1511884662513267,-4,-2,-6,-8,0,7,6,-5
1511884662513267,-3,-4,4,0,0,-5,8,0
1511884662520285,-1,-1,6,7,7,13,5,-3
1511884662520285,1,1,3,4,-3,-11,-5,-1
1511884662536573,3,-2,-3,-6,-3,-1,3,3
1511884662536573,0,5,-1,0,3,-2,11,7
1511884662537581,-5,-4,0,5,1,-3,0,-8
1511884662537581,0,-4,-3,-5,1,8,5,0
1511884662550601,-3,-3,-6,-12,-6,-8,0,0
1511884662550601,-2,-1,-3,-7,-6,-1,8,-7
1511884662558625,-4,1,1,3,2,-5,11,2
1511884662558625,-2,-3,1,13,5,-3,6,-4
1511884662573661,3,1,2,-7,-2,-5,3,4
1511884662573661,0,0,-6,-5,-2,6,2,0
1511884662580684,-2,0,0,-2,-3,-4,0,-3
1511884662580684,0,-4,2,3,1,-1,0,-3
1511884662596768,-1,3,-2,-2,-2,-1,3,9
1511884662596768,-2,-3,-3,-1,-3,-3,-2,-9
1511884662596768,-6,-4,-4,-6,-7,-8,-6,-8
1511884662596768,0,3,-1,-3,3,7,-2,3
1511884662610805,0,-2,5,10,1,4,15,0
1511884662610805,1,0,3,8,9,4,-4,-4
1511884662618814,-3,-7,-2,-2,-4,-4,1,4
1511884662618814,-1,-1,-5,-6,-5,2,-2,-3
1511884662632861,-2,0,2,6,6,1,7,1
1511884662632861,-1,0,-3,-8,-4,-6,-5,-1
1511884662640846,-2,-2,-5,-5,1,0,2,-1
1511884662640846,1,1,5,-2,0,0,-2,-1
1511884662656890,3,1,0,6,-1,-4,-6,-3
1511884662656890,-3,-4,0,-3,-1,1,-2,0
1511884662656890,3,1,0,2,1,-1,-4,3
1511884662656890,-2,-3,-8,-4,-5,-5,-3,1
1511884662670923,0,4,3,1,-1,6,-2,-3
1511884662670923,1,0,2,5,4,-7,-3,4
1511884662686991,-1,-1,-6,-5,-5,0,-6,0
1511884662686991,-2,0,2,0,6,-1,1,1
1511884662693091,-3,-4,-1,0,-4,-9,-8,-6
1511884662693091,2,-1,1,0,-3,2,-7,0
1511884662701096,0,1,1,1,2,-1,-1,4
1511884662701096,-1,-1,-3,-5,-11,-3,5,-1
1511884662716148,-3,-2,-5,-6,8,5,-1,-2
1511884662716148,-3,-1,-2,-3,-8,-12,-6,-3
1511884662717043,2,1,0,-1,-2,3,-2,0
1511884662717043,-1,0,3,5,2,-1,1,-2
1511884662731239,1,-1,1,-1,1,5,-1,1
1511884662731239,2,-2,2,0,5,-8,0,2
1511884662738304,-4,-6,-7,-5,-4,7,-5,-7
1511884662738304,-2,-1,-4,-6,2,-3,-2,-1
1511884662753282,1,-1,-5,-11,-11,-4,-1,-1
1511884662753282,-2,0,0,4,-7,0,-2,-1
1511884662761197,0,0,2,5,4,-2,3,2
1511884662761197,1,5,-2,0,-2,-2,-4,4
1511884662776240,3,5,11,6,7,3,-2,-1
1511884662776240,0,-4,-11,-3,1,-5,-3,-5
1511884662777239,2,1,-6,-13,-2,1,4,-1
1511884662777239,-1,0,0,5,6,6,1,1
1511884662790274,2,4,1,3,-7,-7,-6,-1
1511884662790274,0,3,5,1,4,7,3,2
1511884662798302,-4,-6,9,3,3,2,-1,0
1511884662798302,-4,-5,-18,-6,-7,-3,-7,0
1511884662813466,0,-3,0,-7,1,-6,-6,-1
1511884662813466,-1,-4,-10,-5,-1,3,1,-2
1511884662820481,-4,0,-1,3,0,3,1,-7
1511884662820481,4,1,7,-2,2,-2,-5,1
1511884662836533,0,2,2,5,-1,-1,5,-1
1511884662836533,3,4,3,4,5,7,3,2
1511884662837409,-4,-2,-7,-8,-5,-7,-7,0
1511884662837409,2,-2,7,10,-3,-3,7,3
1511884662850438,-3,-4,-6,2,1,1,-1,-4
1511884662850438,2,1,4,-2,4,-3,1,1
1511884662858642,0,1,1,5,-7,-6,-1,-3
1511884662858642,0,5,5,-5,-1,9,11,5
1511884662873659,-2,-5,-11,1,8,-1,-7,-3
1511884662873659,2,3,-1,-10,-17,-6,-1,2
1511884662880678,-3,1,2,8,19,15,2,-4
1511884662880678,-1,1,-8,-16,-21,-10,-9,-8
1511884662896720,-2,-1,1,3,3,3,5,-1
1511884662896720,-4,-4,-1,3,2,1,-5,-2
1511884662896720,4,6,3,-3,-4,2,11,3
1511884662896720,-1,2,-3,-1,4,-1,-3,-4
1511884662911794,1,-2,-1,-1,-1,-3,-4,-1
1511884662911794,0,-4,-22,-5,-6,-3,-1,0
