timestamp,emg1,emg2,emg3,emg4,emg5,emg6,emg7,emg8
1511885104051641,3,-2,0,-4,0,-1,0,2
1511885104051641,-1,-3,1,0,-2,0,-2,-1
1511885104051641,1,1,3,-4,-1,4,-2,-2
1511885104051641,2,1,1,-7,-9,-3,1,0
1511885104053643,-2,-2,-1,11,8,-2,-2,-1
1511885104053643,1,-1,-2,0,-6,-3,0,-1
1511885104056655,0,-1,1,-1,4,-1,0,0
1511885104056655,0,-1,-6,-4,-7,-2,-3,2
1511885104063795,-4,1,-3,3,14,4,-3,-3
1511885104063795,1,0,1,-3,-4,-5,2,1
1511885104074820,-3,-1,-3,-2,3,3,1,-2
1511885104074820,-1,-2,-3,3,7,0,0,-4
1511885104078952,0,-3,-1,-6,-8,-1,1,-1
1511885104078952,-2,1,-1,6,10,1,-3,-1
1511885104093315,-1,0,-1,-5,-2,-1,-1,-1
1511885104093315,-2,0,0,4,6,2,-1,-3
1511885104102222,1,1,3,-3,-2,-2,0,0
1511885104102222,-5,-1,1,-3,-1,4,-1,0
1511885104110252,-2,2,0,3,-4,0,1,-1
1511885104110252,-2,-2,-2,-3,-2,4,-1,1
1511885104123281,-2,0,-1,4,-2,-3,0,-2
1511885104123281,0,1,-5,-3,-3,1,-2,-3
1511885104133306,0,-2,0,0,0,-2,-1,1
1511885104133306,1,0,-1,0,-5,-2,-1,0
1511885104171594,-2,0,-2,-2,1,1,0,-1
1511885104171594,1,-1,2,-5,-3,-5,-5,0
1511885104173412,3,-2,-1,-3,-3,-6,2,0
1511885104173412,-1,-3,1,3,-5,1,1,-2
1511885104176444,-3,1,1,-5,-4,-2,-3,-2
1511885104176444,-1,0,-6,6,-2,-3,2,2
1511885104177422,-1,0,-1,-6,-3,1,-1,1
1511885104177422,-2,-1,3,1,2,1,1,-2
1511885104183441,0,-3,-2,-5,-3,-2,1,1
1511885104183441,2,-1,1,-3,-6,1,0,-1
1511885104192463,-4,-3,-4,-2,2,-1,-4,-1
1511885104192463,0,1,-2,3,-1,0,-2,0
1511885104198477,3,-2,4,4,6,-3,-1,1
1511885104198477,-2,-1,-6,-3,-3,3,2,-2
1511885104213685,-3,-1,1,1,-1,3,2,0
1511885104213685,3,1,1,-4,-1,-2,0,1
1511885104220699,-1,2,-5,-2,0,3,-3,-1
1511885104220699,-2,-1,1,3,5,2,-4,-3
1511885104229710,0,-2,0,3,-4,-1,-1,-3
1511885104229710,-2,-3,-1,3,14,2,2,-3
1511885104243831,-2,-1,3,2,-5,2,0,-2
1511885104243831,-2,3,4,4,5,-1,0,0
1511885104251743,-1,-2,-2,-5,-5,-1,0,-1
1511885104251743,-3,-1,-3,-10,1,0,-5,0
1511885104258774,-1,4,0,8,-8,-2,1,-3
1511885104258774,2,0,-5,-11,0,-4,1,1
1511885104273131,2,1,5,13,10,6,-1,1
1511885104273131,-4,-2,-1,-1,-6,-1,-4,-1
1511885104281126,-1,-3,1,-4,3,2,-1,-4
1511885104281126,0,-1,1,-1,-5,-2,-2,0
1511885104290049,-3,3,-4,0,3,1,1,0
1511885104290049,0,-1,0,0,0,-1,-1,-2
1511885104303084,1,-1,-2,-3,-5,-2,0,1
1511885104303084,-3,-1,1,-3,0,1,0,-4
1511885104312107,0,-2,1,0,-1,-1,-1,0
1511885104312107,2,-1,-3,10,8,2,1,0
1511885104318124,-1,-1,-6,-4,-3,-4,1,-1
1511885104318124,-4,-2,4,2,6,2,-2,0
1511885104333304,1,-2,-1,0,-5,-2,-1,-1
1511885104333304,4,-2,4,-5,-10,-3,-1,2
1511885104340325,-1,-1,-4,2,1,-5,-1,1
1511885104340325,4,0,3,-2,-6,-2,-2,1
1511885104355365,-3,1,1,-5,1,-3,3,-3
1511885104355365,1,-1,-4,0,-1,-3,-3,-2
1511885104363560,-3,0,0,-1,0,4,-1,-1
1511885104363560,-1,-2,2,-1,-1,0,-1,-2
1511885104372407,1,0,-1,1,1,3,-1,0
1511885104372407,-1,1,-2,-3,0,0,0,2
1511885104378609,2,0,-1,-2,0,1,-1,0
1511885104378609,-3,-1,-5,2,0,2,-3,1
1511885104393564,0,0,-1,0,-1,0,-2,-1
1511885104393564,-3,2,2,-2,-1,-4,-1,-2
1511885104400486,2,-1,0,1,-1,-1,-1,-1
1511885104400486,-1,2,0,3,1,1,0,-2
1511885104415661,-1,-5,-8,-3,-3,1,-2,-2
1511885104415661,-1,4,6,0,-1,-1,-3,-2
1511885104423685,-1,-2,-3,2,2,2,1,0
1511885104423685,-1,0,-4,-4,-1,-1,4,-2
1511885104432711,0,1,1,0,-2,-3,-2,0
1511885104432711,-1,2,-5,-3,-3,4,0,-4
1511885104438751,0,-5,1,-2,5,0,0,-1
1511885104438751,-1,-1,-1,3,-5,-3,0,1
1511885104452903,-1,-1,-1,0,3,-1,-1,-1
1511885104452903,1,2,0,-2,-4,-2,-3,2
1511885104460905,-1,-1,-5,2,-1,-2,-2,0
1511885104460905,-1,-3,-2,-3,0,2,0,-1
1511885104475932,-2,-1,-2,-4,-3,-3,0,-3
1511885104475932,-2,-3,0,5,1,1,1,-2
1511885104482946,1,3,5,0,0,0,0,0
1511885104482946,-2,-2,0,-2,1,-1,-2,-1
1511885104491967,3,-1,2,0,2,-1,1,3
1511885104491967,0,-1,1,-7,-4,-1,-1,1
1511885104497981,-3,-2,-2,2,2,1,-3,-4
1511885104497981,0,4,-3,3,1,0,1,-2
1511885104513108,1,-1,-1,-3,-2,-1,-1,-1
1511885104513108,-3,-1,0,1,0,3,0,-1
1511885104521130,-3,0,-3,-7,-5,-2,-1,1
1511885104521130,1,1,1,0,1,-7,0,-2
1511885104537169,0,0,1,-9,1,3,1,-1
1511885104537169,-4,-2,-5,-1,-1,-5,-2,0
1511885104543186,-3,-4,2,31,8,4,-1,0
1511885104543186,0,0,0,-23,-5,3,-1,-1
1511885104552209,-1,-2,2,21,4,-1,-2,-2
1511885104552209,-2,-3,-2,-3,0,0,1,1
1511885104558554,-1,-2,0,-14,1,-1,1,-1
1511885104558554,-3,0,0,11,2,1,-1,-2
1511885104573506,0,2,0,-15,-4,3,-1,0
1511885104573506,0,-3,-2,13,1,1,0,-2
1511885104580510,0,-1,0,-22,-2,-3,-1,2
1511885104580510,-2,-3,2,-8,0,-2,-1,-1
1511885104595553,0,1,-5,29,-1,-2,-2,-2
1511885104595553,-1,-1,-2,-3,3,-2,0,-1
1511885104603583,1,1,9,8,-6,-3,-1,-1
1511885104603583,-2,-2,-11,-2,2,1,-3,0
1511885104612498,-1,-1,3,-64,-8,-3,-1,3
1511885104612498,1,3,3,41,2,2,1,2
1511885104618517,0,-2,-9,-12,-3,-2,1,0
1511885104618517,-3,-4,2,1,-1,-1,-2,-1
1511885104633653,1,-1,4,47,-1,-3,0,-1
1511885104633653,-3,-1,-3,-26,-3,1,0,-2
1511885104640863,2,1,0,-15,0,0,0,0
1511885104640863,0,-3,-3,-8,6,3,2,0
1511885104655711,1,-2,-1,12,0,-1,-2,-3
1511885104655711,-5,-3,4,-19,-6,-1,1,-2
1511885104662896,3,1,-11,-15,4,3,-2,-1
1511885104662896,5,2,1,29,-2,0,0,9
1511885104671920,1,0,-3,-4,1,-3,1,-1
1511885104671920,3,0,-5,-9,1,0,-2,-3
1511885104686102,-5,0,30,-16,0,-2,-3,-3
1511885104686102,11,0,-27,14,-3,-5,-2,-4
1511885104693118,0,1,9,-13,-1,-1,-3,3
1511885104693118,-14,2,-1,9,-1,-1,1,-2
1511885104701150,-2,-2,-6,2,0,0,-5,-3
1511885104701150,-2,1,16,-4,4,-2,8,1
1511885104716212,3,4,-2,11,1,5,-1,1
1511885104716212,-8,-11,-4,-8,-2,-1,-2,2
1511885104723234,-17,-1,7,10,2,0,-1,-3
1511885104723234,20,-1,-9,-6,-2,-3,-2,8
1511885104732256,3,-5,-10,-6,-3,-7,4,10
1511885104732256,-18,4,10,-5,3,2,0,-9
1511885104746292,2,2,-9,11,-4,-1,2,-1
1511885104746292,-15,-1,5,4,-3,-2,-3,-9
1511885104753314,3,-2,3,-10,0,0,1,4
1511885104753314,15,2,-3,0,-1,1,-9,3
1511885104761334,-1,2,-3,12,-1,-1,7,-1
1511885104761334,0,-6,4,-8,-1,2,-1,1
1511885104775523,-4,6,-3,-3,1,-1,-4,-7
1511885104775523,-3,-3,-2,1,-2,-4,-2,-1
1511885104783424,5,-3,-5,7,1,-1,0,-1
1511885104783424,2,3,9,-5,-1,1,0,1
1511885104792445,-6,-5,-4,-1,1,-4,4,-2
1511885104792445,7,-1,-3,7,-2,0,1,-1
1511885104806485,5,-1,-2,-1,2,-3,-2,1
1511885104806485,-5,-3,-3,-3,-3,1,0,-2
1511885104813503,-8,0,0,-2,-4,-1,-3,-5
1511885104813503,3,3,-2,4,1,-1,0,1
1511885104820526,5,1,-1,-3,-7,-4,0,2
1511885104820526,-7,-2,2,3,4,-1,1,-1
1511885104835562,0,-1,-2,-9,-3,2,0,0
1511885104835562,6,-1,-2,2,-4,-3,-1,1
1511885104843731,1,1,-2,8,3,1,-1,-1
1511885104843731,-2,1,-1,-5,-5,-2,-4,-2
1511885104852608,0,-1,0,7,4,0,-1,-2
1511885104852608,3,-5,-2,-13,-1,-1,-1,2
1511885104866642,-8,2,-6,1,9,4,-2,0
1511885104866642,-1,-2,-3,2,-1,1,7,-1
1511885104873665,-2,2,0,1,2,2,-4,-4
1511885104873665,3,-2,-2,-13,-4,-1,-1,0
1511885104880877,0,-1,10,8,2,-5,0,-1
1511885104880877,-2,1,0,1,3,2,-1,-4
1511885104895719,-3,0,-13,2,2,5,-1,-4
1511885104895719,3,3,-3,3,-4,-3,3,1
1511885104902764,2,-2,0,13,1,3,-2,0
1511885104902764,2,2,5,-26,-8,-4,0,-1
1511885104911966,0,-4,3,4,3,0,-2,2
1511885104911966,0,0,1,-2,-2,1,1,-1
1511885104926803,1,1,-5,0,-1,2,-1,1
1511885104926803,-3,1,-9,5,2,-4,-3,-3
1511885104932818,-3,-3,11,-16,-5,-5,0,-4
1511885104932818,1,1,-7,-1,1,-1,1,-2
1511885104941045,-3,-2,-4,5,-6,0,-1,1
1511885104941045,-2,-1,5,4,7,3,-4,2
1511885104956007,-3,-1,0,-15,-2,-3,-2,-2
1511885104956007,3,-2,0,6,-2,-2,-7,-1
1511885104962901,1,0,-9,-9,-5,-1,2,-1
1511885104962901,0,-1,3,4,-1,1,0,1
1511885104972926,0,-2,-3,-2,-2,-2,0,1
1511885104972926,-3,-2,3,1,4,2,-3,0
1511885104986972,0,-5,-5,1,-2,-4,-1,-4
1511885104986972,0,2,1,-1,-3,0,-2,-2
1511885104992997,0,0,-2,10,0,2,-2,0
1511885104992997,-1,-2,0,-1,0,0,3,-1
1511885105000999,-2,-2,4,-4,-1,-3,0,0
1511885105000999,-4,-1,-10,-4,2,0,-2,-3
1511885105016080,-2,0,6,5,-1,0,0,0
1511885105016080,-5,-1,-8,5,0,-1,1,-2
1511885105023287,1,2,-2,-6,-3,0,-1,-1
1511885105023287,1,0,7,3,-5,0,-4,-1
1511885105032114,-2,-4,-6,3,-3,0,-2,-3
1511885105032114,4,0,11,-10,1,3,12,-2
1511885105046335,-1,-3,-3,8,0,0,-1,-2
1511885105046335,-4,-1,1,7,1,-1,-1,-2
1511885105053169,3,-2,-1,-4,2,1,2,0
1511885105053169,-1,2,-4,-5,4,-2,-1,-1
1511885105061351,-3,1,1,-8,0,4,-3,-1
1511885105061351,1,1,0,2,0,-3,3,1
1511885105075639,-2,1,2,3,-1,1,-1,-1
1511885105075639,-1,-1,-10,0,-2,-5,-3,-3
1511885105083640,0,-3,3,-2,1,-3,0,2
1511885105083640,-5,4,-3,0,-4,0,-5,0
1511885105092493,2,-2,-4,0,-1,-3,1,3
1511885105092493,-3,0,2,7,0,-2,-1,-3
1511885105106616,3,-1,7,-1,0,-1,1,-3
1511885105106616,-2,2,-2,-8,-1,-2,3,2
1511885105113549,-1,-2,-20,1,-1,-3,1,-4
1511885105113549,-3,-3,17,7,-3,0,-1,-2
1511885105120570,5,1,0,-1,-1,0,6,-2
1511885105120570,-3,-7,-2,-6,3,1,0,0
1511885105135650,5,1,5,6,-3,4,-2,4
1511885105135650,-11,0,1,0,1,-1,-5,1
1511885105143727,-4,-1,-1,-3,-4,0,-3,-1
1511885105143727,2,-3,-6,-4,1,-4,1,-2
1511885105158912,-2,1,-3,1,-2,0,0,0
1511885105158912,3,-5,-4,-1,1,1,0,-1
1511885105166924,-2,2,4,-4,-1,-1,-1,1
1511885105166924,2,2,-4,1,-3,1,0,1
1511885105181964,-1,-1,4,0,0,0,-3,-1
1511885105181964,4,0,-5,-5,1,-2,-1,2
1511885105181964,-2,0,0,-3,-1,-3,0,-2
1511885105181964,-3,-2,-3,1,0,0,-4,0
1511885105196322,1,-1,0,-1,0,-1,-1,-3
1511885105196322,1,0,-5,2,-1,5,2,-2
1511885105203237,-1,1,-5,0,4,1,-6,-3
1511885105203237,-2,-2,3,2,-1,-1,-3,-3
1511885105218192,-1,3,-2,-4,-2,-2,0,1
1511885105218192,-1,1,7,1,-2,-2,-1,0
1511885105226213,2,-4,-5,-1,-2,0,-1,0
1511885105226213,-1,5,12,0,2,-2,-2,-1
1511885105241364,1,-1,5,0,2,-1,0,0
1511885105241364,1,0,-8,-3,-3,2,-3,2
1511885105242253,-1,-1,-5,0,-3,-1,-3,-3
1511885105242253,1,-3,1,1,0,-3,0,0
1511885105255427,-2,0,-4,-3,-2,0,0,-2
1511885105255427,-1,-1,6,1,2,-6,-1,-1
1511885105263448,0,-1,2,-1,0,-1,3,1
1511885105263448,2,-3,-5,2,-1,0,1,-1
1511885105278493,-1,-1,0,2,-2,1,-1,-3
1511885105278493,1,0,-4,-1,1,-1,5,0
1511885105286514,1,5,6,-2,0,3,1,1
1511885105286514,1,-3,-5,0,0,0,-2,0
1511885105301732,-1,0,5,-1,0,-1,2,-3
1511885105301732,2,0,-2,0,-2,2,0,2
1511885105302760,-2,3,16,-3,-4,0,-1,0
1511885105302760,-2,-8,-32,-2,1,2,1,-3
1511885105315873,-1,1,5,-1,-5,-3,-3,-2
1511885105315873,-2,-6,5,-3,2,-2,-5,-2
1511885105322891,-1,1,-3,1,-2,0,-5,0
1511885105322891,-1,-1,0,-1,-1,2,0,-1
1511885105338055,-3,2,3,-1,-2,-1,5,0
1511885105338055,2,-2,-8,1,-1,0,3,-2
1511885105346978,1,-4,-9,-1,1,-2,3,0
1511885105346978,2,3,9,-1,-1,-1,-7,2
1511885105362040,-1,-2,-22,-1,-2,0,-6,1
1511885105362040,2,5,14,1,-1,0,-3,-1
1511885105362040,-2,-4,-15,-3,1,-2,2,0
1511885105362040,1,-1,3,1,-2,0,-1,-1
1511885105376030,1,-2,11,1,3,-3,-2,0
1511885105376030,-3,-2,-12,-2,-3,3,0,1
1511885105383051,2,-3,-11,-3,-1,0,1,0
1511885105383051,-3,5,20,1,-6,-2,-2,-2
1511885105398092,-1,0,-19,-2,0,-4,-2,-2
1511885105398092,1,1,2,5,12,0,0,0
1511885105406108,-1,1,-3,-3,-3,0,-1,-2
1511885105406108,-1,-1,10,0,-1,-3,1,-1
1511885105421150,2,-2,-6,-1,4,1,1,1
1511885105421150,-1,1,-4,2,1,-1,-2,-2
1511885105422153,-4,0,-4,2,0,1,-3,-1
1511885105422153,2,2,0,-5,1,-1,0,1
1511885105436190,-3,-1,-6,-7,-1,0,-1,-1
1511885105436190,0,4,9,0,-2,2,0,-2
1511885105443208,-1,-5,8,1,-1,-3,4,2
1511885105443208,-2,-4,-7,-1,0,2,1,-3
1511885105458444,-1,-2,-2,1,-3,-1,-2,0
1511885105458444,0,-4,-12,-3,-7,-5,-1,-2
1511885105466273,-1,2,6,3,-3,-1,-2,0
1511885105466273,2,1,9,3,-2,0,3,0
1511885105481473,-4,-4,-17,-8,2,1,1,-1
1511885105481473,0,1,0,5,-2,-2,-3,-1
1511885105482312,0,0,1,-7,-10,-3,-4,-2
1511885105482312,-3,-1,-8,-2,0,0,0,-2
1511885105495585,0,-1,5,-16,1,1,0,2
1511885105495585,2,2,0,7,-14,-4,-2,0
1511885105503507,0,-3,2,-4,2,-2,-2,-1
1511885105503507,0,1,-2,14,-2,-3,1,-1
1511885105518547,-2,0,8,-18,0,0,0,-1
1511885105518547,-3,-1,-9,8,5,2,0,-1
1511885105526689,0,3,10,-1,0,-2,-1,-1
1511885105526689,-3,-3,-13,-15,1,-2,0,-2
1511885105541608,4,1,9,5,-11,-3,0,0
1511885105541608,-3,-4,-3,3,-5,1,-1,-3
1511885105542608,0,0,1,26,11,1,-2,-1
1511885105542608,-4,-2,-1,-30,-5,0,-2,-1
1511885105555645,-1,0,7,33,4,1,0,-1
1511885105555645,-1,-2,-5,-13,7,1,2,2
1511885105563767,-1,2,-1,-49,-3,2,0,-4
1511885105563767,-1,-3,-2,22,1,3,-3,1
1511885105578851,6,2,1,7,-3,-1,-2,-2
1511885105578851,0,-5,7,4,-2,0,-4,1
1511885105586728,-1,-4,-13,-10,0,-1,-1,-2
1511885105586728,-1,2,2,-13,1,-1,0,-2
1511885105600846,-1,3,7,15,-2,-1,-1,-2
1511885105600846,-3,-6,1,0,1,1,1,1
1511885105609190,3,-1,-10,11,-5,-3,-1,1
1511885105609190,-1,-1,-4,9,1,0,1,4
1511885105616048,-2,-2,3,-5,5,0,-1,-4
1511885105616048,2,1,0,-12,-4,-7,-1,1
1511885105623168,-4,-3,-4,0,5,1,1,-2
1511885105623168,-2,-2,-2,0,0,2,-1,-3
1511885105638128,1,1,2,2,-4,-1,0,3
1511885105638128,1,2,-6,-2,3,1,-7,-2
1511885105646274,-1,-2,8,14,0,-3,6,3
1511885105646274,3,4,4,-3,-1,-1,-3,1
1511885105661276,-3,-5,-4,-28,-4,1,-1,-2
1511885105661276,1,0,0,38,-1,-3,-2,0
1511885105669296,-1,-4,5,-4,0,0,-1,0
1511885105669296,-1,2,-4,10,1,-1,0,-3
1511885105675312,5,1,-7,-12,3,3,0,5
1511885105675312,-9,-2,5,-14,-2,3,-1,-9
1511885105683472,1,2,-7,-5,-2,-1,-3,1
1511885105683472,0,-1,2,-5,0,2,-1,-1
1511885105698516,-1,-1,-6,15,3,2,-1,0
1511885105698516,6,2,-1,-22,-3,-2,0,1
1511885105705668,-10,-1,-1,1,4,2,-1,-6
1511885105705668,3,-3,-2,1,0,-3,-3,0
1511885105720613,-2,0,-1,-12,-4,0,0,-5
1511885105720613,-13,-2,7,13,-1,2,7,-2
1511885105728595,14,0,-12,-3,-2,1,-2,0
1511885105728595,-14,1,8,1,-1,0,2,2
1511885105743637,-3,-2,-11,-1,0,-2,-2,-5
1511885105743637,3,1,0,-12,2,-3,-2,2
1511885105744635,5,-2,-3,1,-1,-1,-1,2
1511885105744635,1,3,7,16,1,-1,0,-2
1511885105758766,-5,-8,-9,-1,-3,-3,-3,1
1511885105758766,0,0,5,-14,2,2,-1,-2
1511885105765695,-1,-1,-3,13,-3,1,0,1
1511885105765695,3,-5,-7,-2,-1,-2,2,1
1511885105780774,-3,-2,9,-7,3,-3,-1,2
1511885105780774,-4,1,-5,2,-1,-2,-4,-3
1511885105788796,-2,-1,1,7,-2,0,4,0
1511885105788796,0,-2,-4,-9,2,0,-3,-4
1511885105803796,4,4,2,5,0,2,0,1
1511885105803796,-3,-4,-11,2,0,-2,3,-4
1511885105804796,-6,-2,4,-4,-2,-2,-4,0
1511885105804796,3,0,-11,-2,-5,-2,-2,2
1511885105817833,2,2,8,7,2,-2,2,-1
1511885105817833,5,3,-5,-4,-2,1,-4,3
1511885105825915,1,1,9,-6,1,1,-1,1
1511885105825915,-6,0,0,-2,-1,-1,0,-2
1511885105841130,1,0,4,4,-1,3,1,1
1511885105841130,1,2,11,1,-2,-2,0,0
1511885105849323,-6,-4,-6,-3,-1,0,-4,-5
1511885105849323,2,-3,5,2,1,0,7,1
1511885105864190,-3,2,-13,1,0,-1,-2,1
1511885105864190,9,-3,10,-1,-2,-1,0,1
1511885105865192,-12,0,-8,2,-1,1,-3,4
1511885105865192,-3,-3,-5,-2,-3,-1,-10,-8
1511885105878531,-1,0,6,1,-1,-3,-2,-1
1511885105878531,4,-5,-12,2,1,-1,33,2
1511885105885365,-4,3,-2,-1,1,-3,0,-6
1511885105885365,1,-1,2,-1,-2,1,3,-1
1511885105900405,-2,-1,3,-5,0,-1,1,2
1511885105900405,5,1,5,8,0,5,-8,1
1511885105908553,7,3,5,7,1,-3,-2,-2
1511885105908553,-2,-2,-15,-1,-1,-2,2,-1
1511885105924513,5,-3,0,-1,-1,2,-3,-4
1511885105924513,-1,0,-10,-4,-2,1,2,-1
1511885105924513,-9,1,11,0,0,-4,-4,1
1511885105924513,2,-7,7,1,2,2,-7,3
1511885105938508,-4,-2,-6,-1,-4,-1,6,-3
1511885105938508,-5,-2,-14,-6,2,3,-11,0
1511885105945705,0,-2,4,-8,-6,-1,1,0
1511885105945705,2,0,7,2,1,1,0,2
1511885105960775,-1,2,0,-2,2,-4,-7,0
1511885105960775,-5,4,1,2,-3,-2,-2,-1
1511885105968927,7,2,11,-2,2,-1,5,0
1511885105968927,-1,-2,-12,2,-4,1,33,0
1511885105983968,-2,1,1,6,3,-2,1,1
1511885105983968,0,0,5,-13,-5,-1,-7,-1
1511885105984970,-1,1,1,22,-1,2,3,1
1511885105984970,1,-6,0,-9,0,-2,-9,0
1511885105998140,-1,5,-2,-1,-4,-1,1,0
1511885105998140,-1,-4,3,2,7,-3,1,-1
1511885106006355,5,3,-4,-4,-5,1,-5,2
1511885106006355,0,2,7,4,-3,-4,-5,0
1511885106021205,-1,-7,-9,-4,-3,1,-1,-2
1511885106021205,-5,0,6,5,-4,-3,-11,0
1511885106029409,-1,-13,-8,-7,-1,-2,-4,0
1511885106029409,-2,7,12,7,6,-1,-6,0
1511885106044466,-2,-2,4,-4,0,-3,0,-1
1511885106044466,-4,-3,-6,-5,-6,-2,-5,-1
1511885106045296,1,5,1,4,1,0,0,0
1511885106045296,0,-3,-2,-8,-3,-5,-28,0
1511885106058496,7,-4,-1,1,2,1,-3,0
1511885106058496,-4,5,7,2,-6,-3,-4,2
1511885106065703,5,-1,-11,-2,3,0,-1,3
1511885106065703,-1,3,3,-4,-2,0,-5,-1
1511885106080861,0,0,-8,3,0,1,-1,-2
1511885106080861,6,-2,-1,1,2,2,5,1
1511885106088805,0,-3,-9,-6,-2,1,0,-1
1511885106088805,-3,-3,2,-1,-2,-2,6,1
1511885106103845,-2,0,2,3,-1,-2,-1,0
1511885106103845,1,-1,-8,-5,4,1,7,-3
1511885106104807,-5,-1,7,0,-3,-1,-4,-2
1511885106104807,1,2,1,7,-2,-1,1,-1
1511885106117929,-4,0,3,-2,1,2,-4,-1
1511885106117929,-3,-5,1,0,4,-2,-8,-1
1511885106125948,-1,5,-9,-6,0,0,-2,-4
1511885106125948,-1,0,-7,3,-2,1,2,-2
1511885106141029,0,1,4,-1,-5,-1,-3,-2
1511885106141029,-1,0,-8,-5,-1,-1,2,-1
1511885106149051,-2,-2,2,6,1,-3,1,-2
1511885106149051,-1,5,2,-3,-2,0,3,-1
1511885106164052,-4,-1,0,-4,1,2,0,-4
1511885106164052,-2,-5,1,1,2,3,-2,1
1511885106165056,3,0,-1,-8,-2,-1,1,0
1511885106165056,-3,-6,-8,7,2,-3,-1,-3
1511885106178351,-5,-2,1,0,-1,2,20,-1
1511885106178351,1,-1,-7,1,-3,-2,-3,-1
1511885106186246,0,0,12,2,3,1,8,0
1511885106186246,1,-1,-9,-6,-2,-2,8,2
1511885106201285,1,1,4,2,1,-2,-6,-1
1511885106201285,-4,-3,-5,-2,-2,-2,-1,-2
1511885106209307,0,-1,1,-1,-1,0,1,-1
1511885106209307,1,3,-1,-5,0,-1,-5,1
1511885106224519,-3,-4,-5,0,0,-1,-1,1
1511885106224519,1,3,12,1,-2,-3,-5,3
1511885106225371,-3,-2,-14,-1,-3,0,-4,-1
1511885106225371,-4,-3,1,-2,0,4,1,0
1511885106238395,0,1,-3,0,-2,1,-4,-1
1511885106238395,1,-1,-1,0,-1,-1,3,-3
1511885106245407,-3,-4,2,1,-4,0,-3,-3
1511885106245407,0,2,-2,-2,-2,2,2,2
1511885106260623,-2,1,-3,0,-1,-1,0,1
1511885106260623,-3,-2,0,-1,0,0,-5,0
1511885106268641,3,0,-1,2,0,2,9,-1
1511885106268641,0,-2,1,0,-2,0,-4,0
1511885106284537,1,2,-9,0,0,-2,-7,1
1511885106284537,1,-5,-1,-3,2,-5,4,-3
1511885106284537,-1,-2,0,-2,-1,-1,-7,0
1511885106284537,3,-1,-10,-2,2,-2,0,-1
1511885106298572,-2,-3,5,0,1,0,3,0
1511885106298572,0,0,-4,-1,-3,-3,0,-1
1511885106305586,-2,1,2,2,1,2,-3,-1
1511885106305586,0,2,4,-3,-1,-3,-3,-1
1511885106322608,1,-3,-1,0,-2,-4,-2,-2
1511885106322608,-1,3,0,-1,-1,-1,0,0
1511885106328624,0,-4,3,-1,4,2,-2,-1
1511885106328624,-1,0,-1,-2,1,2,-1,-2
1511885106343664,-1,-1,4,-1,-4,-1,-1,-1
1511885106343664,0,1,-1,-1,-1,-1,-3,-1
1511885106344666,-1,0,-3,-1,0,-5,5,0
1511885106344666,-1,0,4,0,-1,-3,-1,1
1511885106358712,0,-3,2,-1,2,1,0,0
1511885106358712,1,3,-1,-2,-2,1,-1,0
1511885106365723,0,-4,-2,0,-1,2,-4,-2
1511885106365723,1,0,-3,0,-2,0,-3,-4
1511885106380763,-2,-1,2,-1,-1,1,1,-1
1511885106380763,-2,1,6,-2,-1,0,-1,0
1511885106388784,-1,-2,-4,0,-4,-5,-1,0
1511885106388784,0,-1,1,1,1,3,1,0
1511885106403823,0,0,1,1,2,-1,-4,0
1511885106403823,-2,-3,-2,-1,-1,1,2,-1
1511885106404828,1,0,-2,-3,-3,-2,-2,0
1511885106404828,-2,0,-3,-3,0,-2,-3,1
1511885106417861,1,-1,-2,0,-2,-3,-9,-1
1511885106417861,0,2,-6,1,0,0,-2,0
1511885106425883,-2,2,-1,-2,-3,2,1,-1
1511885106425883,-1,-1,3,-1,-2,-5,2,-2
1511885106440925,0,-1,-4,-1,3,7,0,0
1511885106440925,1,-2,-1,1,-3,-1,-3,-2
1511885106448943,1,0,0,0,1,0,0,-1
1511885106448943,-1,-4,-2,-2,2,0,-4,-2
1511885106463983,1,-1,3,1,-5,-2,0,-2
1511885106463983,0,-3,1,0,-3,0,0,0
1511885106464987,-3,1,4,-1,1,3,0,-1
1511885106464987,0,-4,-1,2,0,0,1,0
1511885106478376,0,1,2,-2,-2,-3,0,-1
1511885106478376,-1,-1,-6,0,1,2,1,-1
1511885106486291,0,-3,-1,-1,-3,-4,-4,-2
1511885106486291,-4,-2,-2,-1,0,-2,0,0
1511885106500347,-1,2,-2,1,1,-3,-7,-1
1511885106500347,0,4,4,0,-2,1,0,-1
1511885106509352,-1,0,-3,-2,0,-3,0,-1
1511885106509352,0,-3,-4,-2,-5,1,0,0
1511885106523392,-1,1,-1,-2,1,1,3,0
1511885106523392,-3,-2,0,-1,0,-2,-1,1
1511885106531411,0,2,5,0,0,-4,-7,0
1511885106531411,2,1,-2,1,-3,1,-3,-1
1511885106538432,-2,-1,-4,0,-2,-3,0,-1
1511885106538432,0,-2,-4,1,3,0,2,-2
1511885106545614,2,-3,1,-1,0,-1,-1,2
1511885106545614,-1,1,-8,-4,1,-1,1,-2
1511885106560494,0,-1,-1,0,-3,2,0,-1
1511885106560494,0,-1,-6,-1,-2,-3,0,-2
1511885106568510,-1,1,1,0,-4,-2,-3,2
1511885106568510,0,-1,3,3,3,2,10,-1
1511885106583550,-1,-3,-3,-3,-5,-4,1,1
1511885106583550,-2,0,3,0,4,3,-1,0
1511885106591655,1,-1,-4,-2,-2,1,1,-3
1511885106591655,0,-2,0,1,5,-3,-5,-1
1511885106598590,0,-1,0,-2,-1,-2,0,-2
1511885106598590,-1,0,2,1,1,-2,1,2
1511885106605737,-1,0,1,0,-2,1,2,0
1511885106605737,-1,1,-1,-2,-2,1,0,0
1511885106620720,0,-2,1,0,3,1,-1,-1
1511885106620720,2,-1,-1,-3,-1,-2,-1,-1
1511885106628846,0,0,-1,1,-1,-1,4,0
1511885106628846,3,-1,1,-1,2,-1,-2,-1
1511885106643783,-1,1,1,-1,-2,4,4,2
1511885106643783,-1,-3,0,-3,-1,-2,-2,-1
1511885106651799,1,1,-5,-2,2,3,-4,-4
1511885106651799,-1,2,7,0,-2,-1,1,-1
1511885106667035,1,-2,-5,1,0,-3,0,0
1511885106667035,-3,2,-3,0,-1,-1,0,-1
1511885106667842,1,-2,-2,0,0,-4,-1,-1
1511885106667842,0,-2,-3,-1,0,0,-2,-1
1511885106681039,3,0,0,-2,3,-2,0,0
1511885106681039,-3,0,5,1,-1,3,-1,-1
1511885106689060,0,-1,-11,0,-2,-2,-3,0
1511885106689060,-2,3,3,1,-2,-2,-3,-1
1511885106703098,-1,-3,1,-2,-2,2,2,0
1511885106703098,1,-4,-2,-4,-2,4,1,0
1511885106711302,-3,-2,1,0,2,-2,-4,0
1511885106711302,-1,1,-1,-1,-1,0,-2,-1
1511885106727399,0,1,0,1,-2,0,-2,0
1511885106727399,0,-1,1,0,0,-4,7,0
1511885106728296,0,-2,1,3,-2,2,1,-2
1511885106728296,1,-2,-2,-1,0,-3,0,1
1511885106740331,-2,1,2,1,0,-2,-1,-1
1511885106740331,0,1,-4,-2,-2,1,-3,-2
1511885106749352,-1,-1,1,-1,1,-4,0,1
1511885106749352,0,0,3,-1,0,1,2,-2
1511885106763407,-3,-4,-5,-4,-3,-2,0,1
1511885106763407,1,2,-3,0,-2,-1,-4,-1
1511885106771520,-1,-2,-1,-1,1,2,1,1
1511885106771520,1,-3,-3,0,-5,0,-4,-1
1511885106786451,-1,0,1,-1,-1,-1,-2,-1
1511885106786451,-3,-4,-3,1,-1,-2,-1,-2
1511885106787457,0,0,6,-2,-2,-2,-1,0
1511885106787457,0,3,0,-3,-2,1,0,0
1511885106800491,0,0,-1,3,2,4,8,-3
1511885106800491,0,1,0,-1,-3,-1,0,0
1511885106808618,-3,-2,2,0,0,2,-2,-2
1511885106808618,0,-1,-10,-2,-1,0,-2,2
1511885106823823,-1,0,-2,0,-1,-5,-2,-3
1511885106823823,1,1,2,0,0,-1,-2,0
1511885106831678,1,-1,0,0,-1,0,-1,-2
1511885106831678,-1,1,3,-1,-2,0,1,0
1511885106846815,-1,-6,-6,1,-2,3,-2,-2
1511885106846815,1,-1,3,0,1,1,0,-1
1511885106846815,0,-1,-2,-2,-4,-2,-1,0
1511885106846815,0,-1,-2,0,1,2,-1,-3
1511885106860918,-1,3,0,-2,-2,-6,-8,2
1511885106860918,-2,-2,0,-1,-2,2,8,-1
1511885106868800,-2,0,-4,-2,0,2,-1,0
1511885106868800,-2,-3,2,0,0,1,-2,-1
1511885106882823,-1,0,0,0,-1,0,-1,-2
1511885106882823,1,-2,-3,-1,0,-1,-3,-3
1511885106891888,0,0,-1,-1,-3,-4,-1,-1
1511885106891888,-2,-2,1,1,0,1,2,1
1511885106906885,-1,-1,-1,-1,-1,0,-3,1
1511885106906885,0,1,1,-1,0,0,-1,1
1511885106906885,-2,-1,-2,0,-2,0,1,0
1511885106906885,2,-1,-2,-2,-2,-3,-2,-2
1511885106920928,-1,-1,9,-2,1,2,2,0
1511885106920928,-1,-1,-6,-3,-3,1,-5,-2
1511885106929203,1,-1,-2,-1,-2,-1,0,-1
1511885106929203,-2,1,-3,1,1,-2,0,-2
1511885106943393,0,1,-1,2,-1,-2,-1,0
1511885106943393,-1,0,2,2,-2,-1,-1,0
1511885106951261,1,1,-2,1,4,1,1,-3
1511885106951261,-1,-1,0,0,0,-2,0,2
1511885106966301,-3,-1,1,0,1,1,1,-1
1511885106966301,0,1,-5,0,-1,-3,-3,4
1511885106967301,-2,-3,-4,-1,-1,2,9,-1
1511885106967301,-2,-2,-3,-3,1,0,-2,-1
1511885106980538,0,1,-5,0,1,-1,-2,0
1511885106980538,-2,-2,4,-2,-2,-2,1,-1
1511885106989360,-1,2,1,-1,1,0,-5,0
1511885106989360,-1,0,1,-1,-3,-2,-2,-1
1511885107003502,-2,1,1,-2,-1,-1,1,-1
1511885107003502,1,-2,-2,3,-1,3,-2,-1
1511885107011508,2,0,-1,1,2,-4,0,0
1511885107011508,0,-1,-2,1,0,-3,-1,0
1511885107026465,0,-1,0,0,0,1,-5,-2
1511885107026465,-1,1,1,0,2,1,-1,0
1511885107027463,0,0,1,-3,0,-4,-3,0
1511885107027463,-4,1,0,-2,-1,2,2,0
1511885107040620,-1,1,8,0,-1,-2,1,-1
1511885107040620,-3,-2,-7,-3,-2,-5,0,1
1511885107049521,-5,1,4,-2,-1,0,-4,-1
1511885107049521,0,-1,-2,4,2,-2,9,-1
1511885107063658,-1,2,-1,-1,-2,-1,2,-1
1511885107063658,-3,0,1,-2,3,2,1,-3
1511885107071579,0,1,-1,0,-3,-1,-2,0
1511885107071579,0,-4,1,0,-3,0,-3,-1
1511885107086624,-1,0,-4,-1,0,2,5,0
1511885107086624,2,0,-1,1,-2,-1,0,-1
1511885107087624,-5,0,1,0,0,0,-3,1
1511885107087624,-1,-1,2,-4,-2,-1,-2,-1
1511885107100777,2,-3,-4,-2,-2,-3,-2,0
1511885107100777,-4,1,1,2,-1,2,-2,0
1511885107108798,0,-1,0,1,-1,-2,3,1
1511885107108798,2,2,-1,1,0,-2,-4,1
1511885107122835,-2,-2,1,-2,3,1,-2,-3
1511885107122835,0,-1,-1,-3,1,-1,0,0
1511885107131860,1,-3,-1,0,-2,-1,-1,0
1511885107131860,-1,0,-2,0,1,-1,-1,0
1511885107147024,-2,-3,-7,2,-1,0,-1,-2
1511885107147024,0,4,6,0,0,1,-1,-1
1511885107147024,0,0,1,1,1,1,-5,0
1511885107147024,0,0,-6,-3,1,0,-4,-2
1511885107160935,0,0,4,0,3,1,-1,-1
1511885107160935,0,-3,4,-4,-5,-3,0,1
1511885107168958,-1,-4,-1,-1,0,1,0,0
1511885107168958,1,-1,4,1,-4,1,1,0
1511885107182993,-3,-2,2,0,-1,-2,-1,-1
1511885107182993,-1,-2,-5,-2,2,3,-4,0
1511885107191017,-2,1,-2,-2,0,0,1,0
1511885107191017,-3,2,0,-2,0,0,-1,-1
1511885107206096,2,-3,-1,2,-2,-1,0,1
1511885107206096,0,0,-1,-1,-1,-5,-3,-2
1511885107207061,0,-5,-4,0,-1,0,-1,0
1511885107207061,-2,-1,1,1,0,1,1,0
1511885107221218,-2,3,0,-1,-4,0,-2,0
1511885107221218,-1,1,-1,2,-3,0,2,-1
1511885107229277,-1,2,-1,0,2,2,-2,0
1511885107229277,0,0,0,-2,-2,0,-3,1
1511885107243365,1,0,-2,-3,-2,-1,0,2
1511885107243365,-2,-3,1,3,1,-1,-1,0
1511885107252388,-2,-1,0,-2,-4,-4,-3,-2
1511885107252388,0,-1,-1,1,3,4,10,-1
1511885107265525,0,-2,-1,-3,-2,3,0,0
1511885107265525,2,-1,3,3,4,-2,-2,-2
1511885107274550,1,3,1,-4,-9,-2,0,-2
1511885107274550,-4,-5,-3,9,6,0,-3,-4
1511885107280567,0,3,8,-1,-8,-3,2,1
1511885107280567,-3,-3,-3,0,-1,3,0,-3
1511885107289590,2,0,-5,5,10,4,1,1
1511885107289590,2,1,4,-9,-7,-4,-4,0
1511885107303631,-1,1,1,-2,-3,3,-1,-1
1511885107303631,-2,-6,-1,-7,6,-1,-5,-1
1511885107312691,3,2,1,2,-5,-2,1,0
1511885107312691,1,-1,-1,-3,-7,-3,-1,0
1511885107325686,-1,-3,-5,1,2,-4,0,0
1511885107325686,0,2,0,5,1,-1,0,-2
1511885107334710,-3,-3,-1,-9,-2,-3,-9,-2
1511885107334710,0,-2,-1,1,5,-1,4,0
1511885107340729,-1,-1,2,-4,-1,-3,-4,-2
1511885107340729,-4,-2,-7,-2,-1,-1,0,-2
1511885107349751,-1,0,1,-2,3,-3,-2,-1
1511885107349751,0,-1,2,-3,-5,-4,-1,2
1511885107363817,-1,-1,-6,-1,-1,2,-1,-1
1511885107363817,5,0,0,3,-3,-1,0,3
1511885107371965,-2,-2,-4,-2,-6,-5,0,-2
1511885107371965,-1,-1,-2,1,8,4,-3,-2
1511885107386128,1,0,4,-3,-7,-2,0,-1
1511885107386128,0,1,-3,5,2,2,1,3
1511885107395147,-4,-1,0,1,-1,4,2,-2
1511885107395147,-2,-2,-3,0,4,-2,-2,-2
1511885107401165,-1,1,-2,3,3,2,-6,-2
1511885107401165,4,-1,-3,-4,-8,-4,-1,0
1511885107410187,0,-3,-1,-3,-2,-1,1,2
1511885107410187,-1,2,-3,0,-1,-1,-2,1
1511885107423429,-1,-2,-3,4,2,3,0,-2
1511885107423429,-3,3,-1,-3,-3,-1,0,-4
1511885107432244,-2,2,-4,-3,-1,2,4,2
1511885107432244,-1,0,0,-2,-2,-2,-5,-2
1511885107445282,-1,-1,-1,1,-1,-4,2,1
1511885107445282,-1,-2,0,-2,3,4,1,0
1511885107454422,-2,1,2,-2,-2,0,-1,-4
1511885107454422,-1,-2,-5,2,1,-1,-1,1
1511885107461351,-1,-1,-1,-1,4,0,6,-2
1511885107461351,-4,-3,2,-2,-2,1,-2,0
1511885107469346,1,-3,2,-2,-4,-1,0,-1
1511885107469346,2,0,0,0,0,4,3,0
1511885107483391,0,1,-1,3,-2,-5,-3,-1
1511885107483391,-2,-3,-1,-1,-1,-3,-2,0
1511885107492405,-1,-2,-4,3,3,-2,-1,0
1511885107492405,1,-2,2,-4,-4,-1,-2,0
1511885107505447,-1,-2,-5,-2,4,2,-1,-2
1511885107505447,0,5,2,-5,-7,1,-3,0
1511885107514549,1,2,5,2,7,1,1,-1
1511885107514549,-2,-1,-3,-3,-2,-2,-1,-1
1511885107520482,0,1,0,2,2,-1,-2,-1
1511885107520482,0,0,-5,-2,0,-3,7,0
1511885107529503,2,1,-1,3,1,0,0,-2
1511885107529503,0,-3,2,-2,-6,-1,-1,-2
1511885107543740,-4,0,1,-4,-2,-3,-1,0
1511885107543740,0,1,2,0,-1,-3,-2,0
1511885107552569,0,-3,-2,-1,-1,-1,2,3
1511885107552569,-1,-2,-3,0,2,-1,-1,-1
1511885107565602,2,1,0,-2,-6,1,-2,0
1511885107565602,-2,0,-2,2,2,0,-2,0
1511885107574622,-2,-1,2,0,0,-3,-4,-2
1511885107574622,-3,0,2,0,-4,1,-2,-2
1511885107589666,-1,-1,-1,-4,5,-3,0,-1
1511885107589666,2,-1,-2,2,2,1,-2,-1
1511885107591750,-5,-1,-4,-2,-1,1,0,-3
1511885107591750,0,1,2,0,-1,1,-1,2
1511885107603847,-2,-3,-2,-3,-2,0,0,0
1511885107603847,-3,0,2,-3,0,0,3,0
1511885107611947,0,3,-2,1,-4,0,5,0
1511885107611947,-1,-3,4,0,0,-1,-1,-2
1511885107625906,0,-1,-4,2,1,3,-1,-1
1511885107625906,0,1,4,-3,-1,0,-1,-1
1511885107635091,-2,-2,-7,2,-1,-1,-3,-3
1511885107635091,-1,0,-3,0,-2,-1,0,-3
1511885107649125,2,-1,-1,1,1,3,0,-2
1511885107649125,-1,-3,-6,-4,-4,2,0,0
1511885107651130,-1,-1,3,2,8,2,-3,-2
1511885107651130,-1,-2,0,0,0,-3,-3,1
1511885107663356,-1,1,-2,3,2,-1,-2,-2
1511885107663356,-1,1,-3,-4,-7,-4,-3,0
1511885107672187,2,-3,2,4,5,5,0,0
1511885107672187,-1,0,-3,0,1,0,2,0
1511885107685443,-1,-1,-2,-4,3,1,-1,1
1511885107685443,-2,-3,1,0,0,2,-1,-3
1511885107694509,2,1,-2,-1,-4,-6,0,0
1511885107694509,1,-1,1,-4,-7,-2,-4,0
1511885107709431,-1,-3,0,4,5,1,-1,1
1511885107709431,-3,0,-4,1,0,1,-1,1
1511885107715448,0,1,-1,-7,-3,-2,-3,0
1511885107715448,0,1,0,1,-1,0,2,-2
1511885107723503,-1,-2,0,-4,-6,1,1,0
1511885107723503,-2,0,2,6,7,-2,1,-2
1511885107732494,1,3,1,-4,-4,-3,-2,1
1511885107732494,-1,1,-4,-2,2,2,-8,0
1511885107745568,-1,-3,7,0,4,-2,2,-3
1511885107745568,-2,0,-8,-1,-1,-1,-2,1
1511885107754548,-2,-1,3,0,-2,2,0,-2
1511885107754548,-3,-2,-1,0,-3,-3,-2,1
1511885107768589,-2,1,-5,-1,-2,-2,-2,0
1511885107768589,2,-3,5,5,3,0,-2,1
1511885107775609,-2,-1,-1,-3,-3,0,-1,-1
1511885107775609,-1,1,2,-1,-1,0,3,0
1511885107782839,0,0,-4,-6,-3,-4,-3,-1
1511885107782839,0,-1,-2,7,0,1,1,-2
1511885107791864,-3,-1,-1,2,0,3,-2,1
1511885107791864,1,-2,0,4,5,2,2,-2
1511885107805903,-3,0,3,-2,-9,-5,0,-2
1511885107805903,-2,0,0,-7,-5,0,-2,-2
1511885107814924,1,-1,0,0,4,1,0,0
1511885107814924,0,0,-4,-1,1,3,-3,-2
1511885107829139,2,-1,1,0,-2,2,-5,-1
1511885107829139,2,-3,1,-3,-1,-2,-1,-2
1511885107835983,-2,-3,-3,0,-4,0,2,-1
1511885107835983,-1,0,-3,-2,-1,-4,1,0
1511885107843032,2,-1,-6,3,-3,0,0,1
1511885107843032,-1,-2,-1,-1,1,1,0,-1
1511885107852054,2,0,4,0,2,-2,-2,-2
1511885107852054,-2,1,-3,-3,-4,-1,1,-2
1511885107866094,0,1,-2,1,3,4,2,0
1511885107866094,-1,2,0,-1,-2,-3,0,1
1511885107875119,-2,-5,3,1,1,-3,-2,-2
1511885107875119,-1,-5,-6,0,2,4,2,-2
1511885107888198,-1,1,4,-2,-4,-3,-1,-1
1511885107888198,0,1,-3,1,-1,1,-2,1
1511885107897204,-2,-3,1,2,-4,-3,-1,-2
1511885107897204,1,3,-2,1,5,3,1,-1
1511885107903223,-1,-1,-5,0,2,-2,-2,1
1511885107903223,0,-1,-1,-3,-2,-3,0,-2
1511885107912244,-1,1,-5,-3,1,3,1,1
1511885107912244,1,-2,0,2,-2,-2,1,-1
1511885107925470,-1,0,-3,-2,-1,-4,-2,-3
1511885107925470,2,-4,-1,0,-3,-4,-5,-1
1511885107934519,0,0,-1,0,1,-3,0,0
1511885107934519,-1,-2,2,0,-2,-1,-1,0
1511885107948688,-2,-3,-2,-2,-4,0,1,2
1511885107948688,0,-1,-2,-6,0,0,0,-2
1511885107956783,0,0,1,2,-3,0,-1,-1
1511885107956783,-1,1,-2,-4,-2,-3,-2,-3
1511885107962823,-1,-3,1,-1,-2,1,-1,-1
1511885107962823,-3,1,3,6,8,-1,-1,-2
1511885107971912,0,0,-1,-1,0,2,-2,0
1511885107971912,0,-2,2,-2,-1,-5,-4,1
1511885107985863,-1,-1,-3,-3,-2,-1,1,-2
1511885107985863,-1,-1,1,4,-1,0,-2,-1
1511885107994884,1,-1,-4,-7,1,0,-3,-3
1511885107994884,2,-3,1,-5,-4,-1,1,-1
1511885108009045,-2,1,-3,4,3,3,-2,-1
1511885108009045,0,-3,-2,3,-1,1,1,0
1511885108015999,-1,0,-5,-2,-2,-2,1,3
1511885108015999,1,-1,1,-3,-4,0,0,-1
1511885108023149,-2,-1,2,-2,-4,-2,-2,-1
1511885108023149,0,-4,3,2,-4,0,2,0
1511885108032042,4,-1,0,-3,-8,-7,-1,0
1511885108032042,-6,-2,-2,2,6,3,-2,-4
1511885108046119,1,0,-1,-5,-1,0,-2,-1
1511885108046119,0,-1,0,-5,-6,-2,-2,1
1511885108055119,-2,-2,-3,1,3,2,1,2
1511885108055119,-1,-2,-1,0,2,1,1,1
1511885108069183,-1,3,2,2,-2,-2,2,-2
1511885108069183,-1,-2,1,-4,-1,-1,-1,-2
1511885108075157,-1,0,-2,0,0,-3,-2,0
1511885108075157,0,0,-1,3,-1,0,1,0
1511885108083379,1,-6,-2,-11,0,0,-1,1
1511885108083379,-4,0,-1,5,-1,-3,-1,-3
1511885108092200,-2,1,4,5,-1,0,-1,-2
1511885108092200,-2,1,-4,5,-2,-2,-2,0
1511885108106304,1,-4,-2,-2,2,-3,-1,0
1511885108106304,1,4,-2,-8,-2,4,0,0
1511885108114434,-2,-1,1,-2,-2,-1,0,0
1511885108114434,0,0,1,-1,-4,-3,2,-2
1511885108128395,0,-1,1,4,0,-1,1,1
1511885108128395,1,0,-2,-2,0,0,0,-2
1511885108137319,-3,-3,-2,7,-5,1,-1,-2
1511885108137319,1,-1,2,-5,9,0,0,0
1511885108143460,-1,1,-7,4,-4,-1,-2,3
1511885108143460,1,2,4,-2,-2,-3,-2,1
1511885108152359,-2,1,-3,-4,2,1,0,-2
1511885108152359,-1,-5,-5,1,-3,-4,-2,2
1511885108165395,-2,0,7,4,1,-1,2,-3
1511885108165395,0,-2,-3,-2,2,2,-1,0
1511885108174429,2,1,5,-3,1,2,-2,-1
1511885108174429,1,-3,-1,-5,-10,0,-1,-2
1511885108188493,-3,3,2,8,17,1,-2,0
1511885108188493,-2,0,0,-4,-4,-2,1,0
1511885108197481,0,0,-5,-1,0,-1,0,-3
1511885108197481,0,-3,3,2,2,2,0,-1
1511885108203520,0,2,-4,-5,-7,-3,0,-2
1511885108203520,-1,-1,-1,7,3,0,2,0
1511885108212519,1,-1,-3,-6,-2,-2,-1,1
1511885108212519,-2,-1,0,4,-3,-1,-1,2
1511885108225678,-1,0,-1,0,0,1,0,-3
1511885108225678,1,-1,-2,0,-1,0,-2,-1
1511885108234584,0,-1,2,-1,-3,-3,1,-1
1511885108234584,-4,1,5,-3,5,3,0,-1
1511885108248658,1,-3,-4,-4,-6,-1,1,-2
1511885108248658,-1,-1,-2,4,-2,1,-1,1
1511885108257642,2,2,-2,-6,-4,-2,-1,0
1511885108257642,1,0,-3,4,2,1,-2,-2
1511885108263726,-2,-2,1,13,3,1,-1,-1
1511885108263726,1,-1,2,-5,2,-1,0,-2
1511885108272680,-1,0,-3,12,-7,0,0,1
1511885108272680,-1,-1,-1,-10,1,-4,-1,1
1511885108285714,0,-2,0,-18,-5,2,-2,0
1511885108285714,-1,-2,-3,5,0,-1,0,-2
1511885108294737,-2,1,-3,-9,3,2,0,0
1511885108294737,-1,2,1,3,-3,0,-3,-3
1511885108308821,0,-1,-2,-5,-4,-3,-1,1
1511885108308821,-2,-2,-1,-7,5,-1,-1,0
1511885108316796,-2,-2,3,-7,0,-1,-1,-1
1511885108316796,1,1,-2,-10,-4,-4,-2,0
1511885108331961,1,-4,-4,17,2,3,-2,-3
1511885108331961,0,1,-4,-18,-3,-1,-1,-1
1511885108333842,-1,0,-1,-4,-1,-1,-1,1
1511885108333842,2,2,1,27,-3,-2,-1,-1
1511885108345911,0,0,0,11,-2,-2,1,0
1511885108345911,0,-3,-1,-16,-2,0,-1,1
1511885108354942,-3,-3,-3,-16,3,3,-1,-4
1511885108354942,1,0,1,20,-4,-2,0,1
1511885108367937,-1,-1,1,-4,-3,0,0,-1
1511885108367937,-2,-2,-4,-12,-1,1,-1,-2
1511885108376958,1,3,7,17,3,-2,-2,2
1511885108376958,-1,0,-2,0,2,2,-1,-2
1511885108382972,-2,1,-1,-1,0,2,-1,-2
1511885108382972,-3,-2,2,-19,-5,0,-1,-1
1511885108392039,-3,-1,-4,35,-1,-2,-1,-3
1511885108392039,2,3,2,-13,-3,1,1,-1
1511885108406036,-1,-2,2,26,1,-1,0,0
1511885108406036,1,-1,-1,-16,1,-1,2,1
1511885108415262,1,-2,-1,6,-2,-1,0,-3
1511885108415262,-2,-1,-4,0,-2,-1,1,1
1511885108428543,-1,2,3,-8,-1,-1,1,1
1511885108428543,0,-1,-1,1,0,0,-1,-1
1511885108437392,-1,-5,0,14,2,-5,1,0
1511885108437392,0,1,0,-38,-3,2,-1,-2
1511885108443419,1,1,-4,-24,-2,-2,-2,0
1511885108443419,0,0,0,38,-2,0,-2,0
1511885108452432,1,-4,9,8,-1,0,-1,0
1511885108452432,0,-2,-11,-3,2,0,-1,0
1511885108465524,0,1,12,-9,-2,0,1,-1
1511885108465524,1,3,-5,-29,-2,0,-2,-2
1511885108474554,1,-1,6,11,-2,0,-2,2
1511885108474554,-1,-5,0,-25,3,0,1,-3
1511885108488645,-2,2,6,34,0,-2,-1,1
1511885108488645,-1,-1,-5,-3,-3,2,0,0
1511885108497719,-2,0,-2,-22,-1,1,-1,-1
1511885108497719,0,1,0,26,-5,-4,0,1
1511885108503745,-2,-5,-5,-19,1,-2,-1,-2
1511885108503745,1,-1,7,24,3,0,-3,1
1511885108512753,-4,-2,-20,-39,2,-1,-1,0
1511885108512753,0,-1,6,3,-4,-1,-1,-1
1511885108525787,0,-2,-2,2,-3,1,1,0
1511885108525787,1,1,-1,12,-2,-1,1,0
1511885108534811,0,-4,1,22,2,-2,0,-3
1511885108534811,0,-2,-4,-11,-2,-5,-1,1
1511885108547846,0,3,-6,-1,-3,-1,0,2
1511885108547846,-3,-5,5,6,-1,0,-2,0
1511885108556896,-2,-2,-7,-12,-2,0,-3,-5
1511885108556896,2,-1,-1,2,1,1,-1,-1
1511885108571936,-1,-4,6,4,3,1,-3,-1
1511885108571936,0,1,-19,-10,-3,-4,4,2
1511885108573915,7,8,2,-2,-2,0,-1,1
1511885108573915,-10,-3,3,6,-2,1,0,-3
1511885108585947,-1,-1,-13,-49,1,0,-3,0
1511885108585947,-5,-5,10,38,1,-1,-6,-3
1511885108594970,-1,1,-1,-7,-1,2,1,1
1511885108594970,1,1,-2,-1,0,2,-2,-4
1511885108608004,-10,-4,6,4,-2,0,-1,0
1511885108608004,-4,2,4,-14,-1,1,1,-1
1511885108617029,-3,-4,-9,-3,1,1,-1,-3
1511885108617029,15,0,3,-1,0,2,-5,0
1511885108632072,-1,-3,-13,8,2,-2,4,5
1511885108632072,0,-3,14,4,0,-2,0,-2
1511885108634122,2,2,13,-6,-3,-1,1,2
1511885108634122,-8,3,-16,10,2,4,0,3
1511885108646246,-6,-3,1,0,-2,0,0,-7
1511885108646246,9,-1,-3,1,-3,1,-4,-15
1511885108655251,2,3,-4,-3,1,1,3,40
1511885108655251,-2,-4,9,-1,3,1,3,0
1511885108668166,6,1,2,6,1,1,0,2
1511885108668166,-31,-7,-5,-3,-2,-3,-11,-8
1511885108677190,-20,2,1,-4,-4,2,29,-23
1511885108677190,-2,-2,-6,3,3,3,1,3
1511885108692359,2,-8,0,-3,-1,-1,-9,-11
1511885108692359,9,3,-4,-2,-5,-5,-10,5
1511885108694265,-13,-4,0,1,2,2,-14,-4
1511885108694265,-5,2,3,2,1,-4,13,7
1511885108706290,1,2,-4,-3,-5,1,-14,1
1511885108706290,4,-3,-3,-3,7,5,20,0
1511885108714395,7,-1,-2,-7,-3,-6,-21,-3
1511885108714395,-2,-5,-2,30,1,10,9,-4
1511885108728370,1,3,1,-23,-2,-7,1,3
1511885108728370,2,4,-2,15,2,-3,-23,6
1511885108737349,4,-2,-1,-8,4,10,23,-6
1511885108737349,0,-2,4,20,0,-6,-20,-4
1511885108752392,0,-5,-3,-9,1,4,-2,1
1511885108752392,0,4,1,5,-2,-1,7,1
1511885108753397,2,-5,-2,-29,-1,-3,-9,-5
1511885108753397,-4,-2,-2,17,0,-5,-3,-2
1511885108765426,-1,-1,3,18,-6,1,9,6
1511885108765426,5,-2,2,18,1,-6,-11,1
1511885108774457,-1,-1,-2,6,0,1,0,-6
1511885108774457,3,3,-1,-24,-9,3,0,3
1511885108788594,-2,0,-4,-11,-5,-3,-4,-3
1511885108788594,-1,-5,-3,-19,1,4,10,0
1511885108796784,-2,-1,4,21,-5,-5,-7,-2
1511885108796784,5,-1,-8,-30,-9,-8,-17,-1
1511885108811845,-3,1,10,11,20,4,2,-6
1511885108811845,5,-2,-12,8,-8,-5,2,2
1511885108813746,4,2,-3,-3,-6,0,-1,4
1511885108813746,-1,-3,4,-17,4,-1,-10,-7
1511885108825937,-1,1,1,33,-3,0,-3,-1
1511885108825937,-2,1,-2,-16,-5,-2,5,2
1511885108834941,-2,-2,-8,3,10,0,-6,0
1511885108834941,3,2,1,-7,-6,-1,0,-2
1511885108848052,2,-1,-1,-8,-3,0,9,-1
1511885108848052,-1,1,0,5,6,7,3,-1
1511885108857082,6,-6,4,9,-3,-1,-2,-1
1511885108857082,-10,0,2,-7,-2,-3,1,-2
1511885108872118,4,-1,-6,-5,-3,1,-1,4
1511885108872118,2,-1,2,-7,0,-1,-10,0
1511885108874302,-2,-3,3,3,-3,-2,-6,-2
1511885108874302,-1,2,2,13,3,-2,1,1
1511885108886172,1,2,-2,-20,0,1,-1,2
1511885108886172,-4,-3,-1,18,-3,-2,9,-2
1511885108895192,0,-2,-1,-12,-2,-1,-9,0
1511885108895192,-2,2,-2,0,0,0,7,-2
1511885108908343,-7,-4,-3,-4,0,-7,-8,-4
1511885108908343,5,3,2,-8,0,0,-3,2
1511885108917251,-4,1,-2,1,-2,-2,1,-4
1511885108917251,-2,-4,2,-1,-1,2,0,-2
1511885108932292,3,0,6,2,3,1,-6,-3
1511885108932292,-10,-3,-10,-5,1,1,32,-1
1511885108933297,-2,4,2,10,0,0,1,1
1511885108933297,2,-1,-1,-22,1,-3,4,1
1511885108945326,4,3,0,10,0,0,0,0
1511885108945326,1,3,5,0,-2,5,-7,2
1511885108954353,0,-1,0,0,6,-1,12,-4
1511885108954353,-1,1,-8,-3,-2,-3,-2,2
1511885108968390,-3,2,-1,1,-1,2,1,-2
1511885108968390,-3,-2,-2,-3,0,-4,-6,-3
1511885108977411,2,5,2,-8,-3,-4,-3,1
1511885108977411,0,-5,-1,4,0,-1,-8,-1
1511885108992628,-1,3,-6,13,-1,-2,2,3
1511885108992628,0,-5,-2,-3,-1,3,3,-2
1511885108993459,-2,2,3,16,-2,0,-9,-1
1511885108993459,1,3,-1,-13,-3,0,5,-4
1511885109005489,-1,-2,-9,-4,-4,-3,4,-2
1511885109005489,0,6,11,1,0,-1,-7,-1
1511885109014652,4,-6,-2,0,-1,-1,-6,2
1511885109014652,5,6,-2,19,2,1,4,3
1511885109028775,-6,-5,6,-7,-3,-2,-5,-4
1511885109028775,0,4,2,2,0,-3,-9,0
1511885109036713,-1,-1,-5,-11,-2,-2,3,1
1511885109036713,-1,-2,2,1,-2,-1,1,0
1511885109052081,1,3,-1,8,-2,1,-21,1
1511885109052081,-1,-3,-1,-15,4,-3,-2,-2
1511885109053931,1,-1,-4,1,0,1,0,0
1511885109053931,0,-2,-4,5,-1,0,2,1
1511885109066070,2,-3,1,-7,-2,-2,-3,0
1511885109066070,-1,-5,2,-3,1,0,0,-1
1511885109074987,0,-3,-2,2,3,0,-4,-2
1511885109074987,-2,-3,-3,-5,-1,-2,-2,-5
1511885109088059,-1,-1,1,-2,-1,1,7,-2
1511885109088059,0,-2,-7,6,12,7,-2,0
1511885109097046,-4,-5,1,1,-2,0,3,1
1511885109097046,-1,0,2,0,2,-2,-1,-3
1511885109112086,1,0,2,-3,-5,1,5,1
1511885109112086,-1,-3,-13,-3,-2,-1,25,-1
1511885109114091,4,3,-3,4,0,2,-1,-1
1511885109114091,-6,-2,-6,-4,-1,3,-6,1
1511885109126122,3,2,9,-1,2,1,-1,0
1511885109126122,0,1,5,1,-3,-1,-7,-2
1511885109135147,-3,-1,-1,-1,-1,0,-1,-1
1511885109135147,-2,-2,1,0,-3,-1,8,2
1511885109148181,-2,2,-2,3,6,3,6,0
1511885109148181,4,0,0,-7,-4,-5,-31,0
1511885109157205,1,-1,1,-1,-1,-3,-2,-2
1511885109157205,-1,3,-5,0,0,1,-7,-5
1511885109172248,-1,-10,-5,-2,-3,-1,2,-1
1511885109172248,0,1,0,-3,-6,0,-3,2
1511885109173251,-3,-1,1,-2,-2,0,-1,-1
1511885109173251,2,0,3,7,10,1,-4,-2
1511885109185282,2,2,-5,-3,2,-2,3,0
1511885109185282,-4,0,-6,-1,-5,-4,1,0
1511885109194495,-2,1,0,-3,-6,4,3,0
1511885109194495,0,-3,2,3,2,0,2,-1
1511885109208533,-2,2,-4,-13,-18,-3,34,1
1511885109208533,-1,2,3,9,-2,2,0,-1
1511885109217365,0,-1,-4,4,6,-4,-2,2
1511885109217365,1,4,3,-1,3,0,-4,-1
1511885109232406,-7,-2,2,-3,-4,0,-9,-4
1511885109232406,-1,-1,-1,1,0,-3,2,-2
1511885109233408,0,-1,-3,-8,-8,-4,2,5
1511885109233408,-1,3,-9,-1,-4,0,4,-2
1511885109245543,5,-2,7,7,3,-1,-6,0
1511885109245543,-2,2,9,-1,2,-1,1,0
1511885109254463,3,-1,-12,-3,-3,-3,-3,-4
1511885109254463,-1,-1,3,-5,-4,-1,4,3
1511885109268501,-2,1,-1,-5,-5,-5,-6,-2
1511885109268501,-2,-4,3,5,12,4,29,-2
1511885109277525,-2,-2,0,-4,-2,0,3,1
1511885109277525,2,-5,-11,2,1,-4,-1,2
1511885109292564,1,5,7,5,1,2,-4,0
1511885109292564,0,-5,-3,-2,1,2,-6,-1
1511885109293567,-3,1,-4,-15,-11,-5,-2,-3
1511885109293567,-3,-5,4,12,14,5,5,1
1511885109305797,1,0,-10,8,0,-2,-3,3
1511885109305797,1,-5,3,-5,2,-1,-7,-2
1511885109314876,-2,2,3,-11,-5,0,1,-2
1511885109314876,-2,1,5,-12,-5,-2,-7,-4
1511885109328119,-3,-2,-7,23,10,-3,-3,0
1511885109328119,0,3,-2,-23,-10,1,-2,1
1511885109336963,1,-1,0,24,3,1,-1,-2
1511885109336963,-1,-3,3,1,-4,-3,0,-2
1511885109352006,-3,-2,-4,4,9,6,-3,-4
1511885109352006,2,2,2,0,-7,-2,-2,1
1511885109354012,0,-1,5,-15,-5,0,0,1
1511885109354012,0,3,2,-10,14,-1,2,4
1511885109366099,-1,-2,-3,7,-4,1,-3,1
1511885109366099,-2,-1,0,16,-3,-3,-6,-2
1511885109375207,-1,-4,-4,-12,-5,0,-7,-3
1511885109375207,0,0,6,16,6,-3,2,-2
1511885109388321,-1,0,1,-11,15,2,-1,-3
1511885109388321,1,-2,0,-20,-6,-4,-3,1
1511885109397387,-2,0,-5,9,7,2,1,0
1511885109397387,0,0,-3,-2,-11,-1,1,3
1511885109411682,-2,-3,4,-14,-5,-4,-1,-1
1511885109411682,0,2,-2,26,7,3,-1,-2
1511885109418536,0,-3,3,-33,8,3,0,0
1511885109418536,-3,-2,1,17,-4,2,-2,1
1511885109425679,0,2,0,0,-4,-2,3,-1
1511885109425679,2,-4,-17,-8,3,-1,-1,-2
1511885109434702,0,2,1,0,-2,-1,2,-1
1511885109434702,-1,-6,1,-1,-4,2,-1,-3
1511885109448736,1,-1,-3,-20,-4,0,-4,1
1511885109448736,0,-3,-1,-2,-4,-2,3,1
1511885109457761,-2,5,1,3,3,-3,-1,1
1511885109457761,3,-2,-3,2,-6,-4,1,1
1511885109471797,-3,-1,1,22,3,4,0,0
1511885109471797,-2,-3,-2,-10,-6,-4,-4,-3
1511885109477817,2,-5,-1,22,7,1,3,-2
1511885109477817,-2,-2,-1,-8,-4,1,-3,-2
1511885109494171,2,0,3,-4,-11,-4,0,5
1511885109494171,-4,2,6,-2,2,3,-3,-3
1511885109496173,5,-2,3,22,3,-1,-8,1
1511885109496173,-2,2,-9,-15,-1,-2,0,-4
1511885109508392,-2,-8,-4,-18,-1,1,-2,-2
1511885109508392,-8,0,3,15,0,2,0,3
1511885109517238,2,-1,-4,-4,0,-2,0,1
1511885109517238,-6,3,-4,-3,0,3,-2,1
1511885109531395,0,-2,0,-8,-2,-2,-1,-1
1511885109531395,1,-2,-4,0,-2,-3,0,-1
1511885109538289,-3,3,1,16,1,2,-1,-2
1511885109538289,-1,-2,1,-27,-4,-5,0,2
1511885109554440,0,-2,0,-7,3,-1,1,-1
1511885109554440,-2,0,8,21,-1,0,-4,-1
1511885109556333,-4,-3,-7,-3,-2,-2,1,-1
1511885109556333,0,-1,-2,-15,1,3,0,-2
1511885109568506,4,1,2,13,0,-3,-3,-2
1511885109568506,-6,-1,-7,-20,0,1,0,-5
1511885109577681,4,3,0,1,-1,0,-1,1
1511885109577681,-2,-2,1,-20,-2,2,-1,-2
1511885109591693,-3,-2,-1,16,-2,1,-1,0
1511885109591693,4,-9,-11,-1,0,-1,9,-1
1511885109597890,-4,2,4,2,0,1,-2,-2
1511885109597890,3,1,0,-3,3,-2,-2,1
1511885109614907,-4,4,-9,5,-1,3,0,-2
1511885109614907,5,3,6,1,-4,-2,-3,3
1511885109615908,-3,-6,-2,-3,3,2,1,-3
1511885109615908,2,-3,-3,14,0,-3,1,0
1511885109628131,-1,0,5,-13,-2,1,2,1
1511885109628131,-1,0,-18,13,0,-3,-5,1
1511885109636963,8,0,8,-7,-1,2,-1,-1
1511885109636963,-13,-5,-5,13,-2,-1,-3,-2
1511885109651003,6,0,-1,1,1,-3,0,-2
1511885109651003,-3,-2,3,-22,0,-2,-3,-3
1511885109658023,-6,1,-4,4,-1,-1,-1,0
1511885109658023,9,0,-1,13,0,-3,-2,-2
1511885109675132,0,-2,-3,-8,2,-1,-3,2
1511885109675132,-7,6,-1,-3,-6,1,8,-1
1511885109676068,5,0,1,5,2,-1,0,-4
1511885109676068,2,3,3,-1,-3,-3,-3,0
1511885109688253,-12,-1,-4,-6,1,-3,-1,-6
1511885109688253,3,-3,4,1,-2,-1,1,4
1511885109697445,-3,-3,-1,1,-2,1,-1,0
1511885109697445,2,0,-3,-5,0,-2,1,-3
1511885109711550,8,-2,2,2,-1,-3,-1,3
1511885109711550,-7,-1,2,4,3,-2,-1,-3
1511885109718473,-4,-3,-3,-8,-3,-6,0,2
1511885109718473,-2,1,9,7,-2,9,8,-6
1511885109734692,-8,2,-7,0,0,2,-2,-1
1511885109734692,11,-8,6,1,1,0,-1,0
1511885109736605,-3,-1,-2,-2,-2,-1,3,1
1511885109736605,12,5,-4,2,-3,-4,-6,0
1511885109748643,-10,-5,-4,3,0,-2,1,-6
1511885109748643,-2,1,-3,-6,3,4,-1,-1
1511885109757694,2,-2,1,0,1,0,-9,2
1511885109757694,7,1,1,4,2,-2,-10,1
1511885109771737,0,-4,3,-4,-1,-3,-4,0
1511885109771737,-3,5,-2,3,1,-1,0,3
1511885109778739,1,-7,0,2,-1,-1,-1,-4
1511885109778739,-4,-1,-6,-2,0,3,2,1
1511885109794797,14,2,4,-2,-2,-2,0,2
1511885109794797,-20,-1,6,2,-4,4,-14,-3
1511885109795760,5,-2,-16,-2,-2,-10,-6,2
1511885109795760,-16,-4,5,-2,-2,-6,-1,-3
1511885109807832,2,-9,-6,2,-1,0,5,3
1511885109807832,19,15,16,0,-1,-1,3,0
1511885109816818,-4,-13,-9,-4,0,0,3,-1
1511885109816818,1,-5,-3,-2,0,4,1,1
1511885109831858,1,6,-2,-7,-4,-2,-6,0
1511885109831858,4,-5,1,7,7,1,2,-1
1511885109837912,-5,8,6,-6,-3,-2,1,-3
1511885109837912,-2,-5,12,7,-13,-4,-27,0
1511885109854917,4,0,-6,2,4,1,10,4
1511885109854917,0,-5,-10,-23,-16,-3,-2,-3
1511885109855920,-3,13,11,27,23,9,2,-2
1511885109855920,-2,-7,-7,-10,-4,0,0,3
1511885109868077,0,-5,4,13,7,0,-1,-4
1511885109868077,-2,1,-6,-4,0,-8,0,-1
1511885109877067,0,6,-1,-5,-10,6,-9,-2
1511885109877067,-1,-2,-7,1,5,-3,9,-2
1511885109891139,1,2,8,-4,-2,4,0,0
1511885109891139,-2,-9,-21,0,-1,-2,0,6
1511885109898117,-4,-1,3,-2,-3,-1,2,-7
1511885109898117,1,2,-1,-6,3,-2,5,2
1511885109915189,-8,-2,6,4,-9,1,-10,-3
1511885109915189,2,1,-5,4,5,-2,-12,0
1511885109916163,4,-2,2,-12,-9,1,1,2
1511885109916163,1,-5,-4,9,4,-2,7,0
1511885109928377,0,1,-8,-6,-5,-8,-4,-1
1511885109928377,-3,0,2,1,3,1,3,0
1511885109937218,0,-5,-1,1,4,-3,3,1
1511885109937218,-1,3,2,-10,-6,3,-1,-2
1511885109951259,-5,0,1,3,-5,-3,0,-1
1511885109951259,10,-2,0,9,5,1,1,2
1511885109958302,-3,-1,2,-3,3,0,6,-1
1511885109958302,1,-1,-1,2,-3,2,-1,1
1511885109974368,-1,0,-4,-1,2,-2,-2,-3
1511885109974368,0,-1,3,-5,-1,1,2,-3
1511885109976327,-6,-2,-2,-2,-4,0,0,4
1511885109976327,-2,3,-3,-1,2,-6,1,0
1511885109988357,1,-1,1,-1,-1,-1,3,1
1511885109988357,1,-2,3,-2,0,-1,1,-2
1511885109997380,-2,-4,1,2,2,-4,-3,0
1511885109997380,-1,3,11,4,3,-3,1,-1
1511885110011416,-1,1,-14,-7,-3,-1,1,-1
1511885110011416,-1,0,7,2,-1,6,1,0
1511885110018437,2,-4,-3,1,-6,-4,-6,-5
1511885110018437,-4,-1,-1,4,7,2,2,-2
1511885110034597,0,1,1,-4,2,1,-2,-1
1511885110034597,-4,-3,-3,2,-3,-6,-2,0
1511885110036484,1,1,-2,-3,-6,0,2,1
1511885110036484,-2,-3,0,1,-2,-1,2,-2
1511885110048536,0,1,0,0,3,3,-1,0
1511885110048536,4,1,-6,2,-2,-2,0,0
1511885110057567,-2,1,3,0,-3,-3,0,0
1511885110057567,-2,-1,-4,-2,1,3,-1,0
1511885110071614,-2,-3,2,0,-2,0,-2,0
1511885110071614,-3,-3,-3,-2,-4,1,0,-4
1511885110078638,0,1,-1,1,0,1,0,-2
1511885110078638,1,-1,-2,0,0,-2,0,2
1511885110094679,1,-3,3,0,1,-2,-5,-1
1511885110094679,-7,-1,1,1,-2,0,-1,-3
1511885110096643,6,-3,-2,-12,1,-2,-2,4
1511885110096643,0,4,12,9,-4,2,1,-2
1511885110108700,-1,2,-2,2,2,3,1,-1
1511885110108700,-1,-1,-3,-3,3,-5,-2,-2
1511885110116790,-1,1,-3,1,1,1,9,-2
1511885110116790,1,-2,-5,-4,3,3,0,-2
1511885110131867,1,-1,2,-1,-1,1,1,-1
1511885110131867,-2,-1,3,0,-4,-3,-3,-1
1511885110137893,-1,1,1,1,0,1,1,-1
1511885110137893,-3,-3,-3,-1,-4,-3,-3,1
1511885110154977,1,-6,2,0,1,-2,1,0
1511885110154977,-4,3,-12,-5,2,4,2,1
1511885110155980,1,-3,-1,1,0,-2,-2,-2
1511885110155980,-2,-1,-3,-1,-2,1,2,-2
1511885110168293,0,5,6,2,2,-4,-6,-3
1511885110168293,1,-4,-7,-2,1,3,1,-1
1511885110177208,0,-1,-3,2,-1,-1,-6,1
1511885110177208,1,2,-1,-3,0,-1,-3,1
1511885110191247,-2,-2,3,-2,-5,3,1,-3
1511885110191247,1,1,3,-2,-1,0,-2,-1
1511885110198264,-2,0,0,0,-3,-3,-1,-1
1511885110198264,-2,-5,3,-3,-2,2,0,0
1511885110214305,-4,0,-3,0,4,1,2,-1
1511885110214305,3,1,4,1,1,2,-1,-2
1511885110216310,0,-2,-1,0,-1,1,-3,2
1511885110216310,-6,-3,-1,0,-4,-4,-4,-1
1511885110228356,-1,0,-3,-3,-6,-4,-4,1
1511885110228356,0,-1,-6,-1,-1,1,2,-1
1511885110237367,-1,3,8,3,0,3,-1,-2
1511885110237367,2,2,-8,0,1,1,0,0
1511885110251431,-1,-2,-1,-1,-3,-3,0,0
1511885110251431,-2,1,5,-4,1,-5,-7,-1
1511885110258586,0,-3,-2,1,-2,0,0,0
1511885110258586,1,1,0,2,-3,-4,-3,1
1511885110274620,-1,-1,-2,1,3,4,3,2
1511885110274620,0,0,3,-1,-5,0,0,-4
1511885110276577,-2,-1,2,-2,1,-3,2,-3
1511885110276577,1,-2,-4,-3,-2,4,-1,-1
1511885110288605,0,1,1,0,-1,2,-3,-2
1511885110288605,-2,0,-9,-1,-3,-4,0,-1
1511885110297629,-1,-1,-3,-2,-2,-2,0,0
1511885110297629,2,-3,-1,-1,1,-2,-3,-1
1511885110311669,-1,0,1,1,4,3,2,-1
1511885110311669,0,-1,3,1,-2,-1,-2,0
1511885110318695,-3,-3,-3,-4,0,2,-1,-1
1511885110318695,0,3,-2,-1,0,-2,-4,-3
1511885110333728,-1,-3,-3,2,-1,-4,3,1
1511885110333728,2,2,1,2,3,-4,-8,3
1511885110340746,1,3,-3,0,2,1,1,-1
1511885110340746,-1,-1,1,0,3,1,1,-2
1511885110347762,0,-1,0,-5,-4,-4,-2,-2
1511885110347762,-3,-3,1,-2,0,-1,0,0
1511885110356983,-1,1,3,-5,-3,-2,-3,0
1511885110356983,1,-2,0,3,2,1,1,0
1511885110371911,2,1,0,-1,-3,-3,-1,-1
1511885110371911,2,2,3,2,1,4,7,-1
1511885110377947,0,-3,-1,-1,0,0,1,2
1511885110377947,-2,1,-3,-4,-1,1,3,0
1511885110394041,0,-4,-4,-1,-2,-2,-4,-1
1511885110394041,-1,-2,2,-2,-5,-1,-2,0
1511885110400930,0,-2,0,0,1,0,2,0
1511885110400930,0,0,7,0,1,-1,-1,-1
1511885110407997,3,-1,-10,-1,-2,0,-4,0
1511885110407997,1,2,5,1,5,1,-2,0
1511885110417016,0,0,1,-2,-3,-1,-2,-1
1511885110417016,-3,1,-1,-1,-1,1,1,-1
1511885110431057,-2,-1,4,-4,0,-2,-1,0
1511885110431057,-3,1,-3,-2,-1,-4,2,-2
1511885110438075,-2,-1,2,-1,3,2,1,-1
1511885110438075,0,0,-4,-3,-5,-5,-3,0
1511885110454118,1,1,4,0,-1,3,3,3
1511885110454118,0,-3,0,3,0,0,-3,2
1511885110461330,-3,0,2,1,0,0,0,-1
1511885110461330,-1,-3,-4,-3,-5,-2,0,1
1511885110477176,-2,-2,-3,1,1,-1,-5,-5
1511885110477176,-1,-2,0,2,5,0,4,-1
1511885110478183,6,2,-4,-1,-5,-7,-1,3
1511885110478183,-2,-3,3,0,6,4,0,-1
1511885110491213,-2,3,-1,-3,-2,4,-1,-3
1511885110491213,-1,-3,-2,-2,-2,-4,-2,1
1511885110498231,-3,0,0,2,0,-2,-2,-1
1511885110498231,-2,0,-1,-3,0,-2,-1,0
1511885110514274,-2,-2,2,-2,-1,-4,0,1
1511885110514274,0,-2,-2,-3,0,3,0,-1
1511885110520290,2,1,-1,-1,-3,-1,-3,2
1511885110520290,0,-1,0,0,-1,-1,-2,-1
1511885110537336,0,-2,-2,-1,1,0,2,-1
1511885110537336,-2,-3,-9,-3,0,0,-3,0
1511885110538339,-1,-3,-4,-2,-2,-1,4,-2
1511885110538339,0,4,2,0,0,0,-2,1
1511885110551373,-2,0,-2,1,2,0,0,-2
1511885110551373,0,-1,3,0,-5,-1,-2,0
1511885110558392,0,-1,-1,0,-1,1,-2,-2
1511885110558392,-1,0,-1,1,-6,-1,0,0
1511885110573432,2,0,0,3,-1,-3,2,0
1511885110573432,2,1,-2,0,-2,3,3,0
1511885110580451,1,-3,2,-1,1,1,-3,-1
1511885110580451,0,-3,-2,-3,-1,-3,1,-1
1511885110597496,-2,-1,1,1,0,2,-2,-1
1511885110597496,0,0,-3,0,-3,-2,-1,-2
1511885110598499,1,0,-4,3,1,-2,4,-2
1511885110598499,1,0,-1,-1,-3,-1,-3,2
1511885110611533,0,0,2,-2,-1,2,4,0
1511885110611533,0,-2,3,2,0,-1,4,-2
1511885110618552,-6,-3,-2,0,0,1,-1,-2
1511885110618552,0,-1,1,0,4,2,-2,-1
1511885110633592,-1,2,-4,-2,-4,-3,0,-2
1511885110633592,-1,-1,8,-2,-3,1,-5,0
1511885110640611,-3,5,0,0,1,-5,0,-1
1511885110640611,0,-1,-2,1,-3,-2,1,0
1511885110656653,1,-4,0,-1,-2,-3,1,1
1511885110656653,-3,0,-3,1,1,0,-3,0
1511885110658659,-3,-3,-1,-3,-2,1,-5,-3
1511885110658659,0,-3,-4,-4,-2,1,2,-1
1511885110671693,2,2,-6,-3,-1,-1,-2,-1
1511885110671693,-1,-1,5,1,-3,-1,8,0
1511885110677709,1,1,-1,3,4,-1,-4,2
1511885110677709,-1,-2,0,1,1,-1,-3,-1
1511885110693752,-1,-2,5,-1,-3,3,2,-2
1511885110693752,1,0,-7,-4,-1,-3,-2,-1
1511885110700770,-1,-1,2,-4,1,-1,-1,-2
1511885110700770,-3,1,1,3,-2,0,2,-1
1511885110716813,1,-1,-1,0,1,0,1,1
1511885110716813,2,0,-1,-2,1,-2,-1,0
1511885110718819,-2,-1,-1,-1,-1,2,-1,-2
1511885110718819,-1,-1,0,-2,-3,-1,-2,0
1511885110731853,-2,-1,-3,-1,0,0,-1,-1
1511885110731853,-1,0,2,-3,0,-2,-3,-2
1511885110737869,-1,-3,-3,0,-4,-3,8,0
1511885110737869,0,-3,-1,-1,1,-4,4,0
1511885110753912,-2,0,-3,1,2,-1,0,1
1511885110753912,0,1,0,-1,2,-2,2,0
1511885110760930,1,0,0,-2,-3,-5,-5,2
1511885110760930,-1,-2,2,4,3,1,-2,-5
1511885110776973,-2,-1,-1,-1,-1,-1,2,0
1511885110776973,0,1,-1,1,1,-2,-6,-1
1511885110778978,-2,1,-2,-1,-1,0,-1,1
1511885110778978,-1,-1,3,-3,2,-3,-4,-2
1511885110791010,0,0,2,-1,2,4,0,-1
1511885110791010,-1,0,-1,-1,-1,1,2,0
1511885110798029,-1,-2,-2,0,-2,-1,-1,-2
1511885110798029,1,-1,-3,0,2,1,1,0
1511885110814072,-1,0,-1,1,0,0,-4,-1
1511885110814072,-1,1,-1,-3,2,1,-6,0
1511885110821090,0,-3,-1,0,-1,-4,-2,0
1511885110821090,0,1,-2,0,0,-2,-2,-1
1511885110837164,1,0,-2,-1,-4,-5,2,-1
1511885110837164,0,1,0,2,2,-2,1,-1
1511885110838163,-3,-3,-1,-1,-5,-2,-2,0
1511885110838163,-2,-3,2,-2,-1,1,-1,-2
1511885110851171,-2,-1,-1,-2,0,-3,-4,1
1511885110851171,-1,-1,-4,-4,-1,2,0,0
1511885110858189,0,-1,0,1,-2,-1,1,0
1511885110858189,-1,3,-1,0,-2,-1,-1,2
1511885110874366,1,-1,3,-1,-1,1,0,-1
1511885110874366,-1,-4,-2,0,-1,-2,-5,-2
1511885110880414,1,0,-4,-1,3,0,10,-1
1511885110880414,-2,-1,-2,3,-4,-1,-2,-2
1511885110897327,0,1,2,0,0,-2,-2,-3
1511885110897327,1,1,-1,1,-1,0,-3,-1
1511885110898334,0,2,2,-2,0,1,-4,-1
1511885110898334,2,-2,4,-2,1,2,1,-2
1511885110910388,1,-2,-7,-1,0,-2,3,0
1511885110910388,-1,-1,2,-1,-4,-4,2,0
1511885110919398,0,1,-2,-1,0,-1,-4,-2
1511885110919398,-1,-4,-3,-2,-2,-2,1,0
1511885110933423,-1,-2,2,1,0,-2,-3,-1
1511885110933423,1,-2,-2,1,-3,-1,3,-1
1511885110940442,0,0,2,0,-2,-1,-1,-1
1511885110940442,-3,-1,-1,1,3,2,4,-1
1511885110957487,-1,-3,-1,1,2,3,-4,0
1511885110957487,0,1,-1,0,0,-4,3,-1
1511885110958502,-2,-2,-1,-2,-1,3,0,1
1511885110958502,4,0,-2,-3,-1,1,-1,0
1511885110970525,-2,-2,2,-1,0,-3,3,1
1511885110970525,1,2,-2,3,4,2,-1,-1
1511885110979547,1,1,-4,0,-2,-4,-2,1
1511885110979547,-1,-1,-1,-2,1,-3,-1,1
1511885110993716,0,-1,-3,-1,-3,-2,0,-1
1511885110993716,0,-4,-1,-1,1,2,0,1
1511885111000605,2,1,-1,-3,1,1,-1,-1
1511885111000605,0,2,-3,1,-3,-1,-6,0
1511885111016647,-2,1,3,0,0,-1,2,0
1511885111016647,-2,-3,1,-1,-4,-2,1,0
1511885111018650,-1,-1,0,0,2,-3,0,-1
1511885111018650,-2,-1,-5,-2,-2,-2,0,-2
1511885111030867,0,0,7,0,2,0,-2,0
1511885111030867,0,-2,-8,-1,0,-2,-1,0
1511885111039707,-1,1,4,0,1,2,-1,2
1511885111039707,3,-1,1,-2,-3,-2,-2,1
1511885111053743,-2,-1,-5,-3,-1,-2,-1,-1
1511885111053743,-3,2,-5,-1,-1,5,0,-1
1511885111060765,1,-2,5,3,2,0,-4,-2
1511885111060765,-1,1,-5,-1,-2,-3,-1,1
1511885111076933,-1,1,5,0,-3,-1,-3,-2
1511885111076933,0,-3,2,0,3,-2,0,0
1511885111078810,-4,-1,-4,-3,-3,1,-6,0
1511885111078810,0,-2,3,0,0,-2,1,-3
1511885111090845,2,-1,-5,1,3,-3,-4,-2
1511885111090845,-1,1,5,0,-2,4,6,1
1511885111106023,0,0,0,1,1,2,-2,0
1511885111106023,-2,-2,8,-1,-1,-1,-1,-1
1511885111114177,-2,1,-1,-3,-3,-2,1,-2
1511885111114177,1,-2,3,-2,-3,-4,-3,-1
1511885111120196,-1,-4,-1,-2,0,-4,1,-3
1511885111120196,-2,1,-3,0,1,6,2,-1
1511885111137241,1,-2,-1,2,0,2,0,1
1511885111137241,1,0,0,-2,-3,-4,1,0
1511885111138244,0,0,0,-3,0,-2,0,-2
1511885111138244,-1,0,-2,0,-3,-3,-1,0
1511885111151276,-1,-1,0,1,2,4,5,0
1511885111151276,-3,-1,0,-2,0,1,-5,-1
1511885111159311,0,-2,-2,0,-3,0,2,-1
1511885111159311,2,0,-4,-2,2,1,1,-1
1511885111174505,-1,1,-1,-2,-2,0,-3,-2
1511885111174505,2,0,-1,0,-2,-5,-3,-2
1511885111180663,-1,-2,2,-1,-1,0,0,-1
1511885111180663,-1,-1,-1,0,-1,-2,-4,-2
1511885111197675,-1,-2,-2,-2,0,3,-1,-1
1511885111197675,-1,2,1,0,-2,-1,0,-2
1511885111198535,2,3,1,0,-2,1,-4,1
1511885111198535,-1,-2,1,0,-1,1,1,-1
1511885111210687,-1,0,-3,1,0,-4,2,0
1511885111210687,-1,0,2,-3,0,-3,-5,2
1511885111219712,-2,-1,-1,-1,-1,1,2,1
1511885111219712,1,0,-2,1,4,0,-3,-1
1511885111233750,-2,-4,1,-1,-1,-3,-4,0
1511885111233750,-3,0,3,2,1,3,1,0
1511885111240947,2,-1,2,-1,-3,1,2,-1
1511885111240947,0,4,-3,-1,-2,-4,-1,1
1511885111255945,1,-3,-1,-4,0,2,-3,0
1511885111255945,-3,-2,-1,0,-2,-3,-1,-2
1511885111262988,-3,0,-6,0,4,1,1,0
1511885111262988,0,-3,-1,0,-2,0,1,-1
1511885111271114,2,-1,-1,-1,1,0,1,-1
1511885111271114,0,0,2,-3,-1,0,0,-2
1511885111280009,-1,0,-3,-2,3,0,6,-3
1511885111280009,0,-2,-3,1,0,-1,-3,0
1511885111294049,-3,3,3,-1,-1,-3,-1,-2
1511885111294049,2,-2,-8,-1,-1,0,2,-2
1511885111301068,2,-1,2,0,0,-1,-5,-3
1511885111301068,-2,-2,1,-1,-3,-1,0,1
1511885111316247,0,-1,-2,3,1,1,-1,-1
1511885111316247,1,1,1,-5,-3,-1,0,1
1511885111323264,0,-3,-1,4,-4,-1,0,1
1511885111323264,-3,-1,0,6,10,-2,-2,-3
1511885111331312,-4,-1,-5,-2,-2,-1,-1,-2
1511885111331312,0,-3,-3,0,1,1,-3,-1
1511885111339308,3,2,0,-5,-6,-3,0,0
1511885111339308,-4,-2,1,-3,-2,3,1,-1
1511885111353519,-1,3,1,7,6,3,0,2
1511885111353519,-2,-2,-6,-3,1,2,1,-4
1511885111360503,0,-2,-2,5,3,0,-2,2
1511885111360503,-1,-1,7,-7,-1,-1,-3,-2
1511885111376546,-2,-1,-7,-6,-8,-6,-3,-4
1511885111376546,3,2,3,0,-6,-5,0,4
1511885111383564,-2,-2,-1,4,4,2,-2,-1
1511885111383564,1,6,6,1,-4,1,3,0
1511885111399609,1,-4,6,-3,-2,-2,0,0
1511885111399609,-1,0,1,-2,5,0,0,-2
1511885111401624,-4,2,-3,-7,-8,-1,-4,-4
1511885111401624,0,-3,-1,5,-4,-3,6,2
1511885111413742,2,4,-6,2,4,-1,-1,-1
1511885111413742,1,1,-1,-6,-7,1,-1,0
1511885111420774,-4,-1,0,-10,12,4,-1,-3
1511885111420774,1,1,-5,23,17,5,1,-2
1511885111436828,-1,-2,2,0,-5,-5,1,3
1511885111436828,-5,-3,-7,-3,2,4,-3,0
1511885111442819,3,-1,2,-5,-10,-5,0,2
1511885111442819,-2,-1,-7,-9,-10,2,-6,0
1511885111459860,-1,-2,1,-1,1,-5,-1,-1
1511885111459860,-1,0,3,2,-4,-2,-3,-3
1511885111460863,-3,-1,3,3,1,3,1,-2
1511885111460863,0,-1,-2,-3,-2,-3,1,1
1511885111474083,-2,1,-2,-16,-5,3,0,-4
1511885111474083,-1,-4,2,5,-4,-1,-1,-2
1511885111481042,-1,-3,-5,10,1,-9,-5,-2
1511885111481042,0,-5,-3,-1,-2,-2,-2,-1
1511885111496226,-3,-2,-3,1,2,4,0,2
1511885111496226,0,3,2,-14,-1,0,0,1
1511885111503139,0,-4,-6,2,-1,-2,3,-2
1511885111503139,-2,-2,1,-2,-3,-3,-4,-1
1511885111519178,-2,-3,3,0,0,-2,-1,0
1511885111519178,-1,1,-1,8,-2,-2,-1,-1
1511885111521184,3,1,2,0,6,1,-2,1
1511885111521184,3,0,1,-11,-4,-2,-1,-1
1511885111534222,1,-2,-10,15,11,1,-1,-2
1511885111534222,-1,1,5,4,0,-4,1,1
1511885111541237,-4,3,0,-4,-5,0,-2,-2
1511885111541237,0,-2,5,-5,4,1,0,0
1511885111556281,2,-1,-4,-6,-7,-3,-1,-1
1511885111556281,1,-2,-3,5,4,-3,-1,0
1511885111563400,3,-4,-2,-6,-1,-4,0,0
1511885111563400,-1,0,-4,-1,-7,-1,0,-1
1511885111579518,-2,1,7,5,2,2,-2,1
1511885111579518,0,-2,-7,-3,-4,-3,2,1
1511885111581347,-1,-1,0,2,-3,-1,-1,1
1511885111581347,-2,-2,-3,-2,-2,2,-1,-3
1511885111594426,2,2,-2,-5,-5,1,-1,-1
1511885111594426,-1,-4,3,4,5,-3,-2,-3
1511885111600398,-2,0,0,-5,-5,-2,1,3
1511885111600398,2,0,-3,2,6,3,2,0
1511885111616437,4,0,1,-2,-2,-5,-2,1
1511885111616437,1,1,3,-1,-6,-2,-2,0
1511885111623459,-2,-3,-7,-3,2,0,0,-1
1511885111623459,-1,-1,2,0,-3,-5,0,-2
1511885111639666,-2,-2,1,7,13,3,3,0
1511885111639666,0,-2,-2,2,2,-2,-4,0
1511885111641505,-2,3,4,-3,1,-4,-2,-2
1511885111641505,0,0,-6,-8,-3,1,-1,-1
1511885111653539,-2,-2,-4,-10,-6,-1,-2,-2
1511885111653539,0,1,1,9,1,0,1,-1
1511885111661918,0,1,-3,-6,-4,-4,1,-1
1511885111661918,-2,-2,4,-1,16,5,0,-1
1511885111676927,-2,0,-5,6,-12,-3,-3,-2
1511885111676927,3,-1,-4,2,-1,3,5,0
1511885111682787,1,-1,5,4,5,0,2,-1
1511885111682787,-1,0,0,-4,-8,-4,-2,-2
1511885111699835,1,-3,1,-3,2,0,1,0
1511885111699835,-4,0,-3,-11,-2,-1,-3,-1
1511885111700840,1,-1,-5,8,1,4,-2,-3
1511885111700840,1,1,-1,-1,-11,-8,-2,2
1511885111713044,1,-3,1,-2,-5,1,0,-1
1511885111713044,0,-4,-7,-8,-6,-1,0,-3
1511885111722032,-1,-2,6,-13,-13,1,-1,-2
1511885111722032,-2,2,-8,28,35,4,0,1
1511885111736200,-2,1,11,-15,-14,-2,0,1
1511885111736200,0,1,0,7,-5,0,1,0
1511885111743217,-1,1,1,-1,0,2,0,-2
1511885111743217,-4,-1,2,-8,-16,-4,0,-3
1511885111759354,-2,0,-6,4,6,0,-1,-1
1511885111759354,-1,-4,2,4,8,-1,0,0
1511885111761266,-3,1,-5,2,-4,1,-2,1
1511885111761266,2,0,-2,-2,-5,0,0,0
1511885111773300,-3,-2,-1,3,-7,-1,2,-2
1511885111773300,1,1,4,2,11,2,-2,2
1511885111782321,2,0,-5,4,-3,-3,0,0
1511885111782321,0,0,0,-8,-7,1,-3,-1
1511885111796669,-1,-1,-5,-4,-1,1,1,0
1511885111796669,-2,0,2,20,10,-1,1,-2
1511885111803728,0,-1,-1,-21,-3,-5,1,1
1511885111803728,0,-4,-4,-3,-1,-2,-1,-2
1511885111819810,-2,-4,-3,-13,-5,3,-1,-2
1511885111819810,5,2,5,19,1,-3,0,2
1511885111821693,0,0,-3,-2,1,2,-1,-1
1511885111821693,1,1,3,33,-6,-4,-2,1
1511885111832843,1,3,-5,-23,5,-5,-1,2
1511885111832843,-4,0,-2,-2,8,1,-2,-1
1511885111842038,-1,-1,-2,4,1,-3,-1,0
1511885111842038,-2,-4,-4,-9,4,5,-1,-1
1511885111856952,-3,1,6,16,-5,3,-3,-2
1511885111856952,-2,-2,-4,-17,-1,-1,1,0
1511885111863053,0,2,8,13,1,0,0,-2
1511885111863053,-1,-2,2,-10,-8,-3,1,1
1511885111879195,2,-2,-3,13,8,2,-1,-1
1511885111879195,0,2,13,8,-11,-2,0,-2
1511885111881018,0,0,-12,11,0,-4,0,-2
1511885111881018,-2,4,6,-14,2,0,-2,-1
1511885111893078,2,3,2,-5,-3,-3,2,2
1511885111893078,0,-1,-2,-24,-2,-5,-3,2
1511885111902074,-1,-2,4,5,0,2,-4,-1
1511885111902074,2,-1,1,-33,-4,-5,1,-1
1511885111916253,-1,0,-3,22,4,-1,0,0
1511885111916253,-5,0,-5,3,-3,2,-2,-4
1511885111923162,2,-3,-2,-4,1,0,1,2
1511885111923162,-2,-1,0,3,-1,-3,0,-2
1511885111940219,3,-3,-2,-5,4,-1,0,1
1511885111940219,-2,-3,-4,-12,-5,-1,1,-3
1511885111941208,-2,0,5,21,1,-1,-3,-1
1511885111941208,-2,1,4,0,2,2,0,-1
1511885111953336,-2,-1,-8,31,3,-2,-2,1
1511885111953336,2,-1,-9,-44,-9,-1,0,2
1511885111962262,1,-2,-5,-5,4,1,-1,-3
1511885111962262,1,1,7,3,1,0,-1,0
1511885111976468,0,-1,-1,-33,-2,2,1,0
1511885111976468,-1,4,-3,44,1,1,0,-1
1511885111983459,3,-2,0,-14,2,2,-3,4
1511885111983459,-10,-2,-5,-10,-4,-2,1,-3
1511885111999506,0,-3,-1,-12,-1,-3,-2,1
1511885111999506,-1,3,3,11,0,-3,-2,-3
1511885112001510,0,-4,-2,13,-2,0,0,-1
1511885112001510,-1,-1,0,5,2,1,-2,-2
1511885112013733,1,1,2,-1,-3,1,2,-1
1511885112013733,8,1,3,-11,-3,-1,0,3
1511885112022566,4,2,-2,-9,2,-1,-3,-8
1511885112022566,-4,-2,-5,4,-3,2,1,8
1511885112036603,3,-1,0,0,1,1,-3,-2
1511885112036603,-4,-1,7,3,-1,-3,-5,3
1511885112043764,3,1,1,-7,-3,-2,8,-5
1511885112043764,5,-1,-5,3,-1,-3,-5,-2
1511885112059844,4,3,0,12,2,-3,-2,3
1511885112059844,2,-2,-7,-13,1,-1,3,1
1511885112060810,4,5,8,-3,-2,-1,-2,-5
1511885112060810,6,-4,-4,0,-1,-2,1,10
1511885112072843,-2,1,0,-1,-4,3,-6,-5
1511885112072843,-13,-4,-6,-3,0,-3,0,-4
1511885112081866,-4,-3,-2,-6,-1,-2,-3,2
1511885112081866,12,0,-2,11,1,1,3,-7
1511885112096908,2,-6,0,-2,-1,7,-13,15
1511885112096908,-4,-1,-3,-2,-2,1,4,1
1511885112102923,2,2,-1,9,-1,-2,-14,2
1511885112102923,-4,-3,1,-6,-1,-4,4,-8
1511885112119966,0,-1,3,1,-4,-6,-4,-11
1511885112119966,3,0,-1,1,2,8,-20,3
1511885112120968,-8,-3,0,1,-4,-2,5,1
1511885112120968,2,-2,-1,2,-1,0,-12,-3
1511885112133120,-2,-2,1,-18,0,-2,2,1
1511885112133120,1,0,-1,11,-2,-4,-1,2
1511885112142024,-4,1,-2,-24,2,-2,1,-4
1511885112142024,-3,-3,-3,37,3,2,2,-1
1511885112156217,-1,-3,2,-24,-6,-3,4,1
1511885112156217,0,-2,4,11,11,1,8,-1
1511885112163117,1,-1,-3,-35,-4,0,1,2
1511885112163117,-7,5,-2,41,3,2,3,2
1511885112180203,-5,-1,-1,4,5,-2,2,-3
1511885112180203,1,-4,-4,-11,-2,1,-3,-3
1511885112181163,-3,-1,-4,4,-1,2,8,3
1511885112181163,0,-4,3,8,0,2,-3,0
1511885112193195,5,-2,-5,13,-5,-3,-4,-4
1511885112193195,0,-1,-6,-16,-9,-3,28,-4
1511885112202218,-3,1,0,-42,-1,2,-3,0
1511885112202218,0,1,-5,-4,-10,-2,-1,-2
1511885112216259,-5,2,3,32,4,-4,-1,-2
1511885112216259,-3,-3,-7,-66,-4,3,-14,-3
1511885112223278,4,2,11,56,-2,-2,4,1
1511885112223278,1,-4,-6,-41,6,0,4,1
1511885112239480,1,3,8,-32,-9,1,5,1
1511885112239480,-2,-4,-1,26,4,-2,-8,-3
1511885112245426,-4,1,1,2,-1,-1,-2,1
1511885112245426,-4,0,1,-16,2,0,-3,1
1511885112253357,-3,1,-1,16,13,2,4,-3
1511885112253357,-3,-4,4,0,2,-1,1,-3
1511885112262379,-3,-8,-4,-11,12,4,-2,-3
1511885112262379,1,3,1,-14,-5,-2,2,3
1511885112276444,0,0,3,0,-1,-1,-2,3
1511885112276444,8,7,-6,1,-3,2,8,-4
1511885112283607,-1,0,2,32,2,0,-1,-1
1511885112283607,-8,-6,-3,-13,-3,0,-4,-2
1511885112299527,-3,2,3,-13,-2,0,6,-6
1511885112299527,25,3,5,17,1,-2,-14,10
1511885112305496,-26,5,-2,0,-2,-3,3,-2
1511885112305496,2,0,-5,-11,1,2,3,0
1511885112313688,-4,-4,-1,11,-1,1,-4,-1
1511885112313688,-9,0,0,12,-3,-4,-5,-5
1511885112322627,6,-5,-7,-7,-1,1,3,2
1511885112322627,-3,2,2,6,-1,-1,-10,-3
1511885112336642,-9,-3,0,5,1,-4,0,-3
1511885112336642,-4,-6,-4,-12,-1,1,-2,-3
1511885112342811,7,-1,2,18,-2,-2,-1,4
1511885112342811,-3,1,-3,-6,1,-2,-2,-1
1511885112358878,9,1,0,24,-5,0,11,2
1511885112358878,-5,2,-1,-9,2,0,6,3
1511885112365860,-1,-3,-1,1,0,-2,-3,-6
1511885112365860,4,0,6,8,-3,-1,-2,-1
1511885112381939,-1,1,1,-8,-1,2,-5,-2
1511885112381939,-1,0,14,10,-2,-3,-3,6
1511885112383908,-4,-4,-8,0,-2,2,34,-2
1511885112383908,0,-2,-3,3,-4,-2,-1,-1
1511885112396962,-3,0,-6,-16,2,1,-4,0
1511885112396962,-6,-1,5,34,-4,-4,6,-3
1511885112402953,9,-2,-2,-21,1,3,-12,4
1511885112402953,-5,3,5,12,-1,-1,2,-10
1511885112418999,-2,-2,-9,-6,-2,1,2,2
1511885112418999,0,2,-3,-6,1,2,-5,-4
1511885112426019,-2,-7,2,16,-2,-1,-7,-1
1511885112426019,1,0,0,-8,-1,-3,-4,3
1511885112442059,-1,-1,-2,8,0,-1,-1,0
1511885112442059,-4,0,-5,-12,-3,1,-1,-2
1511885112444101,1,-2,-4,-2,-2,-4,-8,-2
1511885112444101,0,-2,-3,12,0,2,0,3
1511885112456205,3,1,5,-12,0,0,0,-1
1511885112456205,-2,-3,-8,-43,2,0,0,-2
1511885112463113,0,4,6,43,-3,-2,-6,-1
1511885112463113,1,-1,-3,-8,2,-1,3,-1
1511885112479349,-1,-2,-3,-2,0,-1,-3,-2
1511885112479349,-2,0,0,-1,1,-1,2,0
1511885112485200,-3,0,-4,-12,-1,3,-8,-1
1511885112485200,1,0,0,5,-2,0,-2,-1
1511885112502217,-3,-1,-1,-8,-2,0,-2,1
1511885112502217,-1,-1,1,15,3,2,-1,-1
1511885112503220,3,0,0,-13,0,-2,-1,-2
1511885112503220,1,-2,0,2,-3,0,1,1
1511885112515251,-1,0,-1,-18,-1,-2,1,-2
1511885112515251,-1,0,-3,26,1,1,-2,-2
1511885112524275,0,2,2,-6,0,-3,-2,2
1511885112524275,0,-4,-4,-15,0,1,0,1
1511885112539316,2,0,7,10,1,0,-7,-1
1511885112539316,-4,-4,-5,-7,-2,-1,-4,-4
1511885112545360,-2,-1,-2,3,-1,0,1,0
1511885112545360,-1,1,1,-7,-1,-1,-4,-1
1511885112562377,-1,0,-1,6,-1,-1,-2,0
1511885112562377,0,1,10,4,-3,-4,-3,-2
1511885112563381,0,-2,-12,-9,-1,-1,0,0
1511885112563381,-3,-3,-3,1,-1,0,0,2
1511885112575411,0,-3,-3,3,-3,-4,1,1
1511885112575411,0,0,1,1,3,-1,-1,0
1511885112584435,-2,2,13,-3,0,-6,-1,0
1511885112584435,-1,-2,-3,-3,-2,0,-1,-1
1511885112598475,-1,-1,1,2,-2,0,-1,-2
1511885112598475,2,1,-2,-3,-2,1,2,-1
1511885112605516,1,3,2,-2,-2,-2,-2,-2
1511885112605516,1,0,-4,1,2,1,2,-2
1511885112621629,1,-5,3,1,-3,-5,0,1
1511885112621629,-2,0,-8,-1,-3,-4,-3,1
1511885112623632,-1,1,13,-4,0,0,-3,-4
1511885112623632,1,1,-7,-4,-1,-5,1,3
1511885112635797,0,2,-10,1,-1,1,10,-1
1511885112635797,0,-5,7,0,1,1,-1,-1
1511885112644850,1,0,-6,3,0,-2,0,0
1511885112644850,-2,1,7,0,-1,-3,3,-1
1511885112658890,0,-3,-2,-1,-1,5,-4,-1
1511885112658890,-2,9,2,-2,-3,-3,-1,0
1511885112665909,1,2,-14,-4,3,1,1,1
1511885112665909,2,-9,8,1,-2,-4,-30,0
1511885112681952,0,1,4,0,3,-2,3,-1
1511885112681952,1,-4,0,-5,-4,-1,2,2
1511885112683954,0,-4,-10,-4,0,-1,-1,0
1511885112683954,-3,2,2,-1,-1,2,-1,-4
1511885112695987,-4,3,0,-1,-6,-5,-1,-1
1511885112695987,2,-1,2,1,-3,-1,2,-1
1511885112705010,-1,-2,2,-4,-5,-1,-2,-2
1511885112705010,1,2,2,-6,3,-1,7,0
1511885112719050,-1,2,-6,3,-1,-2,-4,-1
1511885112719050,-1,1,0,4,-5,-5,4,-3
1511885112726096,-4,-3,19,10,1,4,-1,-1
1511885112726096,0,-4,-44,14,-6,-6,5,-2
1511885112742440,-2,3,7,-40,4,-4,-3,-1
1511885112742440,2,-4,-1,10,-8,1,-6,4
1511885112743350,-2,-1,-2,-21,0,0,2,3
1511885112743350,1,7,10,18,-2,2,2,0
1511885112755386,1,3,4,34,9,2,3,-1
1511885112755386,-2,-4,-11,-35,-1,-2,-1,-1
1511885112764445,-2,2,3,25,-4,-1,-3,-3
1511885112764445,-3,-3,6,-14,11,3,5,-2
1511885112779480,4,0,-13,-23,-11,-3,0,2
1511885112779480,-1,-2,23,35,8,3,0,-4
1511885112785555,0,0,-32,-2,-10,-4,-1,-1
1511885112785555,-1,-1,23,-24,7,0,1,1
1511885112801689,-1,-1,-20,28,-10,-3,-3,1
1511885112801689,-4,0,9,-72,2,2,-2,-3
1511885112803692,3,2,-21,22,-3,-5,-1,1
1511885112803692,3,-4,4,13,-4,-3,3,0
1511885112815724,-4,-3,6,-36,-6,1,-1,-1
1511885112815724,-8,-2,-12,28,13,4,-1,-5
1511885112824748,4,2,7,-10,-7,-4,0,1
1511885112824748,-3,3,-3,19,3,0,0,-1
1511885112838787,-1,-1,6,-14,3,4,-3,0
1511885112838787,1,0,6,69,-6,-3,-2,3
1511885112845917,-5,-4,0,-13,8,5,0,-1
1511885112845917,0,2,-2,-28,-5,-7,1,0
1511885112862036,-4,-3,-2,11,1,1,-2,-1
1511885112862036,1,-1,-7,2,6,0,2,0
1511885112863852,-4,1,10,28,3,0,-3,-1
1511885112863852,-1,0,2,8,-10,1,0,1
1511885112875982,-3,2,1,-12,9,2,-2,-5
1511885112875982,2,-5,-7,-25,-3,-3,1,1
1511885112885107,2,0,9,23,-1,0,-2,-1
1511885112885107,-8,-1,-8,-71,1,6,-3,-2
1511885112899114,1,1,2,61,-1,-6,0,2
1511885112899114,4,2,-3,37,3,1,0,1
1511885112906122,-3,-6,3,1,3,6,-1,-1
1511885112906122,-2,-2,-6,-16,-3,-4,0,0
1511885112929305,-3,-4,0,11,7,3,0,-2
1511885112929305,-1,1,-3,18,-11,-5,0,0
1511885112931187,-1,-3,-3,0,0,0,1,6
1511885112931187,1,-3,2,17,0,2,0,-1
1511885112935199,-9,4,-6,-27,0,-2,0,-3
1511885112935199,3,-2,3,23,2,2,0,-4
1511885112944431,-4,1,6,-59,-9,-6,-1,-3
1511885112944431,2,-2,-7,22,3,0,2,4
1511885112959428,3,-1,2,4,0,0,0,0
1511885112959428,-3,-4,-2,-36,1,-2,-1,-1
1511885112965415,-2,-1,11,17,0,0,2,-2
1511885112965415,5,2,-11,3,-2,-1,-3,0
1511885112982466,-5,-1,4,-21,-3,-1,-2,-4
1511885112982466,2,0,-3,17,-1,-3,0,0
1511885112983464,0,-1,-5,-12,2,-2,-2,1
1511885112983464,-5,3,16,10,-1,-2,1,-2
1511885112995608,7,1,0,-4,-4,0,-2,0
1511885112995608,1,3,-5,-12,-1,1,-2,-2
1511885113004567,-2,0,-2,-9,0,-1,-2,-3
1511885113004567,0,2,0,14,3,3,8,-1
1511885113018581,5,-1,-4,1,-3,-3,-3,0
1511885113018581,-14,-5,8,-15,-5,0,0,1
1511885113025617,3,1,-3,-4,0,1,1,1
1511885113025617,-1,1,-5,10,-3,2,-4,-1
1511885113041620,3,0,1,-1,0,-1,2,4
1511885113041620,-8,0,2,-5,0,1,-1,-3
1511885113043622,7,-1,0,2,3,2,2,3
1511885113043622,-6,-1,3,-2,-4,-1,-2,-4
1511885113055657,3,-4,10,5,-4,0,0,0
1511885113055657,5,0,-7,-8,0,-3,-1,1
1511885113064683,-7,-2,-7,-5,1,2,-1,-3
1511885113064683,2,1,1,-4,0,0,-2,0
1511885113078841,-5,2,-1,7,-4,-2,-1,0
1511885113078841,-1,3,7,-10,2,-1,1,0
1511885113085741,-1,-4,-8,-6,-2,0,0,-1
1511885113085741,4,1,-5,3,-3,-2,-1,-3
1511885113101875,-7,-5,-1,4,5,0,5,0
1511885113101875,2,5,0,-11,0,1,-4,3
1511885113103884,-4,1,3,-1,-1,-3,0,2
1511885113103884,-2,-3,-2,3,-1,0,-2,-2
1511885113115915,0,0,-1,0,1,1,-2,0
1511885113115915,0,1,-6,-8,-2,0,0,-3
1511885113125129,3,0,-3,2,-1,-2,0,0
1511885113125129,-6,-2,4,-1,0,0,-2,-2
1511885113139131,5,0,-3,-1,0,1,-1,0
1511885113139131,-2,-3,0,-2,-1,2,0,0
1511885113146025,-2,1,-5,0,1,-3,1,-3
1511885113146025,2,-3,0,-1,-1,-1,0,0
1511885113161069,-3,1,-1,-1,-3,-2,-1,-2
1511885113161069,10,-5,-7,-3,-1,-1,0,1
1511885113168083,-13,0,6,-2,-1,-2,-1,-5
1511885113168083,0,3,-4,-1,1,-1,0,2
1511885113176105,1,-5,-3,2,1,3,-1,-1
1511885113176105,1,0,-4,-5,2,-1,-3,0
1511885113184125,3,2,7,1,-3,4,-2,1
1511885113184125,2,-4,-4,-1,-1,-4,1,4
1511885113199166,-3,0,-1,2,-3,2,-2,1
1511885113199166,-1,0,-1,-1,-3,-1,-4,1
1511885113205445,-5,-4,-2,-1,5,2,-3,-4
1511885113205445,-2,-1,-4,0,1,2,-2,-3
1511885113220488,11,1,0,-3,-2,-4,0,7
1511885113220488,-4,3,2,-1,1,-1,5,-3
1511885113228742,2,-3,-6,-3,3,-1,-3,-1
1511885113228742,-6,-2,3,1,-4,1,-1,-1
1511885113243694,-4,-2,-8,2,-2,-1,-4,-4
1511885113243694,3,0,6,0,-1,-5,-1,-3
1511885113244694,0,0,-3,-5,-4,-5,1,5
1511885113244694,-1,-3,5,0,2,0,-6,-3
1511885113259734,-7,-2,-4,1,0,1,-2,-3
1511885113259734,4,4,9,2,-1,-1,5,-2
1511885113265751,2,-3,-7,-2,-3,0,-2,-2
1511885113265751,-1,-6,-22,-5,3,1,2,1
1511885113280789,1,1,-2,1,-1,0,1,0
1511885113280789,-3,-4,-3,-3,-5,-1,-1,2
1511885113287808,5,2,7,4,8,-1,1,-1
1511885113287808,1,1,-2,-1,-6,-3,2,-1
1511885113303869,-3,-3,5,0,3,0,0,-1
1511885113303869,1,0,-5,-3,6,-1,-2,3
1511885113304862,-13,-2,1,2,-8,-1,-2,-9
1511885113304862,2,-3,-4,3,3,-1,-2,-1
1511885113320037,-4,6,13,-9,-5,0,1,-3
1511885113320037,-1,-5,-5,2,-3,5,0,0
1511885113326054,0,1,-5,1,-7,-5,-2,1
1511885113326054,-1,0,1,2,1,-2,-1,2
1511885113341097,2,1,-3,1,2,0,0,-2
1511885113341097,-6,-2,1,-2,-1,1,0,0
1511885113348120,-2,-1,-1,-3,-3,5,0,-2
1511885113348120,-2,3,3,-9,-16,-2,1,-1
1511885113364252,2,-1,4,7,11,1,0,-2
1511885113364252,-5,-3,-14,-2,-7,-2,-4,-2
1511885113364252,4,0,4,3,8,3,1,1
1511885113364252,1,5,7,-2,-2,-4,1,-1
1511885113380225,-1,-3,-1,-5,-7,-3,-1,1
1511885113380225,1,0,0,-2,4,2,-1,-4
1511885113386213,0,-2,0,-1,-1,3,7,-1
1511885113386213,-1,-1,3,-1,-1,-5,-2,-1
1511885113400381,1,-2,-5,1,2,-1,0,1
1511885113400381,0,2,-1,-1,1,0,1,1
1511885113408429,1,-2,4,-2,-2,-2,-3,-1
1511885113408429,5,0,2,0,3,1,0,-2
1511885113423551,-12,1,-8,0,-3,-3,0,-3
1511885113423551,-1,-1,-1,-1,-2,-5,-2,-4
1511885113424441,4,-1,0,0,-1,-1,-3,0
1511885113424441,-4,1,2,0,2,2,-2,-1
1511885113439495,3,-2,-1,-1,-1,0,-3,0
1511885113439495,-6,-2,3,-2,-1,1,2,-1
1511885113445678,1,3,-2,1,-2,-2,-1,1
1511885113445678,-2,0,-7,2,1,1,1,0
1511885113460982,0,-3,1,-5,-2,1,-5,-1
1511885113460982,-1,2,-12,0,-1,-4,-1,-2
1511885113467889,-2,-4,-2,-3,-2,-2,-1,0
1511885113467889,-1,2,3,2,1,-1,-5,-2
1511885113484116,0,-3,-1,1,1,6,5,-1
1511885113484116,1,1,1,0,-4,-2,0,1
1511885113484932,-2,-1,-3,-2,1,-2,-2,-2
1511885113484932,-1,-2,-2,-2,-1,2,-2,-2
1511885113499971,0,-1,6,-1,1,-6,3,-2
1511885113499971,-3,-1,1,0,2,5,-2,1
1511885113505990,3,1,-1,-3,-2,-1,0,1
1511885113505990,-7,-5,3,-1,-1,-3,-3,0
1511885113521030,2,0,-1,-1,-3,-3,6,-2
1511885113521030,3,1,1,4,0,4,-2,-3
1511885113528046,-6,-2,-1,0,1,-2,-4,-1
1511885113528046,-1,2,-1,2,3,2,-2,-2
1511885113544177,0,3,0,-1,-1,1,-3,2
1511885113544177,0,-1,-1,-1,-4,-6,-1,0
1511885113545118,4,1,-1,0,-1,3,1,-3
1511885113545118,3,-1,0,-1,1,-4,1,3
1511885113559131,-2,1,3,0,-3,-5,-5,-3
1511885113559131,3,-1,-3,-1,-1,0,-2,0
1511885113565381,-1,-1,-5,-2,-2,3,0,0
1511885113565381,-3,-1,-2,0,-2,1,1,-3
1511885113580525,-1,-2,1,-5,-3,-7,0,-1
1511885113580525,-2,-3,-2,-1,-1,0,0,1
1511885113588441,-1,0,-5,1,2,0,1,-1
1511885113588441,0,2,2,-1,0,2,2,1
1511885113603653,1,1,-4,-2,1,1,-1,-1
1511885113603653,-2,-2,1,-1,0,-1,0,-1
1511885113604653,-4,-1,1,-1,-3,-2,0,0
1511885113604653,-1,1,4,1,1,4,2,0
1511885113619694,0,-2,-2,1,0,-1,-2,-1
1511885113619694,-2,0,0,-1,0,0,-1,1
1511885113625751,-2,1,-2,-1,-3,-4,0,-1
1511885113625751,0,0,-1,-1,1,2,0,0
1511885113640789,0,-1,-3,-2,-1,-1,-3,0
1511885113640789,-1,0,1,-2,-1,-1,-1,-4
1511885113656795,0,-1,0,-1,1,1,0,2
1511885113656795,1,-1,-2,-1,-2,-4,-2,-1
1511885113663809,0,-1,-2,1,-3,0,-2,-2
1511885113663809,2,1,-2,1,0,5,2,-1
1511885113664811,1,-2,4,-1,-2,-2,0,-2
1511885113664811,-2,-3,-3,-2,0,-1,-1,-1
1511885113679854,1,1,-1,0,0,0,2,2
1511885113679854,-1,-2,1,1,0,-2,-1,-1
1511885113685871,-2,1,0,0,-1,-3,-3,-1
1511885113685871,-2,-3,-1,1,-1,-2,0,0
1511885113701916,0,1,3,-1,-1,-3,-1,-2
1511885113701916,-1,-1,-1,-3,2,-1,-1,-1
1511885113707930,0,-1,4,3,0,0,-3,-4
1511885113707930,1,3,-4,0,-2,2,1,-1
1511885113724010,0,-2,0,2,-1,3,0,0
1511885113724010,1,1,1,-2,-2,-1,-1,0
1511885113724976,-1,-5,-3,-5,-4,-1,-2,-2
1511885113724976,1,-1,-1,-1,-4,-2,-2,-3
1511885113740013,-3,-3,-4,2,0,-1,-1,1
1511885113740013,1,-2,2,0,2,-4,-1,-1
1511885113746072,-1,1,-4,-1,3,0,1,1
1511885113746072,-2,3,10,0,-1,0,0,-1
1511885113762070,1,-3,-10,-2,-1,1,-1,-2
1511885113762070,1,0,7,-1,-3,-3,1,-2
1511885113768086,-2,-1,-1,-1,-2,-1,-1,1
1511885113768086,0,-4,3,1,2,-3,-2,-3
1511885113784132,-2,0,2,-1,-2,0,0,2
1511885113784132,0,-4,-5,0,0,-2,2,-1
1511885113785145,-1,-2,0,-1,3,2,0,1
1511885113785145,0,3,-7,1,-3,0,-2,0
1511885113806192,0,0,1,-2,-1,-1,0,0
1511885113806192,-1,-2,-2,-1,-1,3,-3,-1
1511885113807191,-2,1,1,-2,-1,-1,-1,-2
1511885113807191,-1,0,-1,-1,-1,-1,0,-2
1511885113822230,0,2,-5,-2,-2,-2,-3,1
1511885113822230,-3,1,0,1,-2,-3,0,1
1511885113828250,0,-1,0,1,3,4,0,-1
1511885113828250,2,0,-2,-3,2,0,0,-2
1511885113844351,1,-2,0,0,-2,-4,-2,-2
1511885113844351,0,1,0,-1,0,0,0,0
1511885113844351,-1,1,-4,-1,-4,-2,-1,0
1511885113844351,-1,-2,-4,0,-1,-2,0,0
1511885113859399,-1,0,1,0,2,1,-1,1
1511885113859399,-1,1,-2,0,0,-1,-4,0
1511885113865411,0,-2,-5,0,-4,1,2,0
1511885113865411,1,1,-3,0,-1,0,-1,-2
1511885113882454,-4,-3,0,-2,1,-2,0,-2
1511885113882454,-1,-1,0,-1,0,0,-1,-2
1511885113888473,0,0,-3,0,0,0,-1,0
1511885113888473,-2,-3,1,-1,0,-2,-4,0
1511885113903648,-2,-1,-3,-2,-1,4,1,0
1511885113903648,-1,-1,0,-2,-1,0,1,-1
1511885113904651,-1,0,1,-2,1,-2,0,0
1511885113904651,2,-2,-5,1,4,3,0,1
1511885113926853,1,1,-4,-1,0,-4,-1,-2
1511885113926853,-2,-1,-2,0,-2,2,-4,0
1511885113926853,1,-3,-2,-1,-4,0,-4,1
1511885113926853,0,1,2,-1,-3,-4,-4,-1
1511885113941974,0,-4,-3,-1,1,4,-3,-1
1511885113941974,-1,0,-2,-2,-3,-3,-2,1
1511885113947906,-1,-1,0,1,0,-5,0,-5
1511885113947906,0,2,2,-1,-1,2,2,2
1511885113964013,-1,-1,6,2,-2,0,3,0
1511885113964013,-2,-1,-5,0,3,1,-2,-2
1511885113965013,0,2,6,-1,-1,-2,-2,-1
1511885113965013,-2,-4,0,-2,-2,-2,-3,-1
1511885113980053,-2,0,0,-1,0,-1,-3,-1
1511885113980053,-3,-2,5,-2,0,4,2,-2
1511885113986072,0,1,6,1,1,0,2,0
1511885113986072,-2,-1,3,-2,-3,-2,-3,2
1511885114001109,-1,1,-14,1,-2,1,-2,-3
1511885114001109,1,-3,-13,-2,-4,-2,0,-2
1511885114008313,0,2,14,0,2,1,1,-4
1511885114008313,0,-1,5,-3,-2,-2,-1,-2
1511885114024307,-2,-2,1,0,3,1,-1,-1
1511885114024307,-1,1,-1,2,-2,-1,-2,2
1511885114024307,0,-2,-6,-3,-3,1,-3,0
1511885114024307,-2,0,-5,0,-2,-1,2,2
1511885114039320,1,1,0,0,1,0,-3,-3
1511885114039320,-1,3,2,3,-3,-2,0,-1
1511885114045339,0,-3,-1,-2,2,-2,0,3
1511885114045339,-2,-3,-3,1,1,1,-1,-2
1511885114060606,-1,-2,-1,-1,0,5,2,-1
1511885114060606,4,0,4,-2,-3,-1,-2,-1
1511885114068551,-1,0,-3,-1,-1,-4,-2,-1
1511885114068551,-1,-1,0,0,0,-4,-1,-1
1511885114083566,-1,2,3,0,0,2,2,1
1511885114083566,0,0,-1,-3,-1,-3,0,-1
1511885114090587,-3,0,-6,-1,-1,2,0,-2
1511885114090587,-2,-2,-2,-2,-2,0,-1,-2
1511885114100615,0,-1,0,2,-3,-4,-1,-2
1511885114100615,-2,-2,4,-1,-3,-2,0,2
1511885114105627,0,-1,-6,-1,-1,-6,-4,0
1511885114105627,-1,0,2,0,4,2,3,-2
1511885114120668,0,0,-1,0,-1,-2,-1,1
1511885114120668,-1,2,0,0,0,-1,-2,-1
1511885114128827,-2,0,-2,-1,2,2,1,-1
1511885114128827,0,-2,-2,-2,-2,-2,-2,-1
1511885114142864,1,0,-2,0,-2,-1,-3,0
1511885114142864,-1,-5,-2,-1,0,-4,-2,-2
1511885114150889,1,1,4,-1,-3,3,-2,0
1511885114150889,-4,2,-2,0,0,-2,-2,1
1511885114160052,-3,1,3,-3,-1,1,0,0
1511885114160052,1,-3,4,0,1,-2,2,-1
1511885114166066,-1,-3,-2,1,-5,-1,0,0
1511885114166066,1,1,-5,-2,0,0,-3,-3
1511885114181155,-2,-1,0,-1,2,-3,-1,0
1511885114181155,-1,1,1,-1,1,2,-1,-1
1511885114188128,-3,-4,-3,1,2,1,1,0
1511885114188128,1,-1,-1,1,-3,-3,4,-1
1511885114203169,0,0,-1,1,3,-1,1,2
1511885114203169,0,1,-1,2,2,1,-1,-2
1511885114211195,-2,-1,-3,-5,-4,0,0,-1
1511885114211195,1,1,-2,-1,-2,0,-1,1
1511885114226227,-1,1,0,0,-4,-3,-3,-3
1511885114226227,-1,-2,-1,1,-1,0,-3,-1
1511885114227230,0,1,-3,3,0,5,1,3
1511885114227230,1,-2,1,0,0,-1,1,-1
1511885114240263,0,1,3,-2,-2,-1,0,1
1511885114240263,1,1,-3,-2,-2,-2,-3,4
1511885114248289,0,-1,1,-1,0,-3,-2,0
1511885114248289,-1,1,-3,-1,1,2,1,-6
1511885114263645,0,-4,-2,0,0,0,-1,2
1511885114263645,-1,1,-3,-2,-1,-2,-2,-2
1511885114270486,-1,1,9,-1,-1,-4,-2,-2
1511885114270486,-4,-2,-10,-4,0,-2,0,0
1511885114286527,-1,-1,0,-2,1,-1,1,2
1511885114286527,0,-3,-3,-2,-1,2,1,-1
1511885114287530,-1,-2,-8,-1,1,0,-2,-1
1511885114287530,0,1,8,0,-3,-4,-3,0
1511885114300683,1,-1,-2,2,-3,2,-1,-3
1511885114300683,-2,-2,-1,-3,-3,4,-1,0
1511885114308610,1,1,0,0,-4,-5,0,-2
1511885114308610,-2,-4,0,-1,2,3,0,0
1511885114323686,0,-1,-4,-1,-3,-5,-2,-1
1511885114323686,-3,2,-3,2,-2,0,1,0
1511885114330775,3,-2,-4,0,3,0,-1,0
1511885114330775,-3,-1,0,-1,-1,-1,-2,2
1511885114346886,-1,-1,1,-2,-2,-1,2,0
1511885114346886,0,1,0,-1,-1,-2,-1,0
1511885114346886,-1,-2,-2,1,-1,1,-3,0
1511885114346886,1,0,-3,1,1,2,-3,2
1511885114360899,-4,0,-1,0,-1,-3,-3,-3
1511885114360899,-1,-1,1,-2,-1,2,2,-1
1511885114367981,0,-1,-2,-1,-2,0,-2,-2
1511885114367981,0,0,1,-3,-2,-1,2,-1
1511885114383027,-2,-3,-2,0,-4,1,-6,2
1511885114383027,-1,1,1,0,5,0,4,-2
1511885114391089,0,-3,-1,1,1,0,-2,-1
1511885114391089,-1,-1,0,0,-2,-1,-1,-3
1511885114406128,1,2,1,-1,-1,-1,-1,-1
1511885114406128,-1,-2,0,0,-3,0,-1,0
1511885114407089,-1,3,6,-4,1,-2,2,1
1511885114407089,1,-3,-1,-1,-1,1,0,1
1511885114421127,-2,-3,-4,-2,-1,1,2,-1
1511885114421127,-1,1,1,0,1,-1,-3,-1
1511885114428280,-1,2,-1,-2,-4,-3,3,-2
1511885114428280,3,-3,2,1,-1,-2,-3,-1
1511885114443321,0,1,3,0,1,-1,1,-1
1511885114443321,-1,-1,-10,1,-3,-5,1,-2
1511885114450342,-2,1,-1,1,0,-1,-3,0
1511885114450342,0,0,1,-2,-1,0,-1,-1
1511885114466494,0,-3,-2,-1,1,6,0,-1
1511885114466494,-1,1,1,-1,0,-1,-1,-1
1511885114467384,2,0,-3,1,-6,0,-3,-2
1511885114467384,-1,1,-3,-2,-1,-4,-1,-1
1511885114480422,1,-1,3,1,3,0,2,-1
1511885114480422,-2,-1,1,0,-1,0,0,1
1511885114488443,-1,-3,-4,-1,3,1,-2,-1
1511885114488443,3,-2,1,1,-1,1,1,7
1511885114503621,-1,-2,-4,-2,-1,0,-5,-6
1511885114503621,-1,-3,0,0,5,1,0,3
1511885114510662,-2,1,1,-2,-1,0,0,-5
1511885114510662,0,-3,-2,-3,-3,-3,-1,-1
1511885114526682,1,0,4,1,4,-1,4,0
1511885114526682,0,-3,-3,-1,-3,1,-5,-2
1511885114526682,1,-2,0,2,0,0,3,1
1511885114526682,-4,3,3,1,0,-4,-3,-5
1511885114540718,1,0,-7,-2,-4,0,0,-1
1511885114540718,-1,-4,3,-5,-6,2,1,-2
1511885114547934,-2,-1,-1,-4,-3,-3,0,0
1511885114547934,-3,2,-2,8,16,2,0,-2
1511885114562902,0,0,-1,2,-5,1,3,2
1511885114562902,0,1,-4,-4,-8,-1,-1,-2
1511885114570799,-1,0,-7,7,18,1,-1,-1
1511885114570799,0,1,2,-3,-6,1,1,-1
1511885114585865,-2,-3,-5,-1,-3,-3,-3,-1
1511885114585865,-2,-3,-6,-1,-4,-2,2,0
1511885114586841,1,-2,1,-6,0,2,3,0
1511885114586841,1,-3,-10,-2,-2,0,-7,0
1511885114601880,1,1,3,-8,-1,-2,1,-2
1511885114601880,0,3,-5,1,-6,-4,-5,-1
1511885114607897,-1,-4,3,8,-4,-1,2,1
1511885114607897,0,-2,1,-4,-1,-4,1,-1
1511885114622936,-1,-3,0,-1,-3,-3,-2,0
1511885114622936,2,0,6,-1,5,1,-1,-2
1511885114630957,-1,0,0,-2,-1,0,-3,0
1511885114630957,0,2,0,0,-3,2,-3,-3
1511885114646024,-2,2,4,-6,-2,-3,0,-1
1511885114646024,0,-2,5,4,5,2,2,1
1511885114647001,0,0,-1,-1,-5,0,0,1
1511885114647001,1,0,0,8,-8,0,0,-1
1511885114662046,1,0,0,7,12,-2,-3,-1
1511885114662046,1,1,0,-2,-4,-6,-1,0
1511885114668189,1,-2,2,-7,-8,-1,-2,-1
1511885114668189,-1,2,-1,-1,-2,2,2,1
1511885114683287,-1,-1,-4,-3,-5,2,-2,-2
1511885114683287,0,0,1,-4,-4,-2,-2,0
1511885114690284,-3,-2,-4,2,-1,3,1,-1
1511885114690284,-2,-2,-5,-4,5,0,3,1
1511885114714345,1,2,4,-1,1,1,0,0
1511885114714345,-2,-3,0,-1,4,2,-2,-3
1511885114714345,0,-1,-2,-3,-2,-2,-3,-1
1511885114714345,-4,-3,2,0,-3,0,-3,-1
1511885114722372,0,-4,-3,1,-1,-3,-3,-3
1511885114722372,-2,3,-2,-1,4,0,0,-1
1511885114728384,-1,0,1,0,6,4,-8,2
1511885114728384,-2,0,-3,0,-3,-1,6,-1
1511885114743425,-1,-1,-6,-1,-1,-2,-3,2
1511885114743425,-3,1,3,-6,1,-2,2,-1
1511885114750444,-3,0,-2,3,-4,-4,-1,0
1511885114750444,1,-3,-3,-2,-1,-4,0,3
1511885114766487,-3,0,0,0,0,3,0,0
1511885114766487,-1,-6,-4,0,1,-4,-5,-1
1511885114767490,0,-1,0,-5,-5,-3,3,-2
1511885114767490,0,0,-5,0,4,4,3,-2
1511885114782527,-1,-1,7,0,-3,0,0,-2
1511885114782527,-2,2,-3,-2,4,2,1,-2
1511885114788546,-1,0,0,-4,-5,-3,-2,-2
1511885114788546,0,-3,3,1,2,2,0,-1
1511885114803601,1,0,-5,-3,0,-1,0,-1
1511885114803601,-2,-1,-2,4,2,0,0,0
1511885114810609,1,0,-1,-1,0,4,1,-1
1511885114810609,-1,-2,-1,0,0,-3,-4,-1
1511885114826652,-2,-1,-5,-2,-5,-5,-1,-1
1511885114826652,1,1,2,-1,-5,-2,-2,0
1511885114827648,0,-2,-8,1,-2,-5,2,-1
1511885114827648,3,4,2,0,-3,-2,-1,1
1511885114842773,-2,-3,0,1,2,-1,2,-1
1511885114842773,4,1,-4,-2,-2,1,0,0
1511885114847781,1,-3,-3,-4,-2,-1,0,-1
1511885114847781,-1,-4,0,1,1,-4,-2,-1
1511885114862956,-3,0,0,-2,0,-1,-4,0
1511885114862956,0,1,-4,2,-3,-2,1,-1
1511885114870879,0,2,1,2,2,-1,1,1
1511885114870879,-2,1,2,-5,-4,-1,-1,-2
1511885114885884,0,-2,-1,3,0,1,-1,1
1511885114885884,-2,-1,0,-2,-6,0,0,1
1511885114886883,-3,0,1,1,3,4,1,0
1511885114886883,-1,-3,-2,-3,0,-5,-2,-3
1511885114901929,-1,1,0,-2,-1,2,2,1
1511885114901929,-1,0,1,2,1,0,-2,-2
1511885114907942,1,0,-1,-1,1,-2,-2,-1
1511885114907942,0,0,1,0,-2,4,-2,-1
1511885114922982,0,-1,1,1,-2,-2,-3,-2
1511885114922982,0,0,3,0,2,0,0,0
1511885114931206,-1,-3,5,2,2,-3,1,0
1511885114931206,1,-1,-3,-4,-2,0,-1,1
1511885114946154,0,0,-3,-2,-6,-1,1,-1
1511885114946154,0,-6,2,1,0,-2,0,-2
1511885114947117,0,0,-2,0,-1,0,0,-2
1511885114947117,-2,-3,0,-3,-4,-2,0,0
1511885114962155,1,1,4,3,3,-3,1,-1
1511885114962155,0,-3,-5,-4,-3,-3,1,0
1511885114968173,-2,-3,-1,-4,-6,-5,-2,-1
1511885114968173,-1,-1,3,-3,0,-2,-2,0
1511885114983380,-1,1,-8,-4,2,3,-1,0
1511885114983380,-2,-3,2,11,16,-2,-1,-1
1511885114990395,2,0,-3,-4,-6,0,-2,-1
1511885114990395,-1,-1,-1,-1,-7,0,0,-2
1511885115006438,0,1,3,3,-2,-1,1,-1
1511885115006438,0,3,-1,-6,-9,0,-1,0
1511885115007444,-3,-1,1,-10,2,0,-1,-1
1511885115007444,0,-1,2,9,-4,3,1,-1
1511885115022672,1,3,-4,3,4,0,1,-1
1511885115022672,0,2,-3,-10,-3,-1,-4,-2
1511885115028673,-4,0,1,10,13,1,0,0
1511885115028673,-1,0,-2,-14,-4,0,-2,-1
1511885115043574,0,-1,9,9,0,3,0,2
1511885115043574,1,-2,-10,-2,-5,-4,0,0
1511885115050678,0,1,-2,-18,-1,1,-1,-2
1511885115050678,-1,2,-1,26,6,-4,-1,1
1511885115065723,0,-3,-6,-2,-1,-2,2,-2
1511885115065723,-2,1,5,-4,-3,1,-2,0
1511885115073620,-1,-2,-2,-25,-2,1,1,1
1511885115073620,-5,-2,-3,20,3,3,-1,0
1511885115081641,2,-2,-5,-9,-1,0,0,0
1511885115081641,6,2,9,31,-10,-7,1,3
1511885115087823,0,0,-3,-5,5,1,-4,-2
1511885115087823,-2,2,2,-12,3,-2,1,-1
1511885115102840,-3,-3,2,23,5,0,-3,0
1511885115102840,-6,0,-3,-17,7,4,0,-4
1511885115111037,0,1,-3,-4,-6,-4,-2,0
1511885115111037,4,1,0,26,-2,-3,2,3
1511885115125899,-3,0,1,-2,-3,-1,-1,-2
1511885115125899,-1,-2,-7,-2,6,0,1,0
1511885115133039,-2,0,1,-14,1,-1,0,-1
1511885115133039,-2,-2,-3,-6,-1,1,-1,-4
1511885115149084,0,-1,-2,-13,-2,-1,-3,1
1511885115149084,1,-2,0,-4,-5,-3,1,2
1511885115149969,0,0,2,12,1,2,2,-2
1511885115149969,-3,-3,1,-51,4,5,-1,-1
1511885115163039,1,1,1,9,-4,-4,1,0
1511885115163039,0,-2,-1,18,8,2,-1,1
1511885115171061,-1,-4,1,-52,-6,0,0,2
1511885115171061,0,1,13,54,-3,-2,0,1
1511885115186059,1,0,-13,-33,-1,2,-3,0
1511885115186059,4,-3,-1,-1,2,3,0,2
1511885115193077,-9,-6,-1,21,3,-5,1,-3
1511885115193077,-5,0,-4,-33,3,0,-4,-3
1511885115209259,-4,-1,1,-9,-1,-1,-2,-3
1511885115209259,-4,-1,0,19,0,-2,-1,-3
1511885115209259,8,-4,3,25,-1,-2,0,4
1511885115209259,-3,1,-4,0,2,-2,1,0
1511885115223296,-1,-2,-5,-10,-3,1,0,1
1511885115223296,5,-4,1,-2,-1,-3,-3,-4
1511885115230314,-9,2,6,21,-1,0,-1,1
1511885115230314,-16,-8,-4,-10,-1,-1,-1,-4
1511885115245444,5,6,-5,12,-2,0,-2,-2
1511885115245444,-1,-5,-2,-9,-1,0,-2,-1
1511885115253376,-4,5,-3,3,-4,-2,-4,-16
1511885115253376,9,-5,4,0,1,0,0,12
1511885115268416,20,-4,-4,2,1,2,-2,4
1511885115268416,2,4,2,-13,-2,-3,-3,-1
1511885115269415,4,-2,-10,12,1,-2,2,11
1511885115269415,-3,4,5,-4,0,0,-3,-16
1511885115283524,3,2,2,6,0,0,-1,-2
1511885115283524,-4,-5,-3,-8,0,0,0,6
1511885115290542,2,1,1,13,-4,-1,-3,-9
1511885115290542,1,1,-4,-6,-1,-3,-2,-3
1511885115305582,0,-5,3,2,0,2,5,12
1511885115305582,20,3,-1,-3,1,-2,-5,-1
1511885115313697,-36,-7,4,-2,4,1,2,-4
1511885115313697,30,3,-5,-2,-5,-2,0,0
1511885115328851,-22,0,4,2,0,-4,-2,-7
1511885115328851,4,2,-4,-1,1,6,-3,-11
1511885115329679,-10,-2,2,0,-3,-4,9,9
1511885115329679,-7,-2,-2,-1,0,1,5,1
1511885115342790,2,1,3,-2,5,0,1,3
1511885115342790,-12,-1,0,-4,-1,-2,0,0
1511885115350736,18,6,0,4,-5,1,-6,-2
1511885115350736,-5,-3,-3,0,-1,-2,1,0
1511885115365905,-4,-3,3,10,1,-1,-4,-2
1511885115365905,0,0,2,-18,-4,-5,4,1
1511885115373049,5,-5,-5,-19,2,5,-5,-1
1511885115373049,-5,2,-1,22,-5,-3,-3,1
1511885115389165,0,-6,0,-11,-2,-5,0,0
1511885115389165,-9,4,0,0,2,2,3,-3
1511885115390114,7,1,-3,6,-3,-9,-2,0
1511885115390114,-1,2,0,-14,1,1,0,1
1511885115403108,-3,1,4,2,1,-1,-2,-4
1511885115403108,-6,-5,-8,-4,-6,5,33,-3
1511885115411211,0,-2,1,11,1,2,-3,3
1511885115411211,0,0,-5,-6,-3,-3,2,1
1511885115426168,-3,2,-9,7,-4,2,-2,-7
1511885115426168,0,2,7,-12,-2,-1,-8,3
1511885115433188,5,2,0,0,17,4,2,-2
1511885115433188,-4,-6,4,7,-8,-2,-2,-4
1511885115449421,-3,3,2,-4,6,2,0,-3
1511885115449421,-4,-2,-4,-4,-8,-6,-6,1
1511885115449421,2,0,2,-1,-3,0,-9,-2
1511885115449421,-1,-1,-2,3,0,0,-6,0
1511885115463562,4,0,4,-7,-1,-1,6,1
1511885115463562,-9,-4,-1,19,10,8,-7,-1
1511885115470545,7,0,-1,11,-7,-3,-3,1
1511885115470545,-1,-3,-5,-12,2,-1,7,1
1511885115485712,-1,0,-2,2,-7,-2,-12,-5
1511885115485712,0,-1,8,4,-1,-3,-3,-1
1511885115492727,-2,-2,3,3,-4,-3,-3,1
1511885115492727,2,0,-7,3,9,2,-2,-1
1511885115508810,-8,-4,0,-1,-1,-1,2,0
1511885115508810,1,1,1,-5,2,1,-5,-1
1511885115509768,-4,-4,-5,-7,-2,-3,6,-6
1511885115509768,1,0,1,-17,-3,0,-3,-1
1511885115522890,1,-1,4,12,4,-1,1,-1
1511885115522890,5,-3,0,10,2,0,-3,1
1511885115530966,-3,2,-2,-3,-4,0,-5,0
1511885115530966,0,0,-5,-3,1,1,-1,2
1511885115545955,0,1,-3,-6,-2,-1,-1,1
1511885115545955,0,0,4,-4,-3,-1,-4,-2
1511885115553093,6,2,0,-3,1,1,1,-2
1511885115553093,3,2,2,1,0,0,-4,0
1511885115569015,-7,-5,7,0,0,0,-1,-3
1511885115569015,9,-1,-11,3,2,2,1,2
1511885115570018,0,2,5,-5,-3,-1,2,-2
1511885115570018,-1,0,-1,2,-1,-2,0,1
1511885115583290,-6,-2,1,3,-1,2,-1,-9
1511885115583290,-1,-2,-4,2,-3,-4,-4,-1
1511885115591321,3,-1,-5,-4,1,-1,-1,3
1511885115591321,-3,2,1,-1,-4,-2,-1,1
1511885115605565,0,-1,-3,-5,-1,1,1,-2
1511885115605565,-6,-1,1,-9,1,3,-3,-5
1511885115613504,0,-2,-1,8,-3,-2,3,-3
1511885115613504,1,0,3,-11,-4,0,1,-2
1511885115628856,2,-3,-3,-1,-2,-2,-1,4
1511885115628856,-3,5,-1,-1,0,2,2,0
1511885115629690,-2,-4,-7,-2,1,-1,-1,-8
1511885115629690,-3,1,-1,-2,-2,-3,-6,-2
1511885115642774,4,-5,5,-3,0,0,4,-1
1511885115642774,-2,-2,-5,5,-2,-5,-2,3
1511885115650748,-2,-1,1,-10,-4,1,-1,4
1511885115650748,-1,-1,3,4,1,0,0,-1
1511885115666789,0,2,-9,-4,-1,-1,-2,1
1511885115666789,-2,-3,4,3,-1,0,0,-1
1511885115672925,4,0,1,-2,0,1,-2,-2
1511885115672925,-2,0,2,0,-2,1,0,-3
1511885115688845,-1,-1,-2,-2,-1,-2,-1,5
1511885115688845,-2,0,1,0,2,0,-1,-5
1511885115689848,-4,0,-2,1,2,-2,0,0
1511885115689848,1,1,-4,1,3,1,0,0
1511885115702886,-2,2,0,-1,-5,-4,-2,0
1511885115702886,1,0,0,1,-4,2,1,1
1511885115710910,1,1,0,-1,-3,1,-1,1
1511885115710910,-2,-7,0,-1,1,2,-1,1
1511885115725947,-2,0,-4,-1,2,2,-2,-4
1511885115725947,1,3,-4,-1,-2,-3,-2,-1
1511885115732968,-1,-2,6,2,-1,2,6,3
1511885115732968,0,0,-8,1,-4,-2,1,-3
1511885115749009,-2,-4,-4,7,2,0,-1,-1
1511885115749009,-1,3,6,-4,-4,-1,-1,1
1511885115750008,2,-1,-2,-1,1,0,-1,-1
1511885115750008,-1,-1,-3,0,-1,0,0,0
1511885115763046,-1,-2,1,-2,3,-2,-4,-1
1511885115763046,-2,1,-4,3,4,-2,4,-3
1511885115771226,0,1,5,0,-5,0,-2,-2
1511885115771226,-2,1,-2,1,0,-2,-2,-2
1511885115785342,0,1,-1,-2,-4,1,0,2
1511885115785342,-2,-4,-2,0,1,-3,-1,-2
1511885115793473,0,0,-5,-2,0,2,-3,-1
1511885115793473,2,-3,3,-2,-1,-1,2,-1
1511885115809431,0,1,1,1,-1,-1,0,0
1511885115809431,-3,-3,-3,-3,0,-2,-5,-3
1511885115809431,-3,0,-5,-1,0,-3,-1,-1
1511885115809431,-1,2,-1,1,1,1,-1,-2
1511885115823450,-2,-1,3,-4,-2,1,0,0
1511885115823450,3,1,4,1,-3,1,0,0
1511885115830639,0,0,-3,-1,-2,-3,-3,-1
1511885115830639,0,0,0,-1,0,-3,-4,0
1511885115845502,0,-1,1,-1,-1,0,1,-1
1511885115845502,4,5,5,0,-1,-2,-2,0
1511885115853531,-5,-7,-12,0,1,2,-1,-2
1511885115853531,0,-2,5,0,0,-1,8,0
1511885115868598,1,2,-3,-4,-3,-2,3,-2
1511885115868598,-2,-3,-1,-2,2,-2,-3,0
1511885115869568,6,1,8,0,-3,-1,-2,2
1511885115869568,-4,-1,2,0,0,-1,-1,2
1511885115883664,-2,-1,-14,-1,0,3,-2,-6
1511885115883664,-2,-3,-1,1,-1,1,-1,2
1511885115890743,1,-3,-1,-2,2,-2,0,0
1511885115890743,0,4,2,0,-2,-2,0,-3
1511885115905663,1,1,4,0,-2,1,0,0
1511885115905663,-3,0,1,1,2,-2,-4,-4
1511885115912709,-2,0,-4,-2,1,-2,3,-1
1511885115912709,-1,0,4,-1,3,1,-2,0
1511885115928889,2,2,0,0,0,-4,-3,-1
1511885115928889,-1,-4,-7,-2,-3,-5,-1,0
1511885115929927,0,-2,2,0,0,-1,0,2
1511885115929927,2,0,-15,1,0,2,1,-3
1511885115942934,-1,-1,5,1,-1,-1,0,-1
1511885115942934,-1,-1,-6,-3,-3,4,-2,-3
1511885115951069,-2,0,1,-2,-4,-3,-3,-2
1511885115951069,-1,-3,0,-13,-1,-2,-5,-2
1511885115965989,-2,-2,1,5,3,0,0,2
1511885115965989,1,-1,0,14,0,0,-1,0
1511885115973131,0,-2,-3,-4,-2,-5,-4,1
1511885115973131,-2,0,-1,0,-2,-1,1,-4
1511885115988087,1,-2,7,-3,6,1,0,1
1511885115988087,-3,2,6,-5,-4,0,1,1
1511885115996108,-1,-2,-8,-14,-10,0,-2,-1
1511885115996108,-2,2,14,16,6,2,-1,-1
1511885116003088,-1,1,-4,6,4,-1,1,0
1511885116003088,0,-1,0,4,7,2,2,-1
1511885116011110,-2,1,-2,-17,-6,-1,2,1
1511885116011110,-2,-2,-4,-17,-6,0,-6,-3
1511885116025268,0,-3,-5,19,10,1,2,-2
1511885116025268,-2,1,0,-2,-2,1,0,-2
1511885116033339,-4,-2,4,16,18,5,-1,-4
1511885116033339,1,0,6,-9,8,3,-1,1
1511885116048379,-1,-3,-5,-18,-3,-2,-1,1
1511885116048379,-1,-2,-2,8,-10,-5,2,3
1511885116056404,-1,4,0,14,2,-2,1,-1
1511885116056404,0,-2,-7,-4,-9,-7,-1,1
1511885116063729,-1,-1,1,-12,-4,-2,-1,-2
1511885116063729,-2,-2,-3,-9,18,3,0,0
1511885116070719,-2,-1,-2,6,-17,-3,-2,0
1511885116070719,3,-2,-5,0,-11,-1,-3,-1
1511885116085759,-2,0,4,-12,-1,-4,0,-2
1511885116085759,2,4,10,51,-10,-3,4,1
1511885116092777,-1,-2,0,-10,7,0,-1,1
1511885116092777,-2,0,3,-11,-3,3,-3,-2
1511885116107999,2,0,-4,-2,-19,-4,-2,1
1511885116107999,-1,-2,1,-24,-4,2,-2,-4
1511885116115837,-1,3,5,4,7,-1,0,1
1511885116115837,0,-4,-4,19,-6,-3,0,-1
1511885116130879,-2,-3,1,20,5,2,-3,-1
1511885116130879,-1,-4,0,-6,-2,0,-2,0
1511885116131879,0,1,-5,-19,-7,0,-1,-2
1511885116131879,-1,-1,1,-18,-1,-3,1,0
1511885116146160,0,1,1,16,-1,3,0,0
1511885116146160,1,0,-2,-11,5,-1,-1,-2
1511885116153200,-3,-2,-1,-27,-8,1,0,-2
1511885116153200,-1,2,0,30,9,-3,1,2
1511885116168225,1,2,-3,3,-8,-5,1,3
1511885116168225,1,-2,1,28,-2,-4,0,0
1511885116176138,2,2,3,-39,-5,-5,-1,-1
1511885116176138,-1,-1,-5,3,8,0,-1,-4
1511885116191300,-4,-3,-4,-7,-9,1,0,-3
1511885116191300,-3,-3,-6,-17,-4,-1,-3,0
1511885116192186,1,-1,-5,14,6,1,1,0
1511885116192186,0,-2,10,29,1,-3,0,0
1511885116206219,0,-2,4,-27,2,3,-2,1
1511885116206219,-4,-2,-11,13,2,3,1,-2
1511885116213560,0,-3,3,6,0,0,0,3
1511885116213560,1,0,-1,-14,0,3,-2,-5
1511885116228584,-7,-2,1,-2,-1,1,-1,-5
1511885116228584,2,-2,-1,-7,-4,3,-4,0
1511885116235748,-2,-5,-6,-17,-1,-1,1,-1
1511885116235748,2,-4,0,2,-2,1,1,2
1511885116251823,1,-2,-4,22,4,-3,1,0
1511885116251823,0,2,-2,-33,-6,-2,-1,2
1511885116251823,2,0,3,47,2,0,-2,0
1511885116251823,1,-1,-3,-17,-1,1,-1,-1
1511885116266928,2,1,3,-33,0,-4,-2,-4
1511885116266928,-1,-1,2,-1,-2,-2,1,0
1511885116272882,-1,3,-2,16,0,0,-1,-1
1511885116272882,-5,1,-5,-14,0,2,1,1
1511885116287923,-1,0,5,25,-4,-1,-2,1
1511885116287923,-1,-6,-2,0,3,0,-6,-4
1511885116296139,3,5,3,-30,0,-2,0,-1
1511885116296139,3,-1,-7,7,-4,-3,-1,3
1511885116311103,4,-1,-10,0,1,1,0,-2
1511885116311103,-13,0,2,-11,3,0,-2,1
1511885116311983,1,-4,7,38,0,1,-1,-1
1511885116311983,-3,3,-6,-4,-2,2,0,-8
1511885116326038,-1,3,7,-11,-1,0,0,1
1511885116326038,2,-3,2,-35,-3,0,2,0
1511885116333042,-1,0,-6,43,0,1,2,1
1511885116333042,1,0,-1,-8,0,-4,-1,4
1511885116348465,-2,-4,-3,1,-1,1,-3,-2
1511885116348465,-4,3,4,19,1,2,1,-3
1511885116355420,-1,-1,1,-36,-4,-4,-1,-3
1511885116355420,-1,-1,3,16,-3,-1,-1,-1
1511885116371352,-3,0,-5,1,-2,-1,0,2
1511885116371352,5,2,-1,4,-1,0,-1,0
1511885116372356,-1,-2,0,-20,3,2,-2,-1
1511885116372356,1,-2,-3,-9,-2,1,-1,2
1511885116385481,5,1,9,36,-3,-3,1,3
1511885116385481,-3,4,-3,-7,-2,0,3,-2
1511885116393676,-3,-2,-3,-1,-1,-2,-1,0
1511885116393676,-4,1,1,-10,1,1,0,-1
1511885116407836,1,-1,-2,-13,-2,1,1,-2
1511885116407836,1,1,4,11,-4,-2,-5,0
1511885116415746,1,-2,-7,-9,-1,-1,8,-2
1511885116415746,-2,0,-4,4,1,2,0,3
1511885116431786,-10,0,4,-4,3,1,-4,-4
1511885116431786,3,-1,-3,6,-2,-3,-2,-2
1511885116431786,-3,0,-1,2,-1,1,-3,1
1511885116431786,5,-2,4,-1,2,-1,2,-1
1511885116445998,-4,1,1,0,2,0,3,-2
1511885116445998,-3,-2,-6,-6,-1,-4,-3,-1
1511885116452859,3,2,6,6,0,1,2,4
1511885116452859,3,-4,0,6,-2,-6,0,-2
1511885116467884,-18,-1,0,-13,-4,-3,-3,-2
1511885116467884,7,-1,0,2,2,4,1,-1
1511885116476031,0,1,-1,5,1,-3,0,0
1511885116476031,-2,-1,-5,-3,-3,0,-10,-1
1511885116490988,11,-5,-3,1,-1,-1,6,0
1511885116490988,-6,5,-1,1,-1,3,-1,-2
1511885116491949,3,0,-2,2,-2,-3,-2,0
1511885116491949,-2,1,3,-3,2,-2,-2,-3
1511885116506090,10,0,-5,-5,-2,2,-6,-4
1511885116506090,-7,-4,-2,3,0,1,2,5
1511885116513274,6,-1,1,1,-3,4,-7,-7
1511885116513274,-26,0,-1,0,-3,0,5,1
1511885116528223,0,-4,-3,-1,0,-5,0,-1
1511885116528223,-8,-8,-1,-2,1,-1,1,-11
1511885116535213,5,0,-5,-2,0,-4,5,1
1511885116535213,-3,-5,1,-1,1,-1,1,-1
1511885116553330,8,0,-3,-4,-2,-4,-4,-12
1511885116553330,22,6,2,1,-2,-1,1,16
1511885116553330,-12,-8,2,-1,1,-4,-8,3
1511885116553330,1,2,-2,1,2,2,-2,-6
1511885116565292,8,-2,-2,-1,-2,0,6,5
1511885116565292,0,-4,-3,-1,-1,-3,0,0
1511885116573318,18,2,-3,-1,-1,5,-2,1
1511885116573318,-2,-2,3,-2,-3,0,1,6
1511885116588515,-9,-1,-4,-4,0,2,-7,2
1511885116588515,7,2,0,-2,-3,-1,-3,-10
1511885116595403,-2,6,6,5,0,-2,-1,-2
1511885116595403,-6,-2,-1,0,-1,1,-1,-1
1511885116611416,11,-1,-2,-1,2,0,1,4
1511885116611416,-10,6,-2,-2,-1,-3,0,-5
1511885116612418,-8,-8,1,1,-2,0,-1,-4
1511885116612418,6,0,0,-3,-1,-4,-3,0
1511885116625452,-9,2,-10,0,3,2,-1,-4
1511885116625452,5,-4,4,0,0,-1,2,5
1511885116633474,-12,1,1,0,0,0,0,-1
1511885116633474,5,1,-2,0,-1,3,1,0
1511885116648514,-4,-2,3,0,-3,4,2,3
1511885116648514,-4,-5,-4,-3,1,-3,-1,1
1511885116655533,-3,-1,-7,-1,0,0,1,0
1511885116655533,-4,1,7,1,-2,-2,2,0
1511885116671575,7,-1,3,-2,-1,-2,2,1
1511885116671575,0,-1,-2,-2,-2,1,-3,-1
1511885116671575,-17,-4,-4,1,0,0,-3,1
1511885116671575,6,1,-1,-1,-1,-4,-3,-2
1511885116685625,4,3,4,-3,-1,-3,2,4
1511885116685625,-2,-4,-2,0,0,2,-1,2
1511885116692631,2,3,-1,1,2,1,0,-1
1511885116692631,3,-2,-2,0,1,4,1,-1
1511885116708678,-8,-2,-2,-2,-4,-3,-7,3
1511885116708678,-1,-2,2,3,1,0,-1,-13
1511885116715696,-1,2,-1,2,-3,4,-1,0
1511885116715696,-10,-5,-3,2,-1,-2,-1,-11
1511885116731845,9,-1,0,2,0,1,-2,2
1511885116731845,-3,-2,-2,0,-1,-3,0,5
1511885116731845,-17,-4,1,-2,2,0,1,-5
1511885116731845,5,1,-1,0,-1,-5,1,1
1511885116745941,-5,-2,-3,-2,0,-2,4,-1
1511885116745941,-2,1,-1,1,1,4,-2,-3
1511885116752962,7,1,4,-3,-3,-3,6,1
1511885116752962,3,-1,-3,-1,1,-1,-1,4
1511885116768000,15,2,1,-2,-1,-3,-2,7
1511885116768000,-13,0,2,-3,1,-1,-5,-4
1511885116776022,13,2,1,0,-4,-1,-4,3
1511885116776022,1,2,0,0,0,4,-1,-1
1511885116791116,-26,0,-1,-3,-2,-3,2,4
1511885116791116,16,-1,-5,-1,0,2,0,0
1511885116792065,-6,-3,5,0,-1,-2,-3,-5
1511885116792065,-4,1,-3,-1,-2,-2,2,0
1511885116806102,-3,-4,2,-1,1,1,-4,-6
1511885116806102,-3,-1,-3,-3,-4,-3,1,0
1511885116813183,-3,-1,-4,-1,2,0,-2,0
1511885116813183,7,1,1,-1,-1,-3,-1,-4
1511885116828161,-9,1,-2,1,1,2,1,-6
1511885116828161,1,-1,2,-1,0,-2,-7,0
1511885116835181,7,-1,-1,1,-3,-4,2,1
1511885116835181,0,-6,-4,1,0,5,-1,8
1511885116851268,0,1,1,-2,0,-1,0,-11
1511885116851268,-5,-1,1,1,-1,-1,-4,-2
1511885116852245,1,0,1,-2,-1,-2,-2,-3
1511885116852245,-6,-3,-3,0,0,2,0,2
1511885116865258,-3,2,-1,1,-1,0,-4,-1
1511885116865258,-1,-5,-5,-3,-2,-4,2,2
1511885116873392,6,0,-2,0,-1,-1,-2,-3
1511885116873392,-2,0,-3,-3,3,1,1,1
1511885116888324,0,0,0,0,1,0,-1,-1
1511885116888324,-1,0,2,1,-1,-2,1,-1
1511885116895341,-3,-2,-3,0,4,0,-1,0
1511885116895341,7,0,-3,-1,-1,0,-2,0
1511885116911575,-8,-1,1,0,-3,-1,1,-2
1511885116911575,-1,1,-1,-2,-2,-2,2,0
1511885116912385,7,1,-1,-1,-2,1,2,4
1511885116912385,1,-4,0,1,0,-2,-3,-3
1511885116925418,-2,-2,0,0,-3,1,1,-1
1511885116925418,2,-1,3,-1,0,-2,2,-1
1511885116933439,3,1,-1,-2,-1,-2,-3,0
1511885116933439,-5,1,1,-1,-2,-4,2,-1
1511885116948479,4,-2,-5,-1,5,0,-2,1
1511885116948479,-4,-3,-3,0,-2,-1,-3,0
1511885116955696,-4,1,-3,-2,0,2,-1,-1
1511885116955696,-1,-2,0,1,-1,-3,-2,-1
1511885116970776,-2,0,-2,1,-1,-5,-1,1
1511885116970776,0,3,-4,1,1,4,1,-1
1511885116978797,2,1,0,0,0,-1,-1,0
1511885116978797,-3,-3,-1,-3,-1,-1,2,0
1511885116985816,0,0,0,-1,0,2,-6,0
1511885116985816,7,-3,2,-1,-1,2,11,-4
1511885116992973,-4,-3,-1,-2,-1,-2,-2,-2
1511885116992973,-1,2,0,-1,-3,3,0,-2
1511885117008012,-1,-1,1,-1,-1,-3,1,0
1511885117008012,-2,1,-3,1,1,-1,-2,2
1511885117024056,1,1,-3,-2,-1,1,0,1
1511885117024056,-3,-1,0,0,-3,-3,-1,-3
1511885117031263,2,-1,-2,-1,2,0,-1,-2
1511885117031263,-1,1,1,0,-4,-1,1,2
1511885117039225,-4,-3,-4,0,0,3,1,-2
1511885117039225,2,1,-2,-1,-1,-2,-3,-1
1511885117054139,1,0,-2,-2,3,1,-4,1
1511885117054139,-1,-2,-2,-1,-1,-4,0,1
1511885117054139,-4,-5,-1,1,-2,-3,-4,-3
1511885117054139,0,-2,-3,0,0,0,0,-1
1511885117068176,-2,0,1,1,0,0,2,2
1511885117068176,-3,1,-2,-2,-1,-1,3,0
1511885117076210,0,-2,1,-1,-1,-2,0,-1
1511885117076210,2,-2,-3,0,0,-7,-2,1
1511885117090234,-1,2,-2,-1,0,4,2,-3
1511885117090234,-1,-1,1,-2,0,-2,-6,0
1511885117099259,-5,-1,-1,0,-1,-3,0,-2
1511885117099259,0,-2,1,0,0,4,0,-1
1511885117113484,-2,-1,-1,-1,-2,-2,1,-1
1511885117113484,2,2,1,-3,0,2,-1,-3
1511885117114296,3,-1,0,-1,-1,0,-2,0
1511885117114296,0,3,1,1,0,0,-1,-2
1511885117128501,-1,-3,0,-2,-2,1,-1,0
1511885117128501,3,-3,1,-1,1,0,-4,0
1511885117135354,0,0,-2,-1,-1,-2,-3,-2
1511885117135354,-3,-1,-3,1,-1,2,-2,-1
1511885117150394,0,0,0,1,-5,2,12,-2
1511885117150394,-1,-1,-2,0,0,-2,-1,1
1511885117159444,1,1,-1,0,-1,5,0,1
1511885117159444,-1,-1,5,-1,-1,-1,-2,-1
1511885117173485,1,-2,0,2,-3,-1,-4,2
1511885117173485,-3,-2,1,-2,-3,-1,-2,-1
1511885117174459,-2,0,1,-2,-2,-5,4,-2
1511885117174459,-3,1,-2,0,2,5,1,-2
1511885117188495,4,2,0,1,1,-4,-1,-1
1511885117188495,2,-1,0,-1,-3,0,0,-1
1511885117195624,1,-3,-1,-2,-2,2,-4,1
1511885117195624,1,-2,-2,-2,-1,0,-2,-1
1511885117210589,0,-3,1,0,-1,-1,-1,0
1511885117210589,2,-1,0,1,3,2,2,1
1511885117218573,-1,0,-2,2,1,-4,-4,0
1511885117218573,-1,0,-2,1,-3,-4,-1,-1
1511885117233616,4,-1,-1,-2,0,-2,-8,-2
1511885117233616,-6,-3,1,1,-1,1,1,0
1511885117234621,-2,-2,-3,-1,1,0,-1,-3
1511885117234621,2,2,0,-4,-4,-3,1,-1
1511885117248657,2,0,-3,-2,-1,-3,-4,1
1511885117248657,-4,-2,0,1,-3,0,-3,-2
1511885117255766,0,0,0,-2,1,0,3,-1
1511885117255766,2,-3,0,-1,2,2,1,2
1511885117270809,-4,-2,0,1,0,-4,-1,-4
1511885117270809,1,2,-3,-3,-3,-4,-4,-2
1511885117278828,-1,2,1,1,0,-1,1,1
1511885117278828,1,-2,1,1,2,3,2,0
1511885117293830,-1,1,-3,-1,-2,1,0,-1
1511885117293830,0,1,-2,0,0,-2,0,0
1511885117294829,2,-2,0,-2,-2,3,0,-3
1511885117294829,0,1,-1,-1,1,-2,-5,-1
1511885117307865,0,-1,2,-2,3,0,2,-1
1511885117307865,1,0,-1,0,1,2,-2,-1
1511885117316008,-2,-1,0,-1,0,-2,0,-1
1511885117316008,1,-2,-1,1,-1,-4,-1,-1
1511885117330967,-4,1,3,-1,-2,1,-2,-1
1511885117330967,0,-2,2,0,2,0,-1,1
1511885117338950,-1,-1,-1,-1,4,-3,-2,0
1511885117338950,0,-1,-3,0,2,5,1,2
1511885117354027,0,-2,1,1,1,-1,3,3
1511885117354027,-1,0,-2,0,1,-2,1,-1
1511885117354994,-1,0,0,0,-1,-1,1,-4
1511885117354994,-2,0,-5,-2,-2,-2,-1,-1
1511885117368114,0,-2,-1,-3,-4,0,-4,-2
1511885117368114,-3,-3,-1,1,0,0,-2,-1
1511885117375137,3,-1,-1,0,-4,3,8,-1
1511885117375137,-3,-1,0,0,-1,-4,-2,0
1511885117391209,-4,-1,-2,0,2,3,1,-2
1511885117391209,3,-1,0,1,-2,1,-1,0
1511885117399198,0,-2,0,0,-4,-4,-2,-1
1511885117399198,-4,0,1,-2,1,0,0,-1
1511885117414238,0,-2,-1,0,-4,-2,1,0
1511885117414238,-1,0,-1,-1,-1,-3,-1,-1
1511885117414238,-2,-1,1,-2,-4,0,-3,0
1511885117414238,-1,-2,0,2,-2,0,1,-3
1511885117428458,0,-2,0,-1,-1,1,-2,-1
1511885117428458,-1,-1,-1,0,-1,1,1,-1
1511885117435296,-3,0,-2,-1,1,1,1,-1
1511885117435296,2,-1,-1,-2,0,-4,0,1
1511885117450508,-3,1,-2,0,2,2,-2,0
1511885117450508,-2,-3,-1,-3,-1,-4,-2,0
1511885117458568,1,1,-3,-2,0,0,-2,1
1511885117458568,-1,0,-1,-2,-1,2,-1,0
1511885117473654,-2,-1,-2,-1,-1,-1,5,-3
1511885117473654,-1,0,2,-1,0,-1,-2,-2
1511885117474607,-2,0,0,1,1,-1,-3,2
1511885117474607,-2,1,-1,-3,-2,-2,0,-2
1511885117487768,-1,-1,-1,0,2,2,0,-1
1511885117487768,-1,0,0,-1,-2,-1,0,-1
1511885117495790,-2,-1,-3,0,2,1,-1,1
1511885117495790,-1,1,1,1,-3,-3,-1,0
1511885117511018,0,-1,-1,-1,0,-3,-3,0
1511885117511018,-2,1,0,0,0,1,12,0
1511885117518854,1,-2,1,-2,-2,3,-2,-2
1511885117518854,-1,-2,-2,-1,-1,-1,1,-2
1511885117533895,-1,-4,0,1,-3,-7,0,1
1511885117533895,-1,2,-1,0,0,-1,-2,0
1511885117534898,0,-6,1,-1,0,0,-1,-1
1511885117534898,-1,1,2,-1,-3,0,0,-1
1511885117548191,0,-1,0,-1,0,-5,-3,-2
1511885117548191,-1,-3,0,0,2,0,-2,0
1511885117556117,-1,0,-3,2,-1,1,3,2
1511885117556117,2,-1,0,-1,1,0,-3,0
1511885117571157,0,1,1,1,-5,-3,0,0
1511885117571157,-2,1,-1,1,-5,-1,-3,1
1511885117579197,1,1,-1,0,-4,-5,1,0
1511885117579197,1,-2,0,0,3,-2,-2,1
1511885117594399,0,0,-3,0,2,0,-3,0
1511885117594399,3,-2,0,0,-2,2,0,-1
1511885117595222,0,0,3,-1,-3,-5,-3,-1
1511885117595222,-2,-4,0,-1,2,1,1,3
1511885117608428,1,3,0,-1,1,0,-1,-2
1511885117608428,-1,-1,-1,-3,2,-2,-2,-1
1511885117615250,-1,1,-3,-2,1,-3,-1,-1
1511885117615250,-1,-2,-3,-1,-1,-4,-2,-2
1511885117630293,-2,0,3,-1,-2,1,3,0
1511885117630293,2,-1,-3,-1,-1,-6,0,1
1511885117639414,-4,-1,0,2,-1,2,0,-2
1511885117639414,-1,1,1,-2,-2,-1,-1,-2
1511885117654353,1,-1,-6,-1,-1,-4,-1,0
1511885117654353,-2,-1,0,-1,3,-1,1,-1
1511885117654353,1,3,-3,-2,-1,-3,-1,-1
1511885117654353,-1,-1,0,-1,-1,0,-1,0
1511885117667630,-3,0,0,1,-1,3,-2,-2
1511885117667630,0,1,1,0,-3,-2,-2,-2
1511885117675810,0,-2,0,-2,3,-2,-1,2
1511885117675810,1,1,-1,0,-2,1,0,-3
1511885117690862,0,-3,-4,-2,-3,1,-2,0
1511885117690862,-2,-1,-1,-2,0,-2,-2,0
1511885117698687,-1,2,-2,-2,-1,-1,-3,-3
1511885117698687,2,0,0,3,-2,3,2,-1
1511885117713729,-2,-2,-3,0,1,-2,1,0
1511885117713729,1,1,-3,0,0,0,1,-1
1511885117714728,-3,-3,2,-1,0,0,-1,-2
1511885117714728,0,-2,-1,-2,-1,-1,-2,1
1511885117727795,0,-1,3,-1,4,-1,-1,0
1511885117727795,-2,-6,2,2,-2,2,0,0
1511885117735785,0,0,0,1,0,-2,-1,-2
1511885117735785,-2,-2,-2,-1,0,-2,1,-2
1511885117750863,1,2,2,1,-4,-3,2,-1
1511885117750863,-1,0,1,-2,-2,-1,-1,-1
1511885117759134,-1,2,0,1,1,3,0,0
1511885117759134,1,-3,-1,-2,2,2,-3,0
1511885117774049,0,-1,0,-1,-2,4,-1,-2
1511885117774049,-1,-2,-1,-2,1,1,1,-1
1511885117775116,0,-1,-2,0,-3,-2,-1,-2
1511885117775116,-3,1,-2,1,-2,0,1,-2
1511885117788205,-1,-3,-3,-2,0,-3,-3,0
1511885117788205,-1,3,-3,-1,-3,1,-4,-3
1511885117795223,1,-6,1,0,3,0,2,0
1511885117795223,-1,0,-3,1,-1,-2,1,-1
1511885117811273,-2,-3,-1,-2,-3,3,0,0
1511885117811273,-2,0,3,-2,0,0,-3,0
1511885117819285,-1,1,0,0,-4,-2,-3,2
1511885117819285,-1,-1,-2,0,0,-2,-1,0
1511885117834363,-2,1,3,-2,0,-2,0,0
1511885117834363,2,0,-4,0,1,2,-1,-1
1511885117834363,-1,0,-1,0,-1,1,-1,-2
1511885117834363,-1,1,4,0,0,-3,0,0
1511885117848362,0,-1,-2,0,0,0,-2,2
1511885117848362,-1,0,2,-2,-5,2,0,-2
1511885117855383,0,1,-3,-1,0,-2,0,0
1511885117855383,1,-2,-1,-2,-4,2,-2,0
1511885117870562,-2,1,-2,-1,-1,-4,0,-1
1511885117870562,-1,2,-1,1,3,-1,-1,1
1511885117878769,-1,-2,0,-4,-3,4,-1,3
1511885117878769,1,0,0,-1,-1,-3,-2,-1
1511885117893647,1,-2,1,1,0,-1,-2,-3
1511885117893647,-1,0,-1,0,-4,-4,-1,1
1511885117901641,-2,1,-1,0,5,-2,-1,-1
1511885117901641,-1,1,1,0,1,1,0,1
1511885117908663,1,-2,1,0,-2,0,0,-1
1511885117908663,-2,-1,0,2,-2,-4,3,-1
1511885117915802,3,-1,-3,-2,-3,1,0,0
1511885117915802,-2,-2,-2,-2,-3,-4,-2,-3
1511885117930759,2,1,0,-1,-1,-1,-2,-1
1511885117930759,-2,0,-3,0,0,1,1,2
1511885117938866,0,-4,1,-3,0,0,-1,-1
1511885117938866,1,1,-3,-1,0,-2,0,-2
1511885117952782,0,3,2,-3,-3,0,0,-3
1511885117952782,-2,-1,-3,0,0,2,-2,2
1511885117961831,-3,-1,-2,2,-2,-4,1,-2
1511885117961831,-1,-1,1,0,1,5,2,0
1511885117975882,-1,-4,-1,2,0,2,-3,0
1511885117975882,0,-2,2,-2,2,-1,0,-1
1511885117976867,-1,3,0,-2,-3,-4,-2,-1
1511885117976867,1,-1,-2,1,-5,0,-1,0
1511885117990920,1,-1,-1,0,-1,0,1,0
1511885117990920,0,-1,1,1,-2,1,-1,-1
1511885117998942,-2,1,-3,-2,2,-1,2,1
1511885117998942,-2,-3,0,-1,0,-2,-3,1
1511885118012941,0,0,1,0,1,-2,0,0
1511885118012941,2,-2,-3,-1,0,-4,-2,-1
1511885118020962,0,1,0,2,3,-2,-1,-1
1511885118020962,-1,-1,0,-1,-3,0,0,0
1511885118036245,0,-2,-3,-3,-3,1,-2,0
1511885118036245,-1,-1,1,-1,-2,0,0,-1
1511885118037245,1,-1,-2,-3,-2,1,2,-1
1511885118037245,1,1,-1,1,-1,-5,-1,2
1511885118050283,1,-1,0,-3,1,0,-3,-1
1511885118050283,0,0,-2,4,4,-1,0,1
1511885118059381,-1,-2,2,-2,-2,-1,-2,-2
1511885118059381,-1,-1,2,-2,-1,-1,-1,-1
1511885118073536,-2,-1,-2,1,0,-2,0,-2
1511885118073536,1,1,0,-1,-5,1,1,-2
1511885118081534,-1,1,-2,1,-2,1,-1,-2
1511885118081534,0,0,2,-4,-3,-3,0,0
1511885118096485,-4,-1,-2,2,10,1,0,0
1511885118096485,-2,-1,-2,-2,-1,-1,-3,-3
1511885118097406,0,-2,2,2,-1,1,1,-2
1511885118097406,-1,-1,-2,-3,-3,1,0,-4
1511885118110468,-1,1,-4,0,-1,0,-1,0
1511885118110468,-1,-2,-1,-2,-1,-1,-2,1
1511885118118464,-2,1,-1,-7,-5,1,-4,-1
1511885118118464,0,-2,0,5,-1,-3,-2,-3
1511885118133504,0,-2,-1,3,-1,-1,1,-1
1511885118133504,-2,1,-2,0,8,0,1,-2
1511885118141702,0,-3,3,-3,-10,0,-2,1
1511885118141702,0,0,-3,-11,-8,0,1,0
1511885118156562,-1,0,1,2,1,2,-1,-1
1511885118156562,-1,-2,5,2,-7,-5,-1,2
1511885118157570,0,-2,0,-7,-2,0,1,-1
1511885118157570,-1,0,-2,0,-3,-2,0,0
1511885118170603,0,3,0,6,12,-3,1,1
1511885118170603,-2,-1,-8,-9,-3,0,0,-2
1511885118178812,0,-2,3,10,4,2,-1,-1
1511885118178812,2,-1,0,4,-11,2,0,2
1511885118193664,0,-1,-1,-7,-7,-2,0,-4
1511885118193664,2,-4,0,-2,5,-2,2,0
1511885118201736,-2,-4,-5,-3,7,0,-2,-1
1511885118201736,0,0,6,20,5,0,0,0
1511885118216727,1,-1,-5,-19,-11,-3,-3,2
1511885118216727,-1,1,2,7,4,2,-1,-4
1511885118216727,-3,-2,4,5,3,1,-1,0
1511885118216727,-3,1,-8,11,16,4,0,0
1511885118230882,-1,0,3,-17,2,-2,1,1
1511885118230882,3,2,0,-16,-16,0,0,2
1511885118238785,0,1,-3,7,3,-1,1,1
1511885118238785,-4,-3,5,-7,2,0,2,-2
1511885118252822,0,-1,-1,33,-3,-2,-3,-3
1511885118252822,-2,-4,-3,-18,-4,-4,-5,-3
1511885118261934,-1,1,-7,10,1,0,2,-4
1511885118261934,-1,2,8,7,13,2,0,-2
1511885118275884,3,0,-5,-9,-7,0,-1,1
1511885118275884,3,-4,-4,-10,2,-2,2,3
1511885118276891,2,4,4,7,4,-2,-3,-1
1511885118276891,2,0,-2,16,-8,-3,-1,1
1511885118290927,-4,-4,0,-11,1,3,0,-2
1511885118290927,1,-1,3,37,-2,1,-2,-1
1511885118299066,0,-3,-5,-44,-5,0,-1,1
1511885118299066,-3,-1,0,5,6,0,-2,-2
1511885118313021,0,2,4,12,-7,-4,0,1
1511885118313021,-3,-6,-10,-16,1,0,0,0
1511885118321043,1,1,1,12,-3,-2,-1,0
1511885118321043,0,-2,9,13,7,3,0,-1
1511885118336046,0,2,-7,4,0,-4,4,0
1511885118336046,-4,1,0,-40,6,3,-3,-3
1511885118337051,1,-1,6,32,-1,-3,1,-2
1511885118337051,1,0,-10,-29,-6,-3,-1,1
1511885118351083,-2,-2,6,-10,-1,0,-5,-1
1511885118351083,-2,2,-1,42,11,1,-1,-1
1511885118359226,0,-2,-1,2,-5,-3,-1,1
1511885118359226,-1,-4,1,3,0,-1,-2,-2
1511885118373335,3,4,5,2,-7,0,1,1
1511885118373335,0,4,0,-17,-3,0,0,-2
1511885118381273,-2,-6,-3,14,0,-1,0,1
1511885118381273,0,0,-7,-27,-4,-1,0,0
1511885118396199,-1,-3,-1,10,-2,-1,1,-1
1511885118396199,0,0,7,-3,-3,-1,1,0
1511885118397202,1,2,-8,8,1,4,-1,-2
1511885118397202,-1,0,0,-7,-5,-2,-2,-1
1511885118410264,0,0,-4,-37,6,3,-2,0
1511885118410264,1,-8,0,40,-4,0,-1,0
1511885118418292,-3,-2,-2,-17,0,0,-1,2
1511885118418292,3,4,-5,3,-1,-1,-1,-5
1511885118433298,4,-3,5,18,0,-1,2,-2
1511885118433298,-6,-1,0,-10,1,-1,-2,3
1511885118441346,1,-1,-5,-4,-2,2,1,-5
1511885118441346,1,1,-1,-9,-2,-4,0,1
1511885118456386,2,-2,0,13,-1,-2,0,-1
1511885118456386,0,2,23,0,-1,-2,-1,-1
1511885118457389,-1,-1,-30,-15,1,-5,-1,-1
1511885118457389,-4,-1,9,-8,-3,-1,0,0
1511885118470396,-2,-2,-11,2,4,1,-3,0
1511885118470396,2,4,10,-7,-1,0,1,-1
1511885118478418,-2,4,8,12,0,-2,-3,0
1511885118478418,3,-3,0,-4,-2,-1,-1,6
1511885118493458,0,3,-7,-6,-1,0,-2,-4
1511885118493458,-16,-2,-2,10,-1,-6,-5,-9
1511885118501479,13,-1,14,-11,0,-3,1,3
1511885118501479,1,-1,1,5,-1,0,-1,-3
1511885118516519,-4,-1,-2,-12,1,2,4,7
1511885118516519,-2,2,1,4,3,5,2,-5
1511885118517522,-2,-4,-10,-6,-5,-4,7,0
1511885118517522,6,2,4,1,-1,1,1,1
1511885118530556,-16,-3,3,3,-1,-3,-3,3
1511885118530556,6,4,-6,-4,-4,-4,-4,0
1511885118538578,3,-6,6,14,-1,1,-3,1
1511885118538578,-5,-1,-3,-30,-6,-5,0,-7
1511885118552615,15,4,3,7,-1,4,0,0
1511885118552615,5,2,-11,-1,3,3,2,3
1511885118561639,-10,-3,7,-7,2,-3,-3,0
1511885118561639,-2,-1,-5,8,1,3,-1,-5
1511885118576679,-7,-1,0,-24,2,2,-4,0
1511885118576679,3,-4,-1,39,-5,-6,8,1
1511885118576679,6,4,-1,-17,-2,4,-5,-3
1511885118576679,-17,-10,1,2,-1,1,-2,-2
1511885118590716,7,-2,0,-3,2,0,0,3
1511885118590716,11,0,-5,-11,-1,2,-10,-1
1511885118598738,-16,3,1,-5,-1,1,0,-1
1511885118598738,1,-1,-3,-8,-4,-5,-1,0
1511885118612775,-2,2,-5,1,-3,-1,0,-4
1511885118612775,6,-3,-4,-6,-2,0,-1,0
1511885118620796,-4,1,3,1,0,-3,1,-1
1511885118620796,0,-12,-3,5,3,2,-4,-1
1511885118635836,-2,-5,0,9,2,4,-1,0
1511885118635836,-5,-1,-2,-21,-3,-8,-1,-4
1511885118636839,2,3,-3,-1,-9,0,-4,-1
1511885118636839,-2,0,2,20,-1,4,-1,1
1511885118650876,2,-2,-2,-2,1,-5,0,-3
1511885118650876,-4,-4,-7,-5,-3,2,2,3
1511885118658897,-1,-1,1,-17,2,1,1,-2
1511885118658897,6,2,-4,1,-2,-2,-3,2
1511885118672935,-12,-1,0,14,-3,0,-3,-7
1511885118672935,0,-2,-1,-19,-6,2,0,3
1511885118680956,-3,2,5,2,3,-2,0,-3
1511885118680956,0,0,-5,8,-4,1,1,0
1511885118695997,-2,3,9,-2,-2,-1,2,-4
1511885118695997,0,-1,-2,-2,1,2,-3,1
1511885118696999,-1,-6,2,5,-4,2,-3,-1
1511885118696999,-2,3,-2,5,9,2,3,3
1511885118710034,2,3,2,13,-1,0,1,-7
1511885118710034,-6,-2,-3,-16,-2,-2,-3,-2
1511885118719057,-2,-2,-4,-13,2,-2,-2,0
1511885118719057,-1,8,20,32,0,-4,-4,0
1511885118733101,1,-7,-26,-10,-5,-3,-1,3
1511885118733101,-1,-2,-2,10,4,2,2,-1
1511885118741118,-13,-1,3,3,16,4,5,-4
1511885118741118,11,9,-8,-21,-3,0,-2,-1
1511885118756157,-2,-6,12,6,-2,-1,-5,1
1511885118756157,6,3,0,3,0,1,-1,0
1511885118757160,-6,1,-2,-4,-5,0,1,5
1511885118757160,-9,-1,-4,-1,3,-1,12,-4
1511885118770195,14,-9,6,-1,2,-7,-4,-1
1511885118770195,-13,4,5,1,3,2,-4,2
1511885118779219,-6,-11,-18,0,-7,-6,-2,-8
1511885118779219,-1,1,-4,-5,0,1,-2,1
1511885118793256,5,3,4,-3,-1,-1,3,2
1511885118793256,-8,-7,8,3,-1,-1,2,-5
1511885118801303,8,4,6,8,3,1,-4,1
1511885118801303,-6,2,-12,-10,0,0,-7,-1
1511885118815314,-5,-21,-18,-5,0,3,4,1
1511885118815314,1,4,-19,2,3,-1,1,-4
1511885118823335,3,8,13,0,-2,-3,-1,1
1511885118823335,3,-11,2,-8,-3,-2,-5,0
1511885118830354,-4,9,4,-2,-1,2,2,-3
1511885118830354,2,-3,6,-2,-2,-4,0,4
1511885118838379,4,5,-2,6,-9,2,-1,-1
1511885118838379,1,-7,-10,-3,-5,-1,7,-1
1511885118853605,3,0,4,0,-2,-4,-5,0
1511885118853605,-3,1,11,2,1,-2,-2,0
1511885118861746,-7,-9,-9,-4,-2,-2,0,-2
1511885118861746,6,0,9,-2,-1,8,0,3
1511885118875775,-13,13,6,-2,0,-1,0,-6
1511885118875775,4,-8,-17,-3,-2,1,-4,1
1511885118883846,7,-4,17,2,3,1,-5,6
1511885118883846,-1,-4,-15,-1,2,-1,-3,-4
1511885118890865,-2,9,12,-1,5,2,5,1
1511885118890865,-4,2,-4,1,-1,1,-4,-2
1511885118897912,2,8,8,2,1,-3,-2,5
1511885118897912,-2,-5,6,-1,1,-1,-2,-3
1511885118912924,3,1,-7,-1,1,1,-5,1
1511885118912924,-1,7,-3,3,2,-1,1,-1
1511885118920945,2,-4,-4,2,1,3,3,1
1511885118920945,1,0,8,-5,-2,-1,-9,0
1511885118935985,0,-3,5,2,-2,-4,0,0
1511885118935985,-8,1,0,3,2,3,3,-2
1511885118944007,1,-11,-6,-4,-4,-3,2,-5
1511885118944007,2,16,23,4,2,-3,-26,-1
1511885118959047,-7,-18,1,-3,-1,-3,-3,5
1511885118959047,6,3,-18,-4,-1,-1,-4,-9
1511885118959047,-1,-8,-9,-2,-1,-1,-2,-3
1511885118959047,-3,5,21,5,-1,-2,3,-1
1511885118973084,0,-5,-8,0,-1,5,0,-1
1511885118973084,4,16,32,2,-3,-2,-1,2
1511885118981121,-1,-7,-2,2,0,-5,-1,-1
1511885118981121,5,5,-8,-5,-2,2,4,0
1511885118996144,-3,-2,-11,-5,-3,-1,7,-1
1511885118996144,-4,-7,-6,-1,-1,0,0,1
1511885119003339,1,11,4,7,4,0,1,-1
1511885119003339,-3,-8,-3,-9,-3,0,5,-2
1511885119018380,-4,7,-8,3,1,2,-4,-3
1511885119018380,5,-2,-4,-4,-6,-1,-1,4
1511885119019378,4,0,12,2,-1,-5,-1,-1
1511885119019378,-4,-6,-17,4,4,1,9,-2
1511885119033420,3,3,8,-3,-4,1,-9,-1
1511885119033420,-3,-6,-6,-1,2,-1,3,-2
1511885119041441,-1,9,-5,-2,-5,-3,9,-3
1511885119041441,-1,-8,-23,-8,-4,-6,2,0
1511885119055478,1,0,6,2,-6,3,1,1
1511885119055478,-1,-7,20,27,56,3,1,-3
1511885119063596,7,3,2,-12,-19,-4,-7,1
1511885119063596,-1,3,5,4,1,-1,0,-1
1511885119078736,3,3,7,-21,-23,-3,-1,-3
1511885119078736,-2,-12,-24,13,13,1,-4,-1
1511885119079541,1,0,15,-7,-7,0,4,2
1511885119079541,-5,-3,-8,5,6,3,3,-2
1511885119093603,-1,0,-13,-2,7,-5,5,0
1511885119093603,8,3,33,-1,-29,-2,3,7
1511885119102601,-6,-8,-28,5,-2,1,-3,-3
1511885119102601,-1,1,15,-16,-8,-4,-1,1
1511885119115810,2,5,-2,5,-1,-4,0,-1
1511885119115810,-1,-3,8,-3,0,1,-2,-3
1511885119124660,-3,-5,5,-3,-11,2,-6,-2
1511885119124660,-1,3,-6,-2,-4,-4,2,0
1511885119137697,-1,-4,-2,4,10,2,-3,0
1511885119137697,-2,-5,-1,-14,-12,-6,-2,-1
1511885119146724,3,3,-12,-3,8,0,-25,1
1511885119146724,-7,0,3,17,3,0,-4,5
1511885119152737,-2,1,4,-13,5,-2,-3,-10
1511885119152737,-3,-1,-6,7,-8,-1,5,0
1511885119161761,3,1,-2,-7,-3,-2,0,1
1511885119161761,1,-2,-8,4,1,1,-2,-2
1511885119175981,1,-10,-5,12,7,-2,-3,3
1511885119175981,-4,8,-4,-27,-11,0,-5,-3
1511885119185053,3,2,0,9,11,2,8,0
1511885119185053,2,-2,-2,-18,-11,-3,-1,0
1511885119198255,-4,3,1,11,4,3,4,0
1511885119198255,-1,0,-6,23,10,1,0,-2
1511885119207095,-5,-1,6,14,0,-3,3,-2
1511885119207095,-1,3,-2,-12,-2,2,1,-1
1511885119213114,1,2,9,0,-12,-1,-3,1
1511885119213114,0,-4,-15,-10,1,-4,2,0
1511885119222135,-5,0,0,-1,12,3,4,-1
1511885119222135,-3,-1,-5,12,3,2,-3,-2
1511885119236196,1,1,2,5,3,-2,-2,-3
1511885119236196,-4,1,1,3,-6,-1,-2,1
1511885119244197,1,0,-6,-9,0,2,-2,-1
1511885119244197,2,-1,5,-3,4,-1,1,-2
1511885119258416,-1,1,-10,1,2,-1,1,-1
1511885119258416,1,-1,-3,-6,-7,2,1,-2
1511885119267256,-2,-2,-4,7,3,-2,-2,1
1511885119267256,2,0,7,7,-2,-2,-1,-3
1511885119273274,-1,-5,-6,3,0,2,7,1
1511885119273274,1,1,0,-21,-1,-3,-6,-1
1511885119282294,-15,-4,3,-5,1,1,3,-3
1511885119282294,10,-3,-2,15,0,-3,-1,2
1511885119295509,-2,4,6,-15,-2,-1,-1,1
1511885119295509,2,-4,-6,18,-1,0,-1,-2
1511885119304354,-1,2,-12,-23,3,-2,3,0
1511885119304354,-4,1,10,-9,-1,-1,4,-1
1511885119318496,-4,-6,-7,-19,1,-1,-3,1
1511885119318496,2,6,2,12,-3,0,0,0
1511885119327570,-2,-3,4,11,-4,-2,0,-2
1511885119327570,3,0,-6,1,-2,0,-10,-2
1511885119333573,0,1,3,-9,0,-4,1,4
1511885119333573,-1,0,-4,-10,-4,0,-1,-1
1511885119342602,5,0,-1,7,-2,-1,3,3
1511885119342602,0,2,2,-7,3,-2,-1,0
1511885119355671,4,1,2,-2,-1,4,-4,2
1511885119355671,0,1,3,7,-2,0,0,-1
1511885119364653,1,-6,-3,14,-4,0,0,-1
1511885119364653,-7,1,0,-15,1,1,1,0
1511885119377704,2,0,-7,7,0,-2,-3,-4
1511885119377704,2,-4,-6,-10,-2,-2,2,0
1511885119386714,1,6,6,-1,1,0,0,-1
1511885119386714,4,1,-3,0,1,1,-4,3
1511885119392730,-6,-3,0,6,0,-2,0,-2
1511885119392730,0,-3,5,-5,-1,-1,-2,0
1511885119401754,-1,1,2,-3,-1,-3,3,-4
1511885119401754,-1,-6,-6,11,1,2,4,0
1511885119415788,1,3,5,0,-3,-1,-1,-2
1511885119415788,-5,-3,-8,-6,-1,0,-1,4
1511885119424953,1,3,2,-16,1,1,-4,-4
1511885119424953,-18,-5,8,24,2,1,3,0
1511885119438212,-5,-2,2,2,3,0,-1,-4
1511885119438212,1,-8,-9,-1,-3,3,37,-2
1511885119447235,1,4,13,-6,-2,1,-3,2
1511885119447235,3,-3,-10,-4,-2,-1,0,-1
1511885119453253,2,3,-7,-11,-2,-2,15,-2
1511885119453253,-8,-1,5,11,-1,-3,-11,-2
1511885119462273,2,-3,-9,-3,-2,0,-2,-1
1511885119462273,-4,2,-3,-8,-1,0,2,-5
1511885119475493,-1,-2,2,5,-1,0,-8,3
1511885119475493,2,5,0,-10,0,0,-4,-1
1511885119484408,4,1,-8,5,0,-3,2,5
1511885119484408,-4,-8,8,-2,1,-4,-4,-1
1511885119498478,1,1,-8,-4,-3,-1,-2,-3
1511885119498478,-3,4,4,-7,-1,0,-6,-3
1511885119507605,7,-7,-2,2,-3,-2,-4,-1
1511885119507605,-2,1,9,-2,-1,0,-2,-1
1511885119513560,2,-11,-6,2,-2,0,-1,-2
1511885119513560,0,-9,-8,3,0,1,0,2
1511885119522664,3,10,10,2,-3,0,-1,-4
1511885119522664,-1,-1,-7,-13,-3,-4,-7,0
1511885119535706,-2,0,2,4,-1,4,25,1
1511885119535706,-1,1,3,0,-3,-1,-8,-2
1511885119544790,-4,-5,-3,-1,1,1,4,-1
1511885119544790,9,1,-4,2,1,0,-1,4
1511885119557835,-1,1,1,3,-3,-1,-10,-2
1511885119557835,-3,4,4,0,0,-3,-4,0
1511885119566816,-6,-3,-6,-2,1,0,5,-2
1511885119566816,0,2,0,-1,-4,-2,1,-3
1511885119572858,-4,-3,-5,0,0,1,-14,-1
1511885119572858,15,2,3,-3,-1,-1,32,1
1511885119581853,-14,-3,-6,-1,-1,2,-5,-3
1511885119581853,3,0,-2,1,1,0,2,2
1511885119596094,-2,2,5,0,0,-1,-9,-4
1511885119596094,-5,-3,-3,-4,-2,0,-16,-2
1511885119605145,-1,-2,0,0,0,-3,0,0
1511885119605145,-4,-2,1,-1,-3,0,7,-4
1511885119618180,-3,1,3,2,2,-2,0,-3
1511885119618180,3,0,7,-2,-2,-4,-2,-1
1511885119627204,-1,2,-7,1,0,7,4,0
1511885119627204,-3,1,2,2,3,-3,-6,-2
1511885119633221,3,-2,4,2,-5,0,-17,1
1511885119633221,-2,-1,-10,1,2,-2,11,1
1511885119642244,-4,0,32,-5,-5,-5,-4,0
1511885119642244,4,2,-44,-3,-2,0,0,0
1511885119655283,3,5,7,-1,-4,1,5,1
1511885119655283,-14,1,-3,-1,1,-1,-7,-4
1511885119664309,-2,-5,19,2,-3,0,-2,-3
1511885119664309,7,0,-24,-2,7,3,7,0
1511885119678340,4,4,13,-1,-2,0,3,1
1511885119678340,-1,-1,-11,-4,-1,-1,-9,-1
1511885119687369,-3,-6,1,3,3,-1,3,0
1511885119687369,-3,2,20,2,1,2,-5,-1
1511885119692645,1,-5,-22,-5,0,-4,1,-1
1511885119692645,-4,1,8,1,1,2,-17,-3
1511885119702565,5,1,-8,2,-2,-2,-11,2
1511885119702565,2,1,-2,-1,-2,-2,1,0
1511885119715623,1,-3,-4,-2,3,0,8,2
1511885119715623,0,-5,11,-1,-8,-3,-1,1
1511885119724623,-2,-4,-16,-6,-2,-3,4,0
1511885119724623,-5,-1,24,4,3,2,-2,0
1511885119737660,-3,0,-17,2,0,-6,-13,-2
1511885119737660,2,-1,9,-3,-5,-2,4,0
1511885119746866,1,5,-8,1,3,-4,1,0
1511885119746866,-1,-3,6,-7,-5,-4,2,-2
1511885119761759,-4,-3,7,0,-8,-1,-3,1
1511885119761759,4,0,-1,13,20,4,-1,0
1511885119763726,2,3,-8,-4,-1,-2,4,1
1511885119763726,0,-3,4,-4,-8,0,1,-2
1511885119775762,-3,-1,-10,-4,-4,-1,2,2
1511885119775762,-3,-2,-5,-6,-5,2,-2,1
1511885119784957,6,0,-3,-7,-1,-2,-1,-2
1511885119784957,-3,1,4,13,5,1,-3,-3
1511885119798062,0,-2,1,-2,-3,-1,2,1
1511885119798062,-1,-2,-4,-3,-7,1,0,-2
1511885119807002,-4,-2,0,0,4,3,-3,-3
1511885119807002,1,2,-25,-9,-16,-2,-1,1
1511885119812985,-1,-10,2,6,10,0,2,-3
1511885119812985,-2,2,-1,-2,2,-4,-1,-1
1511885119822055,-2,-1,-2,-6,-5,3,9,1
1511885119822055,-1,-4,-1,1,1,0,-2,0
1511885119836047,2,5,5,7,13,0,-4,-1
1511885119836047,2,-3,-6,-3,-6,0,0,0
1511885119845100,0,1,-2,5,3,1,4,-1
1511885119845100,2,0,2,-4,-5,-4,1,-1
1511885119858104,-2,3,-4,-3,-1,0,-1,-2
1511885119858104,1,-3,6,3,-4,-4,-2,0
1511885119867131,1,0,-5,0,1,1,-1,1
1511885119867131,-3,0,4,3,0,1,-2,-1
1511885119873199,-3,0,2,-6,-2,0,0,-2
1511885119873199,0,4,-5,-1,2,-1,-2,-2
1511885119882190,-1,-1,-4,2,-1,-1,-3,1
1511885119882190,-1,-5,-4,-3,2,-6,-5,1
1511885119895304,1,0,6,2,2,0,8,0
1511885119895304,4,1,0,-2,0,-1,-1,-1
1511885119904230,-3,0,2,-1,0,-2,-4,-1
1511885119904230,-2,0,9,2,5,2,-2,-1
1511885119918267,-1,-1,-8,-4,-6,0,-2,-3
1511885119918267,1,-2,-4,0,0,1,0,-2
1511885119927320,0,-3,-1,0,-1,1,-2,-1
1511885119927320,0,0,5,-3,0,-2,0,0
1511885119942332,0,1,-2,1,-5,4,2,-1
1511885119942332,-2,0,-8,-1,-1,1,1,-1
1511885119943331,1,-1,-1,0,-3,-2,-5,-3
1511885119943331,0,-2,5,-1,2,0,1,0
1511885119955366,-1,-3,3,0,1,0,-5,-2
1511885119955366,-4,-2,1,-1,-2,0,-1,-1
1511885119964387,-1,2,1,1,1,-1,2,-2
1511885119964387,0,-2,-10,-2,-3,-1,-2,-2
1511885119978431,0,3,1,-1,1,-2,10,-3
1511885119978431,0,-3,0,-1,1,-4,-1,1
1511885119987451,0,-4,-2,1,-2,1,0,-1
1511885119987451,0,0,2,0,0,1,4,-1
1511885120001488,-3,-4,-4,0,-2,0,-4,0
1511885120001488,-3,3,1,-1,1,-3,-2,-2
1511885120003491,0,0,-2,-1,-1,-3,-1,0
1511885120003491,-3,-1,-5,-4,-4,-1,-1,1
1511885120015523,0,-1,0,-2,-1,-2,-5,-1
1511885120015523,0,1,-2,0,-2,2,3,0
1511885120024547,-2,0,2,-3,-1,0,-3,-1
1511885120024547,-1,3,2,-2,-3,1,1,-2
