timestamp,emg1,emg2,emg3,emg4,emg5,emg6,emg7,emg8
1511883598135099,-9,-72,-111,49,5,25,-4,-7
1511883598135099,-19,-108,-90,26,1,32,-3,-4
1511883598136128,-32,-123,-77,14,-19,49,-5,2
1511883598136128,-25,-99,-120,-21,-9,28,-5,3
1511883598137131,-11,-114,-106,-26,-5,18,-12,7
1511883598137131,-15,-118,-128,-19,1,21,5,3
1511883598139110,-13,-128,-126,-13,10,-8,-2,-9
1511883598139110,-11,-39,38,-27,-5,-52,3,-11
1511883598148639,-14,72,110,20,-5,-31,5,-1
1511883598148639,-12,120,127,8,-5,-33,-13,-2
1511883598156658,-16,127,127,-2,-1,4,2,7
1511883598156658,-11,114,104,16,-7,-16,-5,45
1511883598163176,-22,105,125,-11,6,-32,-9,53
1511883598163176,-20,103,127,-21,-1,-38,-7,54
1511883598176826,-14,93,118,-28,-3,10,-6,45
1511883598176826,-16,60,82,-12,-5,47,0,19
1511883598187855,-28,47,84,-32,-3,1,0,-6
1511883598187855,-27,47,55,-12,-2,14,11,0
1511883598191892,-25,41,38,-10,16,-22,-1,-7
1511883598191892,-25,21,26,-15,0,30,-1,-36
1511883598207907,-43,25,22,-12,-11,35,-3,-28
1511883598207907,-49,14,9,-54,0,42,10,-16
1511883598214926,-75,18,13,-44,5,20,-5,-9
1511883598214926,-38,9,9,-70,-3,3,-2,11
1511883598255036,4,5,1,-39,10,26,5,5
1511883598255036,18,5,2,8,3,6,-8,-19
1511883598256038,41,5,2,-21,-9,-26,9,-17
1511883598256038,57,4,1,-17,-3,-22,-3,-21
1511883598256540,28,2,0,-12,6,-10,-9,-31
1511883598256540,11,3,1,-49,-6,95,1,-15
1511883598259046,5,2,1,-64,-4,-34,11,-11
1511883598259046,-11,111,1,-81,-11,-39,5,-17
1511883598267663,0,122,0,-51,-15,-12,8,-17
1511883598267663,-2,127,-1,-30,4,-8,5,-13
1511883598273679,-7,10,1,-6,1,108,2,-2
1511883598273679,-51,-78,0,-14,8,37,5,11
1511883598282703,-110,-34,0,31,9,-24,-4,8
1511883598282703,-111,10,0,47,-9,-107,1,4
1511883598296740,-56,51,0,46,-20,-75,-12,1
1511883598296740,27,76,0,62,-14,-31,-2,-11
1511883598305764,37,37,0,36,-16,29,-4,-4
1511883598305764,127,4,15,96,-6,17,-5,-8
1511883598311804,118,13,57,46,4,100,-2,0
1511883598311804,108,31,89,42,2,127,-13,-16
1511883598327824,87,2,25,28,10,127,9,-5
1511883598327824,29,18,15,-34,8,127,10,15
1511883598333868,4,6,-32,7,14,112,3,32
1511883598333868,-20,-12,9,48,9,127,4,65
1511883598342862,-8,-23,21,63,2,126,13,75
1511883598342862,6,-48,23,61,-2,80,-3,50
1511883598356946,-3,-87,13,76,14,21,-3,10
1511883598356946,-13,-53,5,50,-6,-40,-3,-12
1511883598364971,0,-61,-21,42,-4,-90,0,-37
1511883598364971,10,-51,-113,35,2,-74,0,-50
1511883598370988,5,-10,-95,14,5,-90,-1,-56
1511883598370988,11,41,-89,5,10,-7,4,-41
1511883598388009,35,45,20,-9,8,-92,-2,-41
1511883598388009,8,29,58,-3,20,-103,0,-41
1511883598394026,8,45,48,7,11,-120,5,-16
1511883598394026,24,0,4,-11,-31,-128,-5,24
1511883598403050,28,-1,19,-17,-43,-86,7,24
1511883598403050,4,-20,84,-45,-30,-48,7,37
1511883598416085,-16,-4,32,-56,-17,-39,10,38
1511883598416085,-30,-27,33,-16,13,-27,9,4
1511883598425154,-42,-18,-23,-31,11,-11,1,-1
1511883598425154,-56,87,-17,-25,10,-22,10,36
1511883598431155,-59,34,27,-1,14,-26,-6,30
1511883598431155,-44,-21,6,-12,11,-14,11,39
1511883598448170,-26,-47,59,20,-5,-7,-4,14
1511883598448170,-21,-83,63,42,-2,-6,0,20
1511883598454187,-5,-48,54,17,-8,-13,3,31
1511883598454187,-9,-45,41,-3,14,-16,7,17
1511883598463244,-8,-49,40,-33,17,1,5,4
1511883598463244,-3,-53,-34,-13,7,22,-3,0
1511883598476304,-9,-21,-51,-1,10,34,3,-7
1511883598476304,-14,-120,-58,-13,8,-1,-12,-27
1511883598485302,4,-112,-70,-13,20,-4,6,-14
1511883598485302,15,-85,41,-22,8,14,8,-15
1511883598499340,-17,38,110,-32,1,-8,-20,-40
1511883598499340,16,125,89,-11,4,-5,2,0
1511883598508390,-111,127,-15,6,-1,-67,-8,23
1511883598508390,-123,124,-120,27,8,-104,-15,10
1511883598514405,-25,114,-128,9,17,-94,-8,6
1511883598514405,58,124,-121,-4,14,-64,-3,-6
1511883598523432,127,113,-128,-8,2,-12,-3,39
1511883598523432,127,86,-110,-32,-3,21,-4,77
1511883598536464,122,66,-92,-8,-10,52,-2,127
1511883598536464,88,58,-85,-1,-10,44,-3,126
1511883598545461,103,47,-60,18,-4,47,-14,62
1511883598545461,71,37,-43,-14,-12,63,-5,-16
1511883598559000,64,28,-27,18,-8,88,1,-68
1511883598559000,38,16,-36,-14,-10,90,7,-87
1511883598567579,31,21,-18,2,8,82,3,-93
1511883598567579,37,18,-1,-3,-6,30,1,-97
1511883598573589,24,6,-19,12,-2,-2,-2,-95
1511883598573589,4,15,-120,8,5,-22,6,-78
1511883598582619,11,118,-113,-1,-1,-17,3,-59
1511883598582619,14,127,-128,1,0,-19,-1,-45
1511883598596659,116,87,-128,-15,-5,-28,4,-38
1511883598596659,104,-2,-119,-1,-9,-40,13,-16
1511883598605654,127,-60,-73,-2,-16,-39,0,-17
1511883598605654,-51,-53,86,-7,4,-35,7,-17
1511883598618718,-120,-104,116,-15,2,-41,-5,6
1511883598618718,-128,-63,-54,10,-5,36,-8,4
1511883598627713,-128,-61,-35,56,2,86,-2,10
1511883598627713,-91,-2,-128,71,4,99,-6,13
1511883598633728,-62,9,-11,83,2,77,-4,-1
1511883598633728,-20,21,123,55,16,3,-12,-3
1511883598642752,20,31,127,-8,5,-21,-6,-6
1511883598642752,53,1,-17,1,2,-44,-29,-8
1511883598656792,30,15,-127,-48,-15,-38,-7,2
1511883598656792,29,13,23,12,2,-46,-7,-1
1511883598665347,12,20,82,31,7,-49,2,-1
1511883598665347,33,-10,127,-35,25,-42,10,-4
1511883598679386,24,-12,58,-16,3,-21,2,-26
1511883598679386,7,20,-47,71,-1,-24,-2,-37
1511883598687433,-9,1,38,103,-5,-25,-6,-23
1511883598687433,19,-9,-38,127,-13,-15,-7,-23
1511883598693423,11,11,-65,127,-10,-6,-9,-3
1511883598693423,-9,9,-87,49,-10,-8,-14,-18
1511883598702473,-10,3,67,-54,0,-10,-9,-29
1511883598702473,18,-7,82,-122,-2,-7,-1,50
1511883598716484,2,8,17,-128,5,-1,10,57
1511883598716484,-8,3,63,-128,-1,-4,-2,91
1511883598725515,-2,-7,-96,-90,1,-4,-5,89
1511883598725515,12,111,-79,83,-6,-4,-21,-12
1511883598738560,105,-94,-54,-86,-3,0,-6,-54
1511883598738560,113,73,-75,1,-1,0,-3,-88
1511883598747567,-14,71,51,-2,-13,-3,-4,-81
1511883598747567,-83,-115,127,-88,-12,-2,10,-2
1511883598754088,-117,-21,78,93,40,1,1,9
1511883598754088,-87,-62,4,90,110,-1,-8,20
1511883598763111,3,-18,-80,98,125,-3,21,98
1511883598763111,19,20,-88,-3,127,-2,78,117
1511883598776058,-7,24,-48,92,108,1,122,42
1511883598776058,12,-39,-7,20,-17,0,127,-88
1511883598785083,3,75,-38,-96,-70,-2,127,-128
1511883598785083,17,-124,-56,127,-118,-1,40,-83
1511883598799146,13,-56,75,-128,-120,0,-44,103
1511883598799146,-5,-1,127,-94,-102,-1,-91,70
1511883598808144,-6,82,34,-86,-92,-2,-119,-2
1511883598808144,10,-66,2,-43,-84,-1,-101,-112
1511883598814184,11,127,-42,-86,-69,0,-95,-6
1511883598814184,-14,-103,-20,125,-54,-1,-88,-80
1511883598829219,-7,1,-114,-50,-49,-1,-77,-99
1511883598829219,22,-82,86,-64,-30,-1,-60,84
1511883598836237,-2,-47,108,127,-26,0,-55,-69
1511883598836237,-14,93,70,49,-27,0,-40,18
1511883598845242,3,-12,-15,-49,-13,-1,-34,-102
1511883598845242,11,127,-59,73,-7,-1,-28,-128
1511883598859319,-4,-115,-47,-34,-13,0,-23,77
1511883598859319,-9,61,-23,-54,-11,-1,-11,-95
1511883598867920,4,-120,-25,-32,-2,-1,-15,44
1511883598867920,4,-83,-29,-128,-69,-1,-13,119
1511883598873974,-4,-19,-3,46,104,0,-6,68
1511883598873974,0,33,-30,53,121,-1,-3,101
1511883598888996,-1,-114,-63,100,-54,-1,-8,-60
1511883598888996,2,127,116,-43,-90,0,-4,-19
1511883598896998,2,-118,-128,111,-128,0,-1,-128
1511883598896998,-2,107,-74,70,-128,-1,-2,-61
1511883598906021,-2,-86,112,75,76,-1,-5,69
1511883598906021,2,-97,95,-29,127,-1,-1,105
1511883598919052,1,-50,-2,-71,124,0,-1,59
1511883598919052,-4,18,-60,-95,127,-1,-2,120
1511883598928078,-2,127,-121,-24,111,7,-2,127
1511883598928078,4,-95,33,-12,127,-109,0,58
1511883598934095,-1,12,127,-42,105,-110,-2,84
1511883598934095,-3,-128,-61,-68,78,96,-1,73
1511883598949133,0,86,71,-102,69,35,-1,100
1511883598949133,2,-115,53,-63,58,-1,-1,-105
1511883598956768,-1,127,99,85,48,-48,-1,-128
1511883598956768,-3,18,118,12,23,77,0,-31
1511883598965761,0,-128,45,61,26,-109,-1,4
1511883598965761,0,127,-128,82,127,127,-2,57
1511883598978917,-2,-70,92,-25,-58,-98,0,-6
1511883598978917,0,93,99,-41,-97,-128,0,52
1511883598987819,0,-128,-77,-94,-124,127,-2,49
1511883598987819,-1,-88,80,50,-89,-128,-1,-47
1511883598993835,0,32,-94,58,-1,127,-1,-87
1511883598993835,-2,51,31,-81,24,61,0,-79
1511883599008880,-1,65,-14,-42,31,69,-2,-33
1511883599008880,0,-25,-103,-1,22,125,-1,127
1511883599016901,0,13,-67,13,-109,86,-1,12
1511883599016901,-1,64,-36,-102,-100,-74,-1,-16
1511883599025921,-1,102,-14,127,-38,40,-1,11
1511883599025921,1,5,-50,-128,-14,-57,0,-19
1511883599038959,-1,-4,-30,62,21,127,-1,20
1511883599038959,-1,-128,-38,104,127,95,-1,24
1511883599047981,0,28,12,-64,-80,-7,-1,5
1511883599047981,0,-4,-11,-59,-63,-32,0,-31
1511883599054000,0,103,-35,-34,-90,-128,-1,25
1511883599054000,-1,57,-8,-57,-94,-118,0,17
1511883599070079,0,79,33,24,-84,53,-1,-5
1511883599070079,0,7,-6,-54,-30,-61,-1,-29
1511883599076095,0,28,-14,-58,-2,101,-1,24
1511883599076095,0,-128,-24,27,43,96,-1,6
1511883599085119,0,40,125,121,92,-114,-1,-14
1511883599085119,0,-30,29,127,28,-5,-1,-10
1511883599099158,0,-41,14,-128,30,16,-1,15
1511883599099158,-1,-19,69,30,-7,-39,-1,-3
1511883599108209,0,-128,103,-73,-28,63,-1,-5
1511883599108209,0,127,-57,-70,72,-30,-1,-8
1511883599114221,0,-128,-46,113,-79,100,-1,8
1511883599114221,-1,-126,-23,-128,-105,-53,0,-4
1511883599129264,-1,-52,42,46,-5,68,-1,0
1511883599129264,0,-125,80,82,-122,127,0,-7
1511883599136257,0,55,84,6,66,80,-1,2
1511883599136257,-1,-15,-77,-69,-114,-22,0,2
1511883599145281,0,6,-75,-53,4,-128,-1,-1
1511883599145281,0,-27,67,76,80,5,-1,-9
1511883599159348,0,33,14,79,-30,-128,0,4
1511883599159348,0,-122,126,43,127,127,-1,2
1511883599167879,0,-80,74,-82,-53,67,-1,-2
1511883599167879,0,50,-87,-118,-128,105,-1,-8
1511883599173917,-1,41,-128,37,-24,-116,-1,4
1511883599173917,0,107,30,120,-44,69,-1,1
1511883599188958,-1,6,-28,20,76,-71,-1,-4
1511883599188958,0,4,-90,-52,55,40,-1,-3
1511883599195976,0,-79,21,-128,127,108,-1,3
1511883599195976,-1,-18,24,-68,57,76,0,-2
1511883599204977,0,-38,55,-29,-40,-94,0,-2
1511883599204977,0,-31,127,46,2,16,-1,-1
1511883599219015,-1,-90,36,60,70,-111,0,1
1511883599219015,0,-11,-28,-29,48,45,-1,-1
1511883599228039,-1,-1,-128,-11,127,4,-1,-2
1511883599228039,1,38,-101,8,111,-57,-1,-1
1511883599242076,0,-5,114,-128,35,-59,-1,0
1511883599242076,0,-25,-100,-15,-86,50,-1,1
1511883599249094,-1,53,31,127,14,-16,-1,-2
1511883599249094,1,-24,2,-92,-90,-128,0,-2
1511883599265641,0,-103,116,-117,46,12,-1,1
1511883599265641,0,-112,127,-122,-127,-74,0,1
1511883599266643,-1,-68,-21,9,-119,24,-1,-2
1511883599266643,0,-3,-49,127,-61,100,-1,-2
1511883599278677,20,76,-128,62,-56,45,-1,1
1511883599278677,-7,99,-128,-49,52,1,-1,-1
1511883599287699,-4,21,-128,-111,10,52,-1,-2
1511883599287699,-83,29,-96,-100,69,54,-1,0
1511883599301736,-65,56,-60,18,0,37,0,0
1511883599301736,-77,54,63,49,84,-31,-1,-1
1511883599308783,85,9,8,54,35,47,-1,-1
1511883599308783,-92,19,52,42,-91,13,0,-1
1511883599325831,-37,28,6,2,65,6,-1,0
1511883599325831,75,27,-44,75,-75,-3,-1,-1
1511883599326803,50,-2,24,35,-89,22,-1,-1
1511883599326803,127,11,-102,70,-33,-54,94,0
1511883599339866,28,16,-5,39,-128,-21,44,0
1511883599339866,-128,-29,100,58,80,50,22,-48
1511883599347859,-65,-105,23,44,-7,109,15,-36
1511883599347859,44,-70,-15,51,-90,127,-34,-70
1511883599362405,-11,-126,3,80,-44,89,-83,-47
1511883599362405,127,-56,44,-55,-42,-33,-51,-19
1511883599368836,-117,-45,81,-67,48,-128,-120,14
1511883599368836,-128,-18,111,-44,59,64,28,10
1511883599384882,-125,67,127,47,-1,43,83,71
1511883599384882,80,44,-14,34,21,-101,60,-59
1511883599386860,-128,35,-128,-99,-71,127,-38,56
1511883599386860,116,30,30,38,96,-31,85,96
1511883599398894,-34,32,77,-20,-128,118,85,92
1511883599398894,-128,19,59,87,-68,127,-120,-78
1511883599407918,-77,29,75,99,-19,39,-76,-127
1511883599407918,-72,-101,116,39,6,-112,-94,-95
1511883599421981,-71,-58,-128,78,127,44,-75,41
1511883599421981,-83,-26,97,-3,-77,-99,127,-59
1511883599428974,11,15,-41,-97,20,-28,115,-39
1511883599428974,-34,38,43,-59,-128,127,-95,-20
1511883599445017,-25,-30,-33,-58,47,-128,-128,41
1511883599445017,-58,-71,-40,-14,-108,99,-78,-71
1511883599447022,-54,-4,-21,-70,20,110,92,-87
1511883599447022,16,-23,-42,13,-81,123,98,54
1511883599459083,24,25,-93,26,-128,-51,118,-88
1511883599459083,65,42,-128,-61,-63,-100,87,127
1511883599467660,96,-16,-39,127,-50,-83,127,-101
1511883599467660,-97,53,100,64,83,22,-73,-128
1511883599481718,-120,2,114,-104,-42,0,37,53
1511883599481718,97,123,24,127,-40,127,-52,92
1511883599488743,-109,-98,127,-34,-6,-90,84,-70
1511883599488743,75,49,-128,93,-49,-128,-94,-56
1511883599496738,-94,-115,-65,-89,-95,-114,-25,-128
1511883599496738,-63,-128,-113,50,127,107,60,-128
1511883599505791,33,121,76,-128,-103,-21,8,55
1511883599505791,-56,94,-87,-83,-53,-4,63,98
1511883599518823,113,-11,122,127,-22,-76,33,73
1511883599518823,66,-65,-56,87,19,-25,118,-13
1511883599527821,118,-59,-128,-1,127,10,-92,127
1511883599527821,122,-44,127,-128,127,46,37,96
1511883599541884,127,127,28,-128,-45,127,-117,-39
1511883599541884,-104,127,-9,-111,-72,-50,-119,-84
1511883599548903,-41,105,-33,40,-80,74,-128,-120
1511883599548903,-60,-32,-21,-72,-128,72,-65,-128
1511883599556927,-95,-81,-2,-30,12,31,-16,-128
1511883599556927,-128,-128,127,3,24,-65,-72,-35
1511883599565436,-128,-121,53,-9,-17,-36,8,34
1511883599565436,-89,-75,36,-46,-51,-38,-18,16
1511883599578987,-48,15,39,-32,-28,48,8,-121
1511883599578987,-11,-13,34,48,-57,95,28,-102
1511883599587984,95,43,27,-97,-128,96,3,104
1511883599587984,76,35,43,-51,18,11,67,-3
1511883599602021,127,103,16,104,127,-26,44,-66
1511883599602021,-6,-58,13,-56,127,23,37,-22
1511883599617061,-53,-61,30,-49,39,68,51,6
1511883599617061,-80,56,41,48,-97,72,1,-10
1511883599618064,-55,-65,-31,-128,-114,-67,8,-79
1511883599618064,78,11,-2,-102,-40,-128,-11,-8
1511883599625082,39,-123,26,-88,39,-128,-8,61
1511883599625082,-71,-113,-4,-128,61,-127,12,97
1511883599639120,-121,18,-27,75,55,-25,-3,-32
1511883599639120,-128,-120,10,93,39,-25,-12,-70
1511883599648144,-6,29,20,127,49,9,-39,-127
1511883599648144,-57,123,-3,127,45,85,-6,-50
1511883599662208,-58,101,-11,117,31,127,-3,42
1511883599662208,-34,127,17,72,19,123,-15,127
1511883599668760,-4,125,-2,127,14,123,-24,-23
1511883599668760,53,-128,-6,44,19,28,-13,44
1511883599676764,127,-128,-3,-93,19,-67,6,127
1511883599676764,114,-99,-2,-114,2,-114,20,127
1511883599685782,84,92,-3,2,6,-128,30,107
1511883599685782,79,-1,3,21,14,-128,47,-77
1511883599698817,47,98,-1,27,11,-82,27,-48
1511883599698817,-48,127,-1,73,-2,-17,15,-31
1511883599707840,-83,67,3,53,3,90,9,-58
1511883599707840,-66,-37,7,-19,10,79,-9,-15
1511883599721906,-63,-47,-9,-101,2,127,-1,70
1511883599721906,-33,-105,-2,-128,-3,-20,-16,50
1511883599728924,-42,-128,5,-103,4,-98,-3,75
1511883599728924,-23,-115,-2,-109,4,-128,14,84
1511883599735943,-3,-93,-6,-128,3,-128,32,67
1511883599735943,7,-95,2,-123,-1,-106,60,-6
1511883599744970,18,-56,3,-126,2,-21,67,-68
1511883599744970,23,98,-1,-107,3,19,47,-95
1511883599759028,15,96,-2,92,2,102,21,-77
1511883599759028,-1,127,3,70,-1,121,-20,-54
1511883599767979,24,107,-1,79,0,79,-19,-66
1511883599767979,32,118,-1,60,2,72,3,-62
1511883599782044,21,114,-1,-106,2,86,-2,-34
1511883599782044,24,-88,-1,-5,-1,63,-2,-26
1511883599789035,27,-79,0,-128,0,30,-40,-22
1511883599789035,39,-69,0,-107,2,43,-100,-119
1511883599796081,25,-93,-1,126,2,30,-55,-119
1511883599796081,-75,-43,0,72,-1,16,15,-128
1511883599811127,-113,7,0,127,0,23,87,-120
1511883599811127,-128,-68,1,122,2,13,127,-80
1511883599819116,-80,-109,-2,-78,0,1,127,-34
1511883599819116,-45,41,-1,50,-1,9,-84,-25
1511883599828140,-78,-108,1,-31,1,13,-104,52
1511883599828140,-126,-22,-1,21,1,-1,-70,96
1511883599842299,-24,-34,-2,81,0,-6,-128,127
1511883599842299,60,127,0,-25,-1,12,-44,103
1511883599849196,100,84,1,-47,0,3,17,-23
1511883599849196,113,-80,-1,11,0,-7,80,-36
1511883599856726,89,-85,-1,-128,0,4,127,-18
1511883599856726,78,115,0,38,-1,6,124,-39
1511883599871999,67,101,18,71,0,-2,9,34
1511883599871999,82,-104,-38,22,0,-2,83,80
1511883599878911,93,-8,114,127,0,4,63,9
1511883599878911,-102,-8,-29,-16,0,1,-19,-20
1511883599895924,-16,-128,37,-71,0,-3,-64,-81
1511883599895924,49,50,-22,98,0,2,-94,-45
1511883599901943,119,-21,76,127,0,1,-22,-128
1511883599901943,-49,-72,-71,109,0,-1,32,2
1511883599908961,92,97,127,86,-6,2,-19,107
1511883599908961,-26,-59,-69,-89,-5,0,-83,98
1511883599916979,91,32,82,-128,-3,-1,-70,127
1511883599916979,-71,-128,102,-128,-3,1,-96,62
1511883599932050,-128,-128,-88,-15,76,1,53,52
1511883599932050,6,-57,-69,-97,22,-1,62,-95
1511883599939041,-128,-8,-97,-41,123,-2,-92,68
1511883599939041,2,73,-46,-62,122,2,-86,19
1511883599948062,-10,-105,-4,73,39,0,-101,-95
1511883599948062,-96,127,55,121,-43,-2,36,-67
1511883599962610,23,-118,-52,84,-128,0,120,-90
1511883599962610,-24,-45,-11,-73,-128,1,-43,118
1511883599968648,104,95,-115,-68,-112,-1,116,-64
1511883599968648,-119,-8,-33,-38,-114,-1,-117,-65
1511883599976697,-108,-20,-99,15,-128,1,-128,-71
1511883599976697,14,9,-82,112,-115,94,-128,60
1511883599991904,13,17,-57,109,-123,118,-111,-69
1511883599991904,72,127,-22,-34,-88,127,-128,-86
1511883599998755,113,119,-76,69,-112,127,-120,-128
1511883599998755,127,-126,-19,112,-109,118,50,-117
1511883600007763,37,-50,-64,102,-128,64,64,-2
1511883600007763,127,10,-57,127,-128,-24,104,127
1511883600021817,21,21,-128,-9,-48,-60,66,127
1511883600021817,-8,36,-121,-56,-90,-59,127,64
1511883600028835,-108,19,-124,-34,-128,5,75,105
1511883600028835,-128,7,-94,-20,-88,11,37,86
1511883600036830,-128,66,78,-50,-128,-35,66,88
1511883600036830,-110,23,127,-65,-69,-42,70,36
1511883600052051,-123,13,127,-39,-124,-67,24,70
1511883600052051,-106,-3,124,76,-117,-51,26,127
1511883600059017,-128,16,51,8,0,-17,25,99
1511883600059017,-53,13,70,12,85,22,38,113
1511883600067551,-80,-2,-22,-23,127,-61,-8,127
1511883600067551,-28,-18,-94,-37,127,-105,14,72
1511883600081588,-51,-29,44,-10,118,-116,55,31
1511883600081588,-33,-30,88,-20,110,-128,53,-84
1511883600088607,-11,-29,127,-11,110,-113,46,-108
1511883600088607,-10,-40,127,-7,99,-49,36,-128
1511883600096628,-29,-12,4,22,80,-26,-12,-128
1511883600096628,-4,18,57,13,60,-16,-13,-121
1511883600111697,-9,4,71,35,49,9,-19,-106
1511883600111697,4,-21,127,57,53,-12,-28,-86
1511883600118713,-25,-49,81,26,42,-12,-30,-68
1511883600118713,9,-43,-1,11,11,-40,-4,-68
1511883600127710,2,-50,-40,4,13,9,-70,-29
1511883600127710,-6,-48,-33,9,28,36,-75,-26
1511883600141748,-7,-15,-42,0,15,68,-33,-25
1511883600141748,2,-11,-25,-9,1,38,-9,-21
1511883600148766,-1,14,-10,-11,72,5,26,0
1511883600148766,0,-6,50,-23,-46,-52,28,-4
1511883600156813,-10,-9,30,-16,-33,-12,14,-15
1511883600156813,4,-12,-17,-5,-51,-2,24,-41
1511883600171230,-5,-24,-111,-27,-11,6,10,-102
1511883600171230,3,-16,-88,-50,31,26,15,-128
1511883600179253,-4,-23,-78,-29,-1,-3,9,-128
1511883600179253,-2,-35,-25,-16,4,-31,1,-56
1511883600188276,1,-26,-16,-27,0,-37,1,-8
1511883600188276,0,-30,-16,-59,15,-101,17,-4
1511883600202316,-5,-24,-48,-52,1,-76,63,28
1511883600202316,0,-18,-33,-121,12,-119,29,-115
1511883600209308,-2,14,-53,-98,-10,-128,35,106
1511883600209308,1,22,91,-5,-1,-114,-12,113
1511883600216326,-6,24,102,34,12,19,-82,127
1511883600216326,2,24,127,-28,1,113,-73,86
1511883600231367,1,-1,127,-91,-16,121,-42,-30
1511883600231367,-2,26,-76,6,9,127,-7,-21
1511883600239415,-2,21,-8,71,9,123,12,81
1511883600239415,0,7,-28,127,-3,113,11,96
1511883600248411,0,-12,-95,127,-11,101,7,50
1511883600248411,0,-16,-56,90,12,127,19,-25
1511883600262451,-2,-12,-50,37,3,-19,18,-123
1511883600262451,0,-6,-21,19,-7,-110,32,-77
1511883600268468,-2,-6,62,4,-2,-128,27,-77
1511883600268468,0,-9,47,7,6,-128,27,-50
1511883600276490,-1,-5,7,-24,-2,-57,15,-41
1511883600276490,-1,0,16,3,-1,11,24,3
1511883600291556,0,-2,102,17,-1,50,25,10
1511883600291556,0,-4,117,23,2,85,19,21
1511883600298550,-2,-4,48,-3,-1,116,-4,1
1511883600298550,0,1,29,20,2,109,-7,15
1511883600307601,-1,-1,2,39,-4,125,-12,-13
1511883600307601,0,-6,-44,30,-1,116,6,-7
1511883600321636,-2,-20,-96,72,2,111,-5,-27
1511883600321636,0,-32,-125,102,0,116,-18,-45
1511883600328629,-1,-35,-59,90,-4,127,-14,-42
1511883600328629,-1,5,24,39,2,30,-10,-29
1511883600344672,-1,6,22,25,2,-77,-1,-21
1511883600344672,0,10,3,19,-1,-89,-12,2
1511883600351694,0,5,29,-4,-2,-128,-11,20
1511883600351694,-1,-4,19,-37,2,-44,-16,25
1511883600359239,-1,6,6,-25,1,-5,-9,-4
1511883600359239,0,-5,14,105,-2,-21,-11,40
1511883600367763,0,-1,9,17,-1,-44,-18,2
1511883600367763,0,-1,-9,-79,1,-62,-3,17
1511883600381800,-1,-7,3,-128,-1,-84,8,26
1511883600381800,-1,21,14,-128,0,-96,20,13
1511883600388846,-1,4,-8,-78,0,-82,22,20
1511883600388846,-1,0,-12,-59,0,-13,68,15
1511883600404889,-1,-4,12,-51,0,29,67,6
1511883600404889,-1,-5,2,-58,0,49,59,9
1511883600411917,-1,0,-12,15,-1,118,37,11
1511883600411917,-1,-27,0,32,-1,104,-14,4
1511883600418898,-1,-29,8,62,0,15,-25,1
1511883600418898,0,-18,-6,70,-1,-85,-26,-3
1511883600427923,-1,4,-6,47,-1,-128,-14,12
1511883600427923,-11,6,4,31,0,-128,-14,42
1511883600449995,-21,14,0,14,0,-128,-13,43
1511883600449995,-12,47,-5,82,-1,-118,-21,41
1511883600451991,-42,17,0,105,-2,-125,-12,-15
1511883600451991,-4,7,0,121,0,-95,-19,-9
1511883600465056,8,-12,-2,16,-1,-47,-19,-23
1511883600465056,23,-26,1,-88,0,-2,-6,-43
1511883600471098,41,-6,0,-105,-1,10,1,-18
1511883600471098,25,-5,-3,-84,0,10,-12,-31
1511883600488116,21,12,0,-78,0,21,-25,-4
1511883600488116,12,4,2,-91,0,69,-13,48
1511883600489118,6,1,-3,-66,-2,76,-15,38
1511883600489118,-8,6,-3,-63,0,80,-11,24
1511883600501150,-10,11,2,-39,0,81,-18,7
1511883600501150,-12,5,0,-37,-1,89,-9,2
1511883600510177,-9,6,-3,-33,-1,85,0,14
1511883600510177,-15,-24,0,-31,0,72,-9,23
1511883600524212,-5,-38,1,-14,-1,69,3,110
1511883600524212,-25,-43,-1,-30,0,61,1,117
1511883600531230,13,-40,-2,-55,-1,54,-14,57
1511883600531230,17,-22,0,-90,-1,35,-17,-31
1511883600547299,13,-12,0,-69,0,19,-10,-85
1511883600547299,2,-6,-1,-78,0,22,-18,-90
1511883600549279,-6,-15,-1,-42,-1,25,-26,-69
1511883600549279,-3,-8,0,1,0,31,-21,-59
1511883600561831,-5,6,-1,15,0,17,-9,-60
1511883600561831,0,-9,0,-10,0,4,5,-47
1511883600570239,-5,-2,0,0,0,2,19,-36
1511883600570239,-2,8,-1,26,0,0,15,-18
1511883600584276,-4,8,-1,93,0,-3,10,-12
1511883600584276,0,9,0,109,0,-9,8,-26
1511883600591321,1,11,-1,68,-1,-29,12,-9
1511883600591321,-3,10,-2,26,-1,-34,18,6
1511883600607365,-2,19,0,-21,0,-31,14,-4
1511883600607365,2,13,0,-41,0,-15,15,-12
1511883600609343,-2,-3,-2,-49,-1,-11,-26,0
1511883600609343,-1,3,0,-52,0,-7,-36,9
1511883600621403,-1,0,0,-39,0,11,-19,-5
1511883600621403,1,-5,-1,-22,-1,10,-12,-8
1511883600630398,-2,7,-1,4,-1,22,0,4
1511883600630398,-2,15,0,32,0,29,12,1
1511883600644463,0,7,-1,27,-1,17,9,-4
1511883600644463,0,8,-1,28,0,12,15,-3
1511883600651484,-1,5,0,16,0,10,18,1
1511883600651484,-1,-5,-1,18,-1,14,13,1
1511883600668096,-1,-3,0,26,0,21,37,-2
1511883600668096,0,-1,0,19,0,16,16,-1
1511883600669072,-3,4,0,2,0,11,-9,-1
1511883600669072,-21,8,0,5,0,2,-4,1
1511883600681104,-66,-21,0,6,0,2,-7,0
1511883600681104,-79,-8,0,0,0,1,-45,-26
1511883600690156,-107,-23,0,-6,0,2,-53,85
1511883600690156,-58,16,0,-3,0,-4,-34,73
1511883600704166,-33,8,-1,-1,-1,-6,-24,35
1511883600704166,6,28,0,14,0,-8,25,26
1511883600711185,26,58,0,16,0,-4,29,-36
1511883600711185,8,36,0,-19,0,-8,4,-24
1511883600727228,41,33,0,-26,0,-16,0,2
1511883600727228,35,-1,0,-30,0,-19,-18,-21
1511883600734246,33,-30,0,-39,0,-15,-18,-20
1511883600734246,15,-28,0,-23,0,-14,-7,-9
1511883600741265,16,10,0,-18,0,-4,-15,-20
1511883600741265,0,8,0,-10,0,2,-3,-1
1511883600750288,6,-7,0,23,0,-15,11,-6
1511883600750288,-7,-3,0,41,0,-14,7,-1
1511883600764856,16,-17,-1,26,0,-22,-7,-9
1511883600764856,17,-4,0,7,0,-23,-8,5
1511883600771767,20,-12,0,-17,0,-24,0,6
1511883600771767,47,-3,0,-8,0,-29,0,-11
1511883600786812,24,-21,0,-11,0,-27,10,-34
1511883600786812,9,-12,0,-33,0,-21,15,-16
1511883600793823,-5,9,0,-29,-1,-21,11,-33
1511883600793823,-9,-3,-1,-39,-1,-16,7,-5
1511883600809886,-19,14,0,-38,-1,-5,-9,-9
1511883600809886,-12,14,-1,-42,-1,0,-3,-18
1511883600811859,24,6,-1,-25,-1,-14,10,-27
1511883600811859,60,-1,0,-18,0,-48,-10,-22
1511883600824920,37,5,-1,-5,-1,-50,-24,-4
1511883600824920,10,2,0,1,0,-53,-29,-6
1511883600831938,-4,28,-1,5,-1,-31,-30,9
1511883600831938,13,25,-1,9,-1,-18,-6,12
1511883600846975,33,27,-1,9,0,-15,9,24
1511883600846975,26,24,-1,14,-1,-4,3,16
1511883600854080,6,32,-1,11,-1,12,18,22
1511883600854080,-33,23,0,12,0,27,10,-8
1511883600870042,-32,16,0,1,0,37,5,-8
1511883600870042,-7,7,-1,10,-1,29,4,-8
1511883600872071,0,-9,-1,18,-1,11,5,-10
1511883600872071,7,-13,0,26,0,16,2,-6
1511883600885093,-24,-9,-1,15,-1,17,4,5
1511883600885093,2,16,0,29,0,15,1,12
1511883600891230,9,13,-1,35,-1,19,-10,-18
1511883600891230,-22,12,-1,9,-1,14,-2,-26
1511883600907340,6,2,0,-2,0,13,6,21
1511883600907340,23,23,0,-6,-1,2,18,33
1511883600914280,9,48,2,-7,-1,-4,11,35
1511883600914280,-3,37,20,-8,-1,4,13,15
1511883600930378,-27,25,39,15,0,9,12,11
1511883600930378,2,-4,48,14,-1,27,10,-4
1511883600932206,14,-22,52,16,0,8,18,3
1511883600932206,5,-45,47,21,0,-2,20,12
1511883600944238,14,-62,49,22,-1,-9,29,0
1511883600944238,-9,-66,53,8,0,-13,29,-89
1511883600953263,-83,-52,39,7,0,0,41,19
1511883600953263,-71,-47,17,-5,0,-14,44,100
1511883600967303,96,-24,-19,2,0,-20,30,89
1511883600967303,105,-2,-38,6,0,-31,16,74
1511883600973868,127,-7,-44,-3,-1,-26,8,-6
1511883600973868,69,0,-40,19,0,-29,2,-35
1511883600989906,-23,-14,-43,1,0,-27,5,-41
1511883600989906,-53,-22,-34,-2,-1,-14,-9,-33
1511883600991913,-88,-9,-28,-6,0,-6,-25,-42
1511883600991913,-77,-14,-24,-2,0,6,-24,-27
1511883601003947,-83,-15,-24,8,-1,19,-12,-28
1511883601003947,-66,11,-15,4,0,10,-10,7
1511883601012981,-52,-9,-13,-4,-1,9,-15,8
1511883601012981,-16,0,-12,-10,0,7,-23,-10
1511883601027005,-30,6,-2,-31,0,-7,-23,-24
1511883601027005,-57,2,3,-39,0,5,-15,8
1511883601034027,-30,-11,3,-24,0,15,1,10
1511883601034027,14,-8,2,-24,0,19,-4,-116
1511883601050067,-21,-19,-9,-10,0,17,-7,33
1511883601050067,-32,-29,-18,1,-1,5,-8,113
1511883601052072,-104,-14,-23,13,-1,10,-4,100
1511883601052072,102,-1,-19,12,0,16,-3,53
1511883601064106,67,21,-10,7,-1,12,10,-30
1511883601064106,48,-25,-3,13,-1,2,-2,-61
1511883601072631,20,-9,-1,10,0,6,6,-61
1511883601072631,-55,10,-7,24,-1,16,3,-37
1511883601086694,-46,82,2,13,0,31,1,-39
1511883601086694,-44,75,3,11,0,25,-11,-23
1511883601093707,-37,46,1,3,-1,26,-3,-32
1511883601093707,-60,19,10,0,0,22,-3,3
1511883601110732,-46,4,5,-8,0,10,-2,-1
1511883601110732,-70,12,3,3,0,11,-5,-6
1511883601111734,-33,13,5,5,-1,8,-16,-22
1511883601111734,-36,-5,-2,8,0,1,-3,1
1511883601123793,-53,-12,7,17,-1,-4,-8,3
1511883601123793,-41,-21,0,12,-1,-11,7,-13
1511883601132793,-1,-27,-3,3,0,-6,6,-6
1511883601132793,7,-36,-8,-1,0,10,4,14
1511883601146826,5,-18,-13,9,0,0,-7,3
1511883601146826,31,-1,-15,16,0,3,-13,-5
1511883601154352,49,-19,-6,28,0,-4,-9,-2
1511883601154352,-9,-31,3,20,-1,-4,0,0
1511883601169895,11,-47,15,-7,0,2,3,-7
1511883601169895,34,-69,3,-18,-1,1,9,-3
1511883601171900,21,-74,5,-19,-1,-5,-5,-1
1511883601171900,0,-58,-3,-13,-1,2,1,-1
1511883601183932,9,-36,-5,19,-1,9,-1,-7
1511883601183932,27,2,-3,16,-1,0,5,-2
1511883601192956,40,14,5,16,-1,-4,3,-11
1511883601192956,37,16,9,11,0,-20,0,3
1511883601207020,32,18,-3,7,0,-11,-10,-1
1511883601207020,23,11,-3,-4,-1,5,-10,-4
1511883601214011,68,20,-1,-6,-1,-8,-8,-1
1511883601214011,119,22,-2,-16,-1,-7,-8,2
1511883601230078,127,19,11,-6,0,13,1,13
1511883601230078,116,8,5,-4,-1,3,-19,22
1511883601232060,31,15,-6,-24,-1,5,-18,42
1511883601232060,-93,20,-4,-27,0,1,-16,64
1511883601244092,-123,7,3,-34,-1,3,-6,44
1511883601244092,-128,16,7,-26,-1,17,1,39
1511883601253139,-98,18,4,-27,0,9,14,28
1511883601253139,-52,17,-4,-20,-1,-1,10,25
1511883601267203,-25,16,-6,-24,-1,4,7,14
1511883601267203,-13,8,4,-21,-1,-5,14,6
1511883601281157,-7,1,-4,-25,0,-8,19,29
1511883601281157,6,10,-3,-18,7,-17,37,47
1511883601290181,19,-2,-4,-6,17,-14,3,41
1511883601290181,32,5,9,2,21,-4,-1,27
1511883601292187,18,3,5,22,11,-8,-17,-2
1511883601292187,16,0,4,14,3,-4,-14,-15
1511883601304218,35,-11,-1,4,1,-6,-9,-29
1511883601304218,33,-11,-3,-6,11,-11,-8,-25
1511883601313242,18,-12,-1,-17,8,-3,-10,-36
1511883601313242,16,-11,7,-17,9,-11,-24,-39
1511883601327288,11,-4,2,-14,4,-21,-24,-40
1511883601327288,9,-3,1,-12,-10,-10,-6,-36
1511883601334322,0,-2,5,4,-3,-12,5,-27
1511883601334322,6,0,-2,6,-2,-4,15,-23
1511883601350341,-3,1,-1,4,-1,3,13,-19
1511883601350341,-4,3,-7,0,2,1,7,-11
1511883601352346,7,9,-5,-5,6,3,14,-7
1511883601352346,3,16,-5,-9,3,18,9,-9
1511883601364408,4,2,-6,-2,4,18,8,-5
1511883601364408,-5,8,-4,3,-7,15,7,-1
1511883601372474,-7,1,4,12,-12,1,9,-3
1511883601372474,-3,-8,-3,11,-11,-6,-2,-4
1511883601387513,-9,2,-3,2,-13,-5,5,0
1511883601387513,-12,7,4,3,-14,-3,2,-1
1511883601393506,-1,9,27,8,-16,6,-2,-2
1511883601393506,2,11,28,3,-15,5,-4,-1
1511883601410586,10,3,37,5,-8,4,1,0
1511883601410586,7,-7,18,3,-3,5,2,-1
1511883601411581,4,-3,6,-4,-15,7,-6,-1
1511883601411581,29,4,-4,4,-23,3,0,-1
1511883601423586,-9,5,-15,-4,-20,4,3,-1
1511883601423586,-14,7,-10,9,-18,3,1,-1
1511883601432615,-11,9,-15,10,-15,12,-7,0
1511883601432615,-2,-2,-7,10,-16,19,-17,-1
1511883601446647,11,-4,-10,7,-12,-9,3,-1
1511883601446647,6,-8,-9,6,-15,-15,-2,-1
1511883601454169,-5,-3,-5,-3,0,-24,-4,0
1511883601454169,-6,-1,-1,-3,3,-17,1,-1
1511883601470223,0,-1,-2,-3,3,-12,-2,-1
1511883601470223,-5,-14,-4,-3,-7,-5,8,-3
1511883601472228,8,-9,-2,1,-12,-17,0,-22
1511883601472228,-1,-19,-1,-7,-11,-34,-6,-30
1511883601484260,5,-8,-1,-15,4,-42,-2,-30
1511883601484260,14,-13,-6,-3,16,-22,4,-30
1511883601493284,10,-3,-6,-4,22,-8,-10,-17
1511883601493284,-1,-2,-7,5,22,4,-6,-5
1511883601507322,-12,-5,0,7,13,5,0,1
1511883601507322,-8,6,0,12,12,7,-7,2
1511883601514341,-2,2,-10,4,10,21,-1,7
1511883601514341,-11,9,0,1,10,26,5,8
1511883601530384,8,3,-4,3,3,32,-2,1
1511883601530384,2,6,6,-1,4,30,-4,0
1511883601532389,-2,1,1,11,3,20,0,-11
1511883601532389,-15,5,0,0,3,21,-3,3
1511883601543439,-25,3,-4,-6,-1,16,-2,8
1511883601543439,50,7,7,-15,-1,-1,9,0
1511883601560491,-20,-10,7,-5,1,0,0,0
1511883601560491,-28,-1,0,11,2,-4,5,5
1511883601567537,-47,-1,-1,9,-2,-3,1,1
1511883601567537,-39,-5,-16,-4,-1,-15,-10,13
1511883601574081,-8,0,-11,-15,0,-17,5,8
1511883601574081,-1,1,-6,-13,1,-8,2,12
1511883601590125,13,1,3,5,-1,2,-7,0
1511883601590125,15,-2,-9,-2,-1,3,-6,2
1511883601592129,38,1,-8,-2,0,-6,-3,-2
1511883601592129,12,5,-5,1,1,-8,-7,-10
1511883601604136,12,4,-8,14,-1,-9,-6,-10
1511883601604136,-2,-2,-2,24,-1,-13,-2,4
1511883601613159,-6,-5,-9,18,0,-19,-9,7
1511883601613159,11,-5,-15,11,1,-22,-6,3
1511883601627223,12,-6,-7,7,-1,-34,-2,4
1511883601627223,-20,-3,-8,1,0,-46,6,-2
1511883601634238,-10,7,-1,-8,0,-42,5,0
1511883601634238,-10,4,-1,-10,-1,-24,-7,-6
1511883601649281,-20,3,-6,-8,-1,-9,-5,1
1511883601649281,-27,10,-1,-18,-1,-8,-2,7
1511883601656813,-5,6,1,-12,0,3,-5,13
1511883601656813,-2,-5,8,-2,0,2,-5,4
1511883601664347,10,-2,3,6,-1,0,-1,1
1511883601664347,16,-2,5,11,-1,4,-7,-5
1511883601673150,11,-1,2,-1,0,9,8,1
1511883601673150,5,2,6,-5,0,9,8,-1
1511883601687210,2,0,8,-7,-1,13,12,11
1511883601687210,-7,1,8,-5,-1,14,15,46
1511883601694206,4,1,3,-4,0,13,0,42
1511883601694206,6,5,1,-3,-1,14,0,30
1511883601709246,1,5,-11,-6,0,5,-2,12
1511883601709246,4,-4,0,6,0,17,-6,6
1511883601716292,3,-11,2,-2,-1,15,-2,12
1511883601716292,17,-14,7,0,0,12,1,6
1511883601732313,22,-9,9,0,0,10,-10,-8
1511883601732313,11,-16,3,0,0,13,-6,-19
1511883601734312,0,-6,1,0,0,15,2,-13
1511883601734312,-1,-1,-4,3,0,14,6,-7
1511883601747348,2,-4,-1,3,9,4,7,14
1511883601747348,-1,-2,-7,2,23,13,2,1
1511883601754387,-3,1,-10,4,29,3,-4,-10
1511883601754387,-7,0,-2,-4,36,2,-6,-12
1511883601769955,-9,3,3,-5,32,5,-1,-12
1511883601769955,-8,20,-4,3,25,1,1,-20
1511883601776478,-4,6,-5,4,14,3,1,-15
1511883601776478,-6,8,-6,4,10,6,6,-23
1511883601792520,-2,-4,-7,8,-1,6,16,-27
1511883601792520,8,-2,-2,-1,-6,-3,12,-37
1511883601794500,-4,5,1,-12,-4,7,12,-40
1511883601794500,2,-3,-10,-9,-4,9,-11,-27
1511883601807572,10,5,-3,-4,-2,4,-13,-26
1511883601807572,6,1,1,-4,10,-7,-13,-8
1511883601813581,16,-1,-7,5,15,-14,2,6
1511883601813581,13,4,-2,-4,5,-18,-5,7
1511883601837641,7,1,-8,-12,-2,-16,-4,2
1511883601837641,2,-4,-84,-7,-16,-15,-8,0
1511883601839646,8,8,-103,-1,-17,-11,-6,2
1511883601839646,17,9,-78,-10,-11,-12,-1,8
1511883601852658,9,6,-73,-5,-4,2,-4,7
1511883601852658,4,2,-31,-15,-1,8,11,-1
1511883601854660,4,19,-17,-11,1,14,18,13
1511883601854660,-5,12,16,1,14,8,24,-1
1511883601867201,2,4,47,-6,5,-4,10,9
1511883601867201,3,0,62,-2,5,3,0,3
1511883601874355,-1,-5,64,-3,1,7,-5,-10
1511883601874355,-10,4,68,-2,2,4,-3,3
1511883601889395,-13,0,69,9,8,1,2,0
1511883601889395,-13,-9,66,8,5,5,3,1
1511883601896397,-10,-12,54,-3,5,1,2,-2
1511883601896397,-13,-17,27,5,-2,2,-2,2
1511883601912453,-7,-17,13,0,7,4,-15,14
1511883601912453,-12,-8,19,9,5,17,-14,18
1511883601914418,-12,-11,25,19,21,13,-18,9
1511883601914418,-9,-7,13,13,14,3,-5,6
1511883601927448,-1,-12,6,9,24,7,1,6
1511883601927448,-1,3,44,1,1,-1,-5,5
1511883601934496,-6,-1,41,6,-5,-5,-1,5
1511883601934496,-5,1,1,3,-24,2,4,1
1511883601949635,-15,-2,-36,-3,-22,13,9,1
1511883601949635,-22,5,-37,0,-12,6,0,-5
1511883601956531,-4,-1,-25,-7,-22,-6,1,7
1511883601956531,1,2,-22,-7,-26,-18,-1,4
1511883601973138,0,7,-18,-5,-23,-20,-9,-2
1511883601973138,15,1,-16,-13,-27,-14,-3,-16
1511883601974141,-1,-1,-10,11,-20,-9,-4,4
1511883601974141,7,4,-4,4,-15,-14,1,8
1511883601987307,6,8,3,-6,-13,-15,1,-2
1511883601987307,-4,5,-7,-3,-5,-13,10,3
1511883601994194,1,-1,-3,-10,-13,-13,-10,-8
1511883601994194,-7,-1,-5,-7,-8,-8,-3,-14
1511883602009262,1,9,5,-6,-15,-5,-5,-11
1511883602009262,1,-6,-6,-9,-12,-7,-11,-29
1511883602016253,6,-3,2,-3,-4,1,3,-114
1511883602016253,-1,1,2,0,16,-10,0,-64
1511883602033349,-6,2,-3,-5,17,-12,2,48
1511883602033349,0,10,-3,-2,13,-8,0,87
1511883602034301,2,5,-11,-5,9,7,-1,93
1511883602034301,1,5,-8,6,14,18,-2,49
1511883602046436,12,9,-9,5,6,9,-5,21
1511883602046436,6,17,6,9,19,-4,1,27
1511883602056016,-2,28,-1,0,7,-12,-2,29
1511883602056016,5,30,2,2,14,-6,1,14
1511883602069996,0,20,0,7,14,0,0,0
1511883602069996,-1,24,-8,10,13,0,-4,-6
1511883602076077,-5,15,0,4,9,0,1,-6
1511883602076077,-3,-6,-1,-8,-6,4,-3,18
1511883602093101,0,-2,6,-8,-14,8,-3,18
1511883602093101,3,-12,-1,-7,-19,12,-9,9
1511883602094117,-5,-11,-1,-11,-5,7,-5,27
1511883602094117,-3,-5,-7,-4,-15,-6,-2,16
1511883602115161,-7,-9,0,6,-15,-7,-4,-19
1511883602115161,2,-8,-9,6,-13,-5,5,-32
1511883602117166,-3,12,-7,8,-5,-6,12,-16
1511883602117166,-1,11,-4,-1,-13,-6,3,-15
1511883602129219,-1,10,-13,-6,-2,3,3,-22
1511883602129219,-3,-21,-9,-4,-9,-8,2,-24
1511883602136217,3,-22,-2,3,-2,-6,-2,-22
1511883602136217,8,-31,0,-3,5,0,-3,-28
1511883602152260,3,-20,8,3,-5,-7,-4,-34
1511883602152260,4,-13,2,0,-7,-8,-8,-20
1511883602154771,8,-18,4,4,-5,-5,-6,-12
1511883602154771,12,-5,12,4,-31,-15,1,-10
1511883602166830,20,-8,2,4,-14,-7,-3,2
1511883602166830,27,-10,-11,-8,4,1,11,-17
1511883602175133,14,-5,1,-5,6,-1,-3,-8
1511883602175133,15,-7,-5,6,15,0,2,3
1511883602189169,8,-9,-9,-8,10,0,5,3
1511883602189169,-2,-5,-5,7,-7,0,3,2
1511883602196188,0,-1,-5,2,-24,2,-4,8
1511883602196188,4,23,10,8,-22,5,-4,16
1511883602213240,-4,25,5,10,-32,10,-3,9
1511883602213240,-9,36,0,-17,-48,-1,-9,2
1511883602214237,-15,33,7,2,-27,10,0,1
1511883602214237,-8,20,-4,-5,-14,16,-10,4
1511883602226268,-9,-5,-5,-5,-2,10,2,-3
1511883602226268,-13,-7,13,3,5,17,1,0
1511883602235292,-5,-7,-2,-6,-4,2,6,-2
1511883602235292,-3,-17,-5,-8,-11,-10,-1,-10
1511883602249330,-9,-4,7,11,9,-5,1,-14
1511883602249330,-2,3,0,0,10,-3,-2,-17
1511883602256851,-2,-5,1,5,7,-7,5,-9
1511883602256851,-12,-15,-10,-1,18,5,1,-4
1511883602272440,-29,-37,-8,-7,-5,-3,1,0
1511883602272440,-21,-38,-4,4,0,-1,-10,7
1511883602274424,-23,-31,-6,1,2,2,-4,3
1511883602274424,-21,-24,-7,4,-4,1,-4,-1
1511883602286457,-15,-29,0,-6,-12,-11,1,-1
1511883602286457,-15,-18,0,-2,-5,-8,-1,6
1511883602295480,2,-7,-1,0,2,7,0,2
1511883602295480,-4,-6,-3,-6,-10,-3,2,6
1511883602309546,10,18,0,0,-26,3,-4,-3
1511883602309546,13,22,11,7,-2,11,5,6
1511883602316559,17,-25,-8,-11,-19,0,-4,4
1511883602316559,-2,7,10,3,-8,-7,5,-1
1511883602332605,13,26,8,14,-14,-11,1,-7
1511883602332605,-1,-15,-6,34,-5,-16,-8,-3
1511883602334615,-3,19,3,41,16,-4,-8,-6
1511883602334615,3,-19,-8,12,-13,-9,-16,0
1511883602346639,-2,-12,8,13,26,9,-5,-10
1511883602346639,5,-36,-3,4,30,8,-11,-8
1511883602355642,6,-25,1,1,40,6,-4,-2
1511883602355642,16,-12,2,6,45,12,-2,8
1511883602369679,10,-6,-8,-8,22,8,2,11
1511883602369679,9,3,0,-3,10,-1,5,6
1511883602376491,0,6,-7,3,10,0,-5,-5
1511883602376491,-1,10,-2,-2,3,-3,-12,-12
1511883602393522,-8,-4,-2,2,22,-18,-15,-7
1511883602393522,2,35,7,10,28,-24,-10,6
1511883602394542,-4,8,4,7,17,-12,-15,10
1511883602394542,-8,17,7,5,27,13,3,1
1511883602406569,4,5,-5,-11,30,19,-3,5
1511883602406569,5,-5,1,-14,20,12,5,4
1511883602415569,-2,0,-4,-19,7,-4,12,-8
1511883602415569,13,17,2,-5,-9,6,15,-6
1511883602429606,14,2,0,-7,-39,10,9,-3
1511883602429606,4,34,5,-16,-47,13,5,-6
1511883602436651,3,-11,-2,-24,-44,26,14,10
1511883602436651,-7,1,-7,-24,-30,9,14,1
1511883602452700,-3,-4,-7,-21,-19,-2,16,11
1511883602452700,-5,4,-6,-11,-7,5,21,6
1511883602454700,-3,14,7,-8,-7,8,11,14
1511883602454700,-2,-3,2,-7,5,4,12,16
1511883602466735,3,7,2,-2,19,-9,3,-8
1511883602466735,3,-2,-4,-5,15,-14,10,17
1511883602475300,-5,2,-6,-7,8,-24,-12,-12
1511883602475300,13,-12,3,-3,19,-21,-1,15
1511883602489336,0,-9,10,3,18,-21,-7,0
1511883602489336,-8,-9,1,0,10,-8,-19,-3
1511883602496354,-2,5,3,5,-5,1,-21,-5
1511883602496354,-5,2,0,10,-4,12,-28,-15
1511883602512436,-4,-10,-7,7,-4,20,-11,-5
1511883602512436,-4,-9,1,1,-10,32,-12,-10
1511883602514403,14,-3,-6,-3,-16,26,-12,-4
1511883602514403,3,3,-1,0,6,17,-19,-6
1511883602526461,0,-6,11,3,25,16,-4,8
1511883602526461,8,-11,1,-3,17,-3,-5,-1
1511883602535458,9,8,1,2,15,-3,-7,7
1511883602535458,0,6,2,0,3,-5,-4,7
1511883602549497,4,8,-5,0,-9,-12,3,7
1511883602549497,-1,0,0,-3,-20,-21,24,7
1511883602556564,-1,-21,-3,4,-14,-29,41,9
1511883602556564,6,-14,-18,9,-15,-35,33,-2
1511883602573122,-10,-13,-6,-6,-10,-18,18,-4
1511883602573122,-10,-19,-3,-5,-4,-12,-1,-4
1511883602574129,0,-17,-2,-7,0,-14,-7,12
1511883602574129,-6,-30,-4,-8,7,-12,-9,9
1511883602586178,2,-13,-7,-5,-11,-22,-12,0
1511883602586178,4,-11,-4,3,-14,-11,-3,5
1511883602595180,-1,-1,-10,-6,-21,-7,-5,4
1511883602595180,-5,12,7,2,-9,-3,-4,11
1511883602609220,1,15,0,0,-5,7,-13,7
1511883602609220,-6,11,-3,-1,11,6,-12,-5
1511883602616268,-1,9,3,10,11,9,1,1
1511883602616268,1,-2,0,1,-4,13,-7,-8
1511883602632279,4,4,8,5,-3,17,-15,-4
1511883602632279,-6,13,-4,1,-8,10,-51,-3
1511883602639298,-10,8,-4,-3,-8,9,-57,-6
1511883602639298,-5,1,0,-1,-15,5,-27,-14
1511883602646317,7,4,2,-3,-5,1,5,1
1511883602646317,3,3,8,3,2,4,22,8
1511883602655844,-15,2,11,3,-4,-6,14,3
1511883602655844,0,1,4,2,5,4,20,-9
1511883602670383,-5,-6,1,8,-6,4,21,0
1511883602670383,11,7,-8,1,1,2,13,-12
1511883602676587,15,4,2,-7,-15,2,12,-1
1511883602676587,7,13,3,-7,-19,16,9,5
1511883602691627,-1,10,-2,-5,-16,25,5,-2
1511883602691627,-7,0,0,-6,-17,12,3,-3
1511883602698651,-11,4,0,-6,-5,11,3,-1
1511883602698651,-6,18,9,-2,8,14,0,7
1511883602706694,-5,17,11,-5,8,12,-4,18
1511883602706694,0,11,14,1,-2,7,11,15
1511883602715692,-2,2,8,1,5,1,11,-7
1511883602715692,-5,2,1,4,-2,-7,7,9
1511883602729729,-4,3,-5,7,-6,-19,-7,-8
1511883602729729,4,4,-3,2,-6,-8,-4,3
1511883602736758,0,7,2,7,-9,-13,-2,-9
1511883602736758,-3,-8,-10,0,2,-9,-5,-1
1511883602752791,4,1,-4,3,-2,-14,1,-2
1511883602752791,-6,0,-7,-6,3,-4,5,-13
1511883602759363,1,-1,-8,-4,12,-1,8,-11
1511883602759363,-4,12,-4,-3,5,-1,6,-9
1511883602774412,-4,-8,5,-8,0,3,5,-8
1511883602774412,1,-18,7,-6,-2,2,3,-4
1511883602775415,-15,-8,12,1,2,2,-1,6
1511883602775415,-14,-9,9,1,5,0,1,3
1511883602790455,-10,4,2,1,5,3,2,0
1511883602790455,6,11,8,3,0,8,3,2
1511883602796470,16,2,15,0,-1,7,3,-2
1511883602796470,18,-17,-9,-4,-4,2,5,-1
1511883602812648,10,10,-28,-6,3,0,7,-1
1511883602812648,9,21,-6,-5,5,-3,5,-3
1511883602818531,4,20,-19,-9,8,-3,0,-6
1511883602818531,0,11,7,-10,4,-3,-6,-2
1511883602834594,15,7,-17,-16,-2,0,-2,-1
1511883602834594,8,8,-39,-15,-6,-7,4,-3
1511883602835574,4,-1,-24,-29,-2,-5,0,6
1511883602835574,-6,19,-39,-22,-13,-9,2,6
1511883602850614,-10,19,-2,-12,-4,-14,-6,5
1511883602850614,-17,11,0,-13,-1,-22,-2,-1
1511883602856635,4,20,12,3,4,-12,6,8
1511883602856635,-18,6,16,2,7,-6,1,-16
1511883602872717,-41,1,16,9,0,-4,5,11
1511883602872717,-36,-1,5,9,-1,-4,-9,-12
1511883602878736,-6,-11,7,6,-11,-8,-15,-4
1511883602878736,4,-17,4,9,-5,-6,-8,1
1511883602894776,26,-16,4,10,-15,-7,-8,-5
1511883602894776,8,-7,15,8,3,3,2,12
1511883602895892,11,3,-4,7,4,-9,0,-1
1511883602895892,15,-6,-3,6,18,-14,3,0
1511883602910847,15,14,-2,2,16,-8,5,0
1511883602910847,10,1,-9,6,9,-11,8,0
1511883602916835,-4,4,-5,9,5,-7,6,1
1511883602916835,-1,25,6,10,-1,-4,4,1
1511883602932877,-6,7,17,9,0,-9,-5,-5
1511883602932877,3,8,20,-1,-10,-2,-7,-10
1511883602947113,-4,9,3,2,-9,3,-1,4
1511883602947113,15,-4,-6,-4,-12,12,-1,10
1511883602954939,14,-4,-11,-4,-5,9,-1,8
1511883602954939,16,-8,-14,1,-6,2,1,10
1511883602955945,12,-8,-9,-2,8,-1,3,-10
1511883602955945,9,-17,-6,7,10,-8,-2,-12
1511883602970984,8,-30,-12,1,3,-1,1,-14
1511883602970984,-4,-29,-3,-1,-1,0,-4,-4
1511883602976051,-9,-20,4,-3,4,8,-3,-5
1511883602976051,-11,-16,1,0,-3,9,0,-5
1511883602993098,-4,-10,2,2,-3,-4,-1,11
1511883602993098,-20,4,8,2,-7,-4,5,6
1511883602999114,-9,-8,5,6,0,1,10,0
1511883602999114,5,-3,6,7,-5,5,2,-1
1511883603015213,-6,-5,-3,2,-7,6,-2,-2
1511883603015213,7,-2,-4,3,-2,9,14,-5
1511883603015213,5,-2,2,-5,-3,6,14,-15
1511883603015213,-4,-5,5,-10,-12,-3,22,-10
1511883603030240,-8,2,-2,-9,-18,1,19,-2
1511883603030240,6,4,18,-7,-23,0,4,-4
1511883603036215,-6,-3,14,1,-15,-8,0,-1
1511883603036215,3,-1,8,13,0,1,-2,1
1511883603053257,-5,-4,6,4,1,-1,3,6
1511883603053257,-1,-9,-8,11,11,1,3,0
1511883603059279,3,-4,5,9,-8,-6,-11,-4
1511883603059279,7,-2,-1,-3,-6,-7,-10,-6
1511883603074375,15,-1,-3,-4,6,-6,-5,-7
1511883603074375,12,-23,-16,-5,15,0,-7,3
1511883603075351,12,4,-19,-4,2,5,-3,6
1511883603075351,0,-11,-27,-4,5,-5,-5,0
1511883603097436,11,-1,-26,-6,-5,-10,0,3
1511883603097436,3,-6,-31,-5,-13,-12,1,-2
1511883603097436,17,-10,-16,10,-1,0,-3,8
1511883603097436,5,-8,-5,-6,-9,-5,-9,7
1511883603112480,1,-13,7,8,2,-7,-5,-9
1511883603112480,-5,-11,13,2,-3,-19,-6,-9
1511883603118492,-10,-19,-1,-2,3,-5,4,-6
1511883603118492,-6,9,0,6,-3,-1,-6,-2
1511883603150551,4,-9,1,-1,5,7,-6,-10
1511883603150551,18,5,0,5,9,3,-13,4
1511883603151554,20,-4,0,-4,1,-19,-9,-3
1511883603151554,1,-7,5,4,-2,-26,-2,4
1511883603171136,-1,19,9,-6,-5,-19,-4,6
1511883603171136,7,-2,2,0,2,-4,-5,6
1511883603180184,12,16,1,0,-4,1,-3,0
1511883603180184,20,5,-1,1,-4,-4,-8,6
1511883603203232,6,-1,3,10,-4,3,1,1
1511883603203232,8,14,5,-2,0,3,0,4
1511883603204235,-9,-6,-4,3,-4,3,2,8
1511883603204235,-10,3,0,-4,0,11,0,0
1511883603225290,-7,-1,5,-8,-4,4,-4,-4
1511883603225290,-15,-2,-4,8,2,0,1,-3
1511883603233335,-26,3,-3,1,-10,-7,3,2
1511883603233335,-17,35,-5,-18,-2,8,8,4
1511883603241334,-25,-25,0,4,9,10,2,1
1511883603241334,0,31,11,3,6,8,-3,0
1511883603241334,-4,-1,-5,4,2,0,-4,-8
1511883603241334,-6,-9,-2,9,34,4,-8,-9
1511883603242340,5,9,6,0,30,0,-6,-6
1511883603242340,-4,-11,3,-8,7,3,-7,1
1511883603243339,2,-9,0,-10,-10,-2,1,9
1511883603243339,-7,-4,5,-1,-24,-4,2,2
1511883603254367,-6,15,-6,-12,-35,-5,-2,-8
1511883603254367,-15,8,-3,17,-17,2,1,-2
1511883603255370,-5,8,-6,-2,-6,16,-14,0
1511883603255370,-12,-5,0,7,-1,16,-11,-9
1511883603276960,-10,0,-1,8,7,7,-4,5
1511883603276960,-1,12,-2,-9,-2,2,-2,1
1511883603277977,1,-1,-4,-6,12,-3,6,-2
1511883603277977,9,-1,1,-20,-1,-7,-1,-6
1511883603293003,5,-4,-2,-1,1,0,-7,-5
1511883603293003,-3,-9,0,-4,9,-2,7,-1
1511883603299019,-12,-5,-5,-1,30,2,4,-9
1511883603299019,3,2,0,-4,32,-3,12,-5
1511883603314087,-4,3,0,-5,24,-3,4,3
1511883603314087,-15,-5,2,47,17,-8,2,-2
1511883603315062,-13,-9,3,48,15,-4,-1,-2
1511883603315062,1,6,5,38,14,-3,0,1
1511883603337120,-8,4,3,8,10,3,-3,-11
1511883603337120,-4,6,0,-20,-3,10,-8,-13
1511883603338151,-12,5,2,-13,-24,0,0,-10
1511883603338151,-14,17,6,-11,-35,-2,0,-7
1511883603353163,-3,20,-4,-4,-35,0,4,-1
1511883603353163,9,10,-1,-13,-29,0,-3,-9
1511883603359180,13,11,9,-8,-13,5,-4,-11
1511883603359180,1,-4,3,-12,0,11,2,1
1511883603374092,-2,-1,3,-4,7,15,6,13
1511883603374092,-16,-16,-7,-15,9,16,7,22
1511883603375095,-7,-4,-7,-15,1,10,5,17
1511883603375095,0,-27,-8,-7,-5,19,4,0
1511883603397180,0,-28,-2,-2,5,21,12,-16
1511883603397180,-3,-26,6,-8,0,21,13,-37
1511883603398184,3,-13,8,-4,8,-7,2,-31
1511883603398184,2,-23,3,-5,-4,-5,3,-18
1511883603413196,3,-10,-4,0,-12,-4,-2,5
1511883603413196,4,9,-9,-6,-16,1,-5,27
1511883603419212,3,-2,-1,-5,-8,2,12,33
1511883603419212,9,-13,-11,-3,-15,-16,-2,24
1511883603434252,-1,-21,-1,-5,-5,-16,-3,10
1511883603434252,3,-8,-1,-4,5,-16,11,3
1511883603435262,6,-16,-3,-1,3,0,10,-5
1511883603435262,-3,-9,-1,-3,2,-2,14,-9
1511883603457370,10,1,-4,-8,-9,-5,5,-10
1511883603457370,-4,-2,-12,2,-12,-4,-5,-7
1511883603458369,0,10,-4,-3,-2,3,-8,-4
1511883603458369,-4,6,-5,0,-1,0,-9,19
1511883603472948,1,20,-2,6,1,1,-4,12
1511883603472948,0,20,2,3,14,-11,-3,4
1511883603478964,-7,15,0,-3,13,-7,-3,2
1511883603478964,-6,9,12,1,8,-5,0,2
1511883603502053,-18,3,8,1,2,-4,4,-2
1511883603502053,-4,-7,8,-4,6,2,9,-6
1511883603503028,4,5,10,-6,-1,2,-5,0
1511883603503028,2,5,16,-11,3,4,-8,-8
1511883603517089,-1,1,12,-6,13,2,-2,8
1511883603517089,1,-11,9,2,11,5,0,2
1511883603518091,-6,-9,4,10,9,1,-8,-9
1511883603518091,-41,4,1,5,-3,3,-5,-8
1511883603531128,-9,9,-1,6,-2,-3,-10,-9
1511883603531128,13,-3,-6,-10,-6,-8,-7,8
1511883603539149,13,5,-1,-11,-8,-1,-14,12
1511883603539149,22,-10,-4,5,1,3,-17,6
1511883603554181,-5,-18,-3,-2,-3,3,-19,-15
1511883603554181,-15,-9,-8,5,1,5,-10,-15
1511883603561733,-13,-4,-9,2,-1,2,1,-26
1511883603561733,-7,-1,-7,-3,1,-3,11,-15
1511883603570734,4,-3,1,-8,2,-3,10,-6
1511883603570734,4,8,1,-8,-2,-8,-6,-7
1511883603576290,-10,1,6,-8,2,-2,-4,-2
1511883603576290,-9,12,-4,-3,-1,4,-5,1
1511883603591308,-5,-2,-9,2,-5,-3,-8,11
1511883603591308,3,-2,1,3,-27,-3,1,10
1511883603599355,7,-7,-9,8,-18,-4,3,22
1511883603599355,12,0,-11,2,-14,-9,7,19
1511883603614399,15,1,-10,4,-4,-7,1,-7
1511883603614399,10,3,-8,4,1,-6,-5,-10
1511883603621388,15,6,-9,-6,6,-2,-10,-1
1511883603621388,18,2,-5,2,12,2,-4,-1
1511883603630410,16,4,-3,-1,4,5,1,14
1511883603630410,1,-4,0,-3,7,-1,4,12
1511883603636454,-3,1,-1,0,11,2,7,19
1511883603636454,-9,-1,-5,-1,10,-1,-3,24
1511883603651467,-22,2,-5,-1,-1,-6,1,17
1511883603651467,-7,8,5,8,7,6,0,3
1511883603658989,9,2,0,8,-5,1,7,4
1511883603658989,1,0,1,6,-9,-2,-8,-3
1511883603674039,-1,0,5,6,-6,-1,-4,-7
1511883603674039,-10,-8,4,4,-5,-1,-1,3
1511883603681058,-21,-10,4,-3,-9,1,-2,9
1511883603681058,-6,-15,5,-4,-5,4,3,-2
1511883603697128,0,-6,-3,-3,-3,-3,3,6
1511883603697128,-12,-6,-8,-6,3,-3,-3,10
1511883603698130,-11,7,-5,-3,2,-6,-1,2
1511883603698130,-3,-14,-8,7,0,-9,-5,-2
1511883603711165,2,6,4,7,4,-3,4,-4
1511883603711165,3,-3,0,6,4,2,4,-5
1511883603719187,1,-2,-1,5,-3,0,7,-6
1511883603719187,4,2,1,14,1,3,3,-8
1511883603734229,-2,-8,0,4,-12,-5,-3,-8
1511883603734229,-5,2,-1,6,-4,-8,-10,-11
1511883603741246,-3,6,1,6,0,-12,-6,8
1511883603741246,10,15,5,2,-3,-12,-5,4
1511883603757321,13,1,-2,4,-2,-10,-3,-2
1511883603757321,3,5,-1,-8,-5,-9,-11,-1
1511883603758297,3,4,-3,-11,-4,2,-10,-18
1511883603758297,0,6,5,-11,1,1,-6,-12
1511883603786399,-7,0,-1,-5,12,-3,2,-12
1511883603786399,-5,9,0,-2,4,-2,4,-11
1511883603795397,-3,-1,-7,-1,-6,-3,6,-11
1511883603795397,-14,9,-4,-5,-8,4,7,-7
1511883603817493,-2,6,-3,-10,-2,13,2,-10
1511883603817493,-3,6,-3,-7,5,6,4,-8
1511883603819482,0,0,8,-15,1,-1,-7,-10
1511883603819482,-3,1,-8,-11,0,-5,-3,-8
1511883603840553,-11,-1,-4,-15,-2,-5,-5,16
1511883603840553,-1,-9,-2,-4,-5,-3,3,20
1511883603841524,6,-6,1,2,-10,-4,2,19
1511883603841524,4,2,5,6,0,-5,-6,7
1511883603862644,-6,8,4,1,3,-6,-5,-4
1511883603862644,3,1,-3,-6,8,-8,-10,-4
1511883603869182,3,1,0,-7,-1,-1,-4,-16
1511883603869182,-4,5,0,-14,-4,3,0,-23
1511883603893848,-1,-1,-1,-3,-10,2,6,-23
1511883603893848,2,-3,4,-2,-9,3,-1,-21
1511883603895851,-10,-12,-5,0,-4,0,-2,-11
1511883603895851,8,-9,-7,2,-1,5,-3,-2
1511883603914905,6,0,-6,11,-6,3,14,-2
1511883603914905,0,1,1,13,-5,-2,19,-4
1511883603916906,-1,1,9,9,-7,-7,-6,0
1511883603916906,-4,-6,5,-6,-4,-1,-5,-3
1511883603921922,-2,-6,0,-10,-4,6,-10,5
1511883603921922,0,-3,-3,-6,-5,4,-6,6
1511883603922922,-3,-4,-5,6,7,-1,-11,8
1511883603922922,1,-1,2,-3,4,-7,-11,0
1511883603944984,-4,0,4,-2,9,-7,-13,3
1511883603944984,3,-5,-4,1,5,-7,-4,7
1511883603946985,0,15,-4,5,3,-4,6,6
1511883603946985,-11,11,-1,1,2,-4,3,-3
1511883603975586,3,11,-5,-5,6,5,2,-2
1511883603975586,1,21,-1,-12,6,5,-2,1
1511883603976591,2,-1,-4,-3,19,7,-3,0
1511883603976591,-6,-3,0,3,13,-3,2,4
1511883603997833,-1,1,3,7,16,-9,-3,4
1511883603997833,2,-3,5,7,7,-10,-2,-3
1511883603999649,0,-1,0,-3,5,-15,8,2
1511883603999649,2,-12,-5,3,4,-10,5,-1
1511883604004665,-2,-11,-1,-1,0,-4,-5,2
1511883604004665,-1,-7,5,-4,-4,-1,-6,7
1511883604005664,2,-5,-4,-4,-9,-1,4,3
1511883604005664,-4,7,-4,2,-5,-4,5,10
1511883604012801,0,6,-4,8,16,-5,0,8
1511883604012801,4,-6,0,0,5,6,0,-6
1511883604014687,-7,-2,4,2,0,7,1,-14
1511883604014687,0,1,2,6,-5,8,-7,-6
1511883604019705,-3,2,0,-1,-17,-2,-8,-9
1511883604019705,-1,5,-2,-1,-7,-3,-10,-2
1511883604020707,10,1,3,-9,-8,-2,-5,-3
1511883604020707,7,-5,2,-9,-13,2,1,4
1511883604033741,1,-7,4,-1,-11,7,1,1
1511883604033741,-9,-11,0,2,-5,2,1,5
1511883604041958,6,0,3,-2,-12,5,2,7
1511883604041958,4,-8,-4,-2,1,2,1,1
1511883604057310,21,7,0,-8,-3,-7,10,4
1511883604057310,11,4,-3,-7,-5,-6,9,-4
1511883604058312,9,-13,-7,-4,5,-1,6,-13
1511883604058312,0,-9,-1,-8,-5,-10,-2,-12
1511883604072861,-13,3,-8,-3,-3,-7,-4,4
1511883604072861,-5,3,-6,-3,-6,-8,-4,0
1511883604078877,-4,3,4,2,6,-5,-2,-2
1511883604078877,4,-5,0,1,11,-2,2,1
1511883604093917,8,-11,1,-4,4,-4,-3,-7
1511883604093917,8,7,5,4,12,5,-1,3
1511883604100936,-3,15,-5,4,10,8,0,5
1511883604100936,-5,-3,-9,4,5,11,0,-8
1511883604117002,-6,-11,1,9,-1,6,2,-8
1511883604117002,1,-10,-7,3,-1,11,-3,-7
1511883604117981,7,9,5,10,5,2,-1,3
1511883604117981,3,-11,4,8,9,-2,-3,11
1511883604133021,9,17,5,2,9,-4,5,15
1511883604133021,0,-20,-3,3,-3,-4,-1,7
1511883604139060,0,-13,2,-8,-8,2,-8,3
1511883604139060,5,2,-2,-6,-6,2,-5,11
1511883604154103,-11,-10,0,-8,-7,1,-6,8
1511883604154103,-7,-4,2,-9,-1,-5,0,5
1511883604161598,-2,5,-2,3,1,-3,-1,-3
1511883604161598,3,6,4,-12,-5,-6,-2,-7
1511883604177154,9,15,-1,-11,-2,3,1,-8
1511883604177154,-3,-3,-4,-12,-1,-2,0,-9
1511883604178182,-18,1,3,-6,-5,7,-5,-5
1511883604178182,-3,6,3,-1,-8,8,1,-6
1511883604193196,-3,-3,-6,9,-5,7,6,0
1511883604193196,9,1,-11,3,-6,2,4,-1
1511883604199212,0,8,-6,7,5,-1,7,2
1511883604199212,-1,9,-10,7,11,-3,5,2
1511883604214279,5,17,-1,16,15,9,-2,-2
1511883604214279,9,16,0,7,10,6,5,4
1511883604221297,11,-13,-3,4,5,3,-2,2
1511883604221297,10,-3,0,5,6,6,-1,-6
1511883604237340,2,-28,-2,-3,7,2,-2,-12
1511883604237340,-16,-2,9,2,-15,-6,-8,-11
1511883604238342,-11,11,-2,-2,-8,-5,-3,-14
1511883604238342,-13,8,-4,5,-5,0,-3,4
1511883604253382,-9,-8,-2,3,-13,-2,-3,-2
1511883604253382,-4,-21,5,3,0,-1,5,3
1511883604258926,-2,-10,8,2,4,-11,0,10
1511883604258926,-1,-12,5,6,6,-9,-5,15
1511883604274481,3,-4,-1,2,2,1,-7,-1
1511883604274481,-3,-9,-5,3,2,2,-3,-2
1511883604281511,-2,6,-4,4,0,-2,-2,-2
1511883604281511,-6,-4,2,-11,-3,-2,0,-6
1511883604296528,7,-6,-4,-10,-6,-10,-10,4
1511883604296528,-4,-2,2,-17,-7,-11,-6,3
1511883604297551,-2,-11,-6,-3,-2,-3,2,3
1511883604297551,-4,14,5,-9,6,2,7,-6
1511883604335631,1,8,1,-6,5,-8,10,-7
1511883604335631,5,4,-12,-7,-4,1,-1,-11
1511883604337636,-3,0,-3,-5,1,7,0,-5
1511883604337636,-6,-5,-5,2,5,2,1,-1
1511883604357719,-8,-5,2,-6,5,3,5,5
1511883604357719,8,-3,5,2,13,7,4,-7
1511883604359750,5,-8,0,-4,-12,4,-1,10
1511883604359750,2,-3,5,11,-14,11,1,2
1511883604378831,-1,-7,-1,11,-5,9,2,4
1511883604378831,-1,1,3,-2,-8,8,-1,5
1511883604387826,-6,-4,-5,0,-6,17,-9,-3
1511883604387826,-3,-4,-1,3,-7,11,1,-1
1511883604410889,-12,-2,-3,-3,-3,13,3,2
1511883604410889,-2,4,-4,2,3,7,2,3
1511883604412914,5,-3,-6,-2,7,-5,12,-13
1511883604412914,10,7,-3,9,6,-4,11,3
1511883604431966,27,13,3,13,2,-4,-9,-10
1511883604431966,14,1,-5,13,-3,0,-5,-3
1511883604438985,3,7,3,10,-7,5,-2,4
1511883604438985,1,-7,3,-2,-8,-7,-2,-6
1511883604454025,1,-6,2,-3,-5,-2,7,3
1511883604454025,-17,3,-2,2,6,-1,5,-3
1511883604463054,5,5,1,2,8,2,1,4
1511883604463054,2,7,-7,4,0,6,0,0
1511883604485231,-5,-2,0,-7,6,4,-3,-2
1511883604485231,-9,17,7,-4,3,1,-4,-8
1511883604487213,-12,-2,2,-20,-6,5,-1,-5
1511883604487213,-3,-8,-1,-12,0,-2,-1,-9
1511883604507296,-1,-6,-4,-8,-11,-2,1,-3
1511883604507296,6,-11,-1,1,-3,-6,-3,3
1511883604515287,2,3,-3,2,-9,-10,-10,5
1511883604515287,-3,17,0,-5,-4,-4,-14,8
1511883604536367,-14,-5,-5,0,-1,-4,-7,-3
1511883604536367,-2,-2,-2,-3,-6,-3,1,3
1511883604545368,5,-6,1,0,-3,-12,-5,-1
1511883604545368,7,-1,2,-3,-7,1,-10,3
1511883604558960,6,10,4,-2,-2,4,-13,4
1511883604558960,-5,4,1,-9,-3,9,-6,1
1511883604568983,10,-9,2,-6,13,7,2,4
1511883604568983,31,-11,-3,-8,6,5,1,2
1511883604569484,31,4,0,-8,7,9,5,4
1511883604569484,38,1,-4,-5,11,8,3,16
1511883604575502,37,7,-7,-6,-4,6,-7,2
1511883604575502,26,3,-3,-5,3,3,-2,-12
1511883604582521,16,5,-5,-3,-9,-4,2,-11
1511883604582521,20,5,-9,-9,-14,-3,-3,-10
1511883604582521,26,4,-2,-5,-8,2,-1,-10
1511883604582521,26,-5,-2,-4,-9,1,-4,1
1511883604590542,16,-4,9,0,-10,1,-8,1
1511883604590542,27,-9,11,4,-6,-11,-4,2
1511883604591545,59,-13,7,-4,-3,-8,5,4
1511883604591545,91,-1,1,1,11,2,3,1
1511883604596558,81,-7,-1,-4,-2,-5,-8,-2
1511883604596558,51,0,-1,5,8,-11,-16,-13
1511883604597561,39,1,1,3,-3,-4,2,-4
1511883604597561,-11,-5,-3,7,-1,-5,4,-1
1511883604613630,-23,1,-5,0,-4,-7,6,3
1511883604613630,-34,-6,-2,-2,1,4,-5,-14
1511883604614606,-65,-11,-5,2,3,5,-9,-14
1511883604614606,-67,-1,-5,-11,-1,5,-8,-15
1511883604615609,-55,-10,-7,-1,6,4,-4,-6
1511883604615609,-40,-3,-5,-4,-7,-2,-7,4
1511883604618615,-47,10,5,10,-1,-9,-15,4
1511883604618615,-48,-5,6,10,-9,-8,-23,6
1511883604633677,-47,0,1,2,-3,-10,-14,9
1511883604633677,-24,-6,4,3,11,2,-3,2
1511883604641677,-26,3,-12,6,11,5,-7,2
1511883604641677,-24,6,-4,2,4,-1,-10,10
1511883604656717,-34,6,2,0,0,4,23,4
1511883604656717,-40,10,2,-2,-1,7,37,0
1511883604664239,-33,0,-1,-5,-1,6,44,12
1511883604664239,-32,2,0,-3,-3,-7,39,-5
1511883604679300,-62,1,-3,2,-2,-5,18,-10
1511883604679300,-57,-12,-1,7,4,-4,36,18
1511883604680309,-53,-12,6,3,-3,-15,16,-17
1511883604680309,-46,5,-2,-1,-6,-19,12,-9
1511883604694341,-22,-1,-1,-7,-5,-16,3,6
1511883604694341,-24,3,-1,-2,-9,-9,-16,-5
1511883604701358,-20,-4,-7,1,-1,0,-22,3
1511883604701358,-2,-4,4,3,-6,-1,-12,9
1511883604716399,20,5,12,-2,5,1,-12,-7
1511883604716399,32,6,14,-11,4,9,-8,-7
1511883604723417,26,-1,22,-12,1,9,-9,4
1511883604723417,8,-5,-1,0,-4,6,-2,2
1511883604739460,3,-9,-15,1,-1,-3,4,4
1511883604739460,-15,1,-33,7,-6,-15,-13,4
1511883604740462,-17,-4,-39,7,-3,-12,-3,9
1511883604740462,3,2,-19,4,-3,-6,-7,4
1511883604753497,37,-15,-35,14,1,4,-10,1
1511883604753497,49,9,-110,6,-6,4,-3,-1
1511883604761521,5,-1,-13,-4,-4,2,-2,-15
1511883604761521,-32,7,68,-2,2,8,4,-9
1511883604776087,-45,11,125,3,0,15,0,1
1511883604776087,-31,17,127,2,4,-4,7,0
1511883604784109,-13,13,110,-2,-12,0,0,5
1511883604784109,-2,-7,112,4,0,-8,-2,4
1511883604799149,1,6,24,1,1,5,3,1
1511883604799149,-4,-5,-38,9,-5,18,8,-3
1511883604800126,-7,14,-128,7,3,26,-2,-8
1511883604800126,8,-10,-128,-7,-11,17,3,-12
1511883604814194,18,-8,-128,14,-8,1,-9,-7
1511883604814194,29,-9,-123,10,-7,-5,-14,-9
1511883604821206,28,-12,-116,6,1,-7,-2,-19
1511883604821206,17,-6,-128,-1,10,1,-8,-42
1511883604836239,15,-4,-128,-16,4,-4,-5,-48
1511883604836239,30,-2,-95,-9,5,-4,-3,-34
1511883604844242,49,-7,-35,-10,8,-4,2,-30
1511883604844242,48,-1,-46,-15,5,-5,0,-6
1511883604859823,52,-3,-17,-12,34,-5,-6,0
1511883604859823,36,-6,6,-7,51,-12,-6,12
1511883604860811,34,10,-9,8,-10,-7,2,22
1511883604860811,17,-5,21,23,-30,-2,6,22
1511883604873942,-5,-3,88,12,-46,-4,2,22
1511883604873942,-19,-5,103,11,-28,2,-8,20
1511883604881970,-8,2,79,4,4,-5,-13,18
1511883604881970,0,3,32,-4,-9,-1,-10,24
1511883604897010,0,-6,18,-4,-8,3,-7,12
1511883604897010,-17,6,14,-3,1,4,-9,7
1511883604904006,-28,-12,11,-7,3,-6,-3,11
1511883604904006,-18,6,10,3,9,2,3,10
1511883604920165,-23,0,12,5,2,-18,-3,8
1511883604920165,-19,1,41,-9,-14,-28,0,0
1511883604920165,-15,-5,41,-6,-6,-24,1,-5
1511883604920165,-8,-7,47,-8,-2,-17,9,0
1511883604934086,-7,6,33,4,-12,2,7,4
1511883604934086,-5,-9,18,10,-17,5,13,8
1511883604941289,-3,-5,25,7,-23,2,10,6
1511883604941289,-3,3,20,-2,1,15,4,3
1511883604956254,-3,-6,10,-3,4,16,-2,4
1511883604956254,-11,-25,18,-2,-10,26,-2,1
1511883604964169,-11,-16,4,-12,0,15,9,-1
1511883604964169,-19,-16,0,4,10,13,-4,-7
1511883604979379,-8,-13,0,3,-2,5,-2,1
1511883604979379,7,7,-3,-2,-10,0,-1,0
1511883604980378,1,-6,-3,5,-4,0,5,2
1511883604980378,14,-6,-8,-15,-4,-14,3,0
1511883604994416,14,-13,5,-11,6,-3,8,5
1511883604994416,10,4,12,-13,2,0,6,3
1511883605001438,5,-2,1,-10,9,2,6,-2
1511883605001438,-8,4,-5,-3,7,-12,-6,-5
1511883605016480,11,7,-3,-9,5,-11,0,4
1511883605016480,-2,17,0,-7,17,0,-6,4
1511883605023535,-24,7,0,0,7,-2,-4,6
1511883605023535,-25,-1,-5,35,-5,-1,5,-5
1511883605039659,-20,-7,-13,104,9,7,3,-5
1511883605039659,-8,-3,-3,109,8,10,-4,-7
1511883605040581,36,-12,-1,90,10,27,-2,-5
1511883605040581,56,7,5,35,-1,29,-12,2
1511883605054584,66,11,6,-21,-10,8,5,2
1511883605054584,44,5,5,-38,1,6,3,5
1511883605061728,25,11,7,-46,14,3,-10,-5
1511883605061728,-7,9,6,-49,10,-4,0,0
1511883605076404,-28,10,-8,-50,1,-7,-3,-2
1511883605076404,-75,-8,-18,-39,-4,-14,-2,2
1511883605083423,-96,15,-5,-32,-9,-18,1,-6
1511883605083423,-86,-5,-9,-30,-6,-18,6,-10
1511883605099479,-73,-1,-5,-32,2,-23,8,4
1511883605099479,-25,-7,-4,-30,-8,-15,11,4
1511883605100468,4,-5,3,-43,-8,-17,5,5
1511883605100468,7,6,7,-9,6,-13,-14,-6
1511883605113529,14,-2,16,-23,-10,0,-18,-2
1511883605113529,13,-16,15,-16,2,-13,-16,-7
1511883605121551,17,9,14,-17,-11,-10,-20,2
1511883605121551,6,-4,9,0,0,-4,-18,9
1511883605136564,2,13,-4,-8,4,9,-18,1
1511883605136564,18,5,2,-5,-10,7,-24,-6
1511883605143609,17,1,-2,3,3,5,-24,-9
1511883605143609,20,3,-4,-1,-4,1,-101,-10
1511883605168185,10,-7,2,-2,-6,-6,-84,2
1511883605168185,19,-3,-2,-11,-11,4,-2,9
1511883605168679,34,-7,-3,4,-2,-4,92,6
1511883605168679,23,-3,-8,2,-4,3,127,6
1511883605174303,10,11,-7,-3,-7,-2,113,13
1511883605174303,7,17,0,-4,8,1,72,-8
1511883605181295,16,8,-6,14,3,2,46,-10
1511883605181295,42,9,-1,4,0,-2,33,-7
1511883605196335,44,9,8,11,7,-4,9,-14
1511883605196335,34,8,8,-3,-10,-4,-1,-2
1511883605204357,13,-1,4,8,-6,8,-25,6
1511883605204357,6,-6,2,13,-8,8,-42,5
1511883605219424,3,7,8,7,-6,5,-42,-3
1511883605219424,9,-4,12,3,3,8,-23,5
1511883605220400,-8,22,15,2,-5,5,-19,0
1511883605220400,-2,-3,0,0,-3,-3,7,1
1511883605233435,-9,-4,3,3,6,-8,11,-4
1511883605233435,20,-11,-4,4,9,-10,-10,-10
1511883605241456,12,6,-1,-6,2,-3,-14,-10
1511883605241456,-8,-2,1,-5,8,-6,-5,-4
1511883605256523,-5,7,10,0,6,-1,4,-11
1511883605256523,-13,-13,-1,-5,2,-11,-37,-9
1511883605264045,7,-15,-4,1,2,-14,-20,3
1511883605264045,-15,-5,-7,6,-5,-8,-3,-7
1511883605279391,-111,0,-3,3,1,-5,5,-8
1511883605279391,-126,-5,-5,-56,8,1,9,-4
1511883605280394,-128,-6,-7,-58,11,5,-8,2
1511883605280394,-128,-2,-2,-37,3,5,-4,4
1511883605293438,-79,-3,-7,-22,3,2,-1,-11
1511883605293438,13,-5,12,7,-8,7,-10,2
1511883605301449,99,-12,17,16,4,9,-8,-3
1511883605301449,127,2,19,3,17,10,5,-2
1511883605316490,127,-8,3,18,14,5,-2,3
1511883605316490,121,13,-12,22,16,-4,2,1
1511883605323534,122,-18,-24,7,4,14,-3,13
1511883605323534,125,30,-1,17,9,15,0,11
1511883605339577,48,2,-2,3,8,10,-11,5
1511883605339577,43,32,3,11,9,1,-75,1
1511883605340582,50,16,15,14,7,-14,-91,-10
1511883605340582,11,9,24,17,16,-5,-65,-11
1511883605355593,21,4,21,-4,6,-2,-54,-3
1511883605355593,-36,43,15,8,-3,15,-9,-1
1511883605361663,-69,22,21,7,-14,31,14,-2
1511883605361663,-120,-6,1,4,-9,19,39,-3
1511883605376279,-42,-22,-4,4,-7,17,58,6
1511883605376279,11,-32,-8,34,1,4,47,8
1511883605384322,37,-9,-10,101,-7,2,31,-1
1511883605384322,19,-23,-3,114,-7,6,15,7
1511883605399342,-30,-31,-11,111,-3,-11,22,-6
1511883605399342,-53,-13,-10,34,-13,-17,20,-20
1511883605400344,-69,-38,-15,-46,-1,-20,10,-8
1511883605400344,104,-21,-18,-84,-16,-22,-1,-2
1511883605415384,127,-19,-11,-65,1,-10,-1,7
1511883605415384,89,-35,-12,-67,-5,-10,2,9
1511883605421400,-30,-1,-5,-58,4,-12,8,1
1511883605421400,-100,-6,-13,-58,1,-1,-6,2
1511883605436467,-97,7,-7,-45,-2,-1,4,-1
1511883605436467,-83,10,1,-31,3,8,21,-8
1511883605443472,-89,0,-10,-27,2,5,7,11
1511883605443472,-89,22,-2,-28,-5,1,3,30
1511883605459000,-46,13,-7,-29,-5,4,15,40
1511883605459000,-63,18,-6,-19,-12,5,20,40
1511883605466548,-49,9,-3,-13,-13,-2,16,25
1511883605466548,-108,10,-7,-14,-11,-4,15,25
1511883605475569,-128,33,3,-21,-21,-3,-2,8
1511883605475569,-128,-2,-12,-16,-3,-5,2,3
1511883605481612,-117,9,-11,-11,-9,5,-11,-5
1511883605481612,-87,-6,-15,-6,-8,-5,4,-6
1511883605496652,-72,1,-4,6,-12,-7,-10,-12
1511883605496652,-60,-8,4,14,-18,-5,0,-8
1511883605503671,-19,10,11,11,-16,-9,6,-7
1511883605503671,0,-7,13,10,-16,0,0,-11
1511883605518683,20,-6,4,-10,-23,10,-12,-23
1511883605518683,88,7,4,10,-26,7,-12,-27
1511883605526706,99,-6,5,7,-21,1,-4,-38
1511883605526706,91,4,4,0,-13,-10,7,-29
1511883605533724,89,-1,-12,0,-14,-10,7,-39
1511883605533724,57,-5,-3,3,-14,-7,11,-47
1511883605541745,23,-22,3,2,-19,-11,-4,-41
1511883605541745,19,-6,11,-1,-12,-4,-18,-39
1511883605558292,19,-2,14,4,16,3,-11,-29
1511883605558292,5,-8,8,-8,25,0,-5,-15
1511883605564309,0,0,0,-1,31,-6,-8,-33
1511883605564309,10,14,-13,-9,15,-11,-4,-51
1511883605578849,-12,-1,-26,-8,13,-16,-10,-38
1511883605578849,-10,1,-29,6,12,-15,-3,-22
1511883605585868,-14,-4,-32,-3,14,-8,8,7
1511883605585868,3,2,-13,-4,-7,-4,-4,18
1511883605601909,4,-4,-1,-8,-26,5,-6,16
1511883605601909,-11,-6,-5,-2,-12,18,-5,19
1511883605602912,-5,5,2,0,-13,5,-6,24
1511883605602912,-24,-15,2,8,6,13,0,16
1511883605615974,-19,-2,5,7,8,10,-5,19
1511883605615974,-11,-2,1,2,-4,27,-13,30
1511883605623995,-8,4,-7,0,14,37,-21,31
1511883605623995,-1,-1,-5,-11,14,23,-16,31
1511883605639010,6,-2,5,-1,16,13,-5,27
1511883605639010,13,2,-2,-5,14,7,1,17
1511883605646029,2,7,1,5,16,5,4,9
1511883605646029,3,-9,-5,7,15,3,-9,6
1511883605662072,3,9,-6,5,9,5,-8,9
1511883605662072,-1,2,-2,3,5,-4,0,16
1511883605663075,-6,10,5,-2,12,-8,4,5
1511883605663075,24,16,9,-59,0,-9,7,8
1511883605676141,15,26,5,-23,10,-3,0,1
1511883605676141,14,9,-1,3,-8,1,2,9
1511883605684131,14,8,2,24,-7,-9,9,12
1511883605684131,2,2,-2,45,3,-20,21,8
1511883605699173,33,9,-1,27,-7,-25,11,1
1511883605699173,50,9,5,28,-1,-35,24,9
1511883605707194,33,-21,-7,33,-5,-23,17,7
1511883605707194,22,-9,0,49,9,-6,-7,4
1511883605722259,21,-24,10,46,1,5,-10,-2
1511883605722259,-10,-7,14,48,-4,3,-28,-5
1511883605723236,2,21,12,18,-10,-8,-22,16
1511883605723236,5,7,8,22,-3,2,-10,65
1511883605736270,23,24,5,5,7,-5,-6,110
1511883605736270,31,32,2,-10,6,0,-6,25
1511883605744292,33,42,0,-21,5,14,-3,-33
1511883605744292,10,26,7,-22,4,20,-13,-72
1511883605759397,-8,24,7,-22,-3,17,-18,-71
1511883605759397,-3,-3,15,-31,10,12,-14,-40
1511883605767382,11,-14,17,-29,7,1,-4,-24
1511883605767382,6,-13,7,-11,11,5,5,-17
1511883605782437,-13,-28,8,-10,6,5,14,-11
1511883605782437,-23,-24,0,-2,10,8,5,-11
1511883605782437,-17,-23,9,0,-1,9,-6,-4
1511883605782437,-4,-10,6,-7,-9,9,-2,9
1511883605796461,-2,-25,8,-7,-3,-2,8,12
1511883605796461,11,-6,15,-7,-6,7,12,15
1511883605803480,13,-21,14,-10,2,-2,22,16
1511883605803480,15,-31,14,-6,1,-8,12,7
1511883605818520,10,-21,8,-3,8,-11,5,-6
1511883605818520,29,-21,7,-6,5,-25,-2,4
1511883605827567,10,-32,2,0,0,-12,-8,5
1511883605827567,-1,-14,-5,0,3,-18,4,0
1511883605842695,-9,-9,-18,-12,-1,-6,12,-2
1511883605842695,-22,-18,-18,1,-3,-5,1,0
1511883605843618,-14,12,-16,-10,-3,-5,7,8
1511883605843618,-9,2,-25,-13,-3,-7,2,25
1511883605856750,-10,11,7,-12,0,-7,6,53
1511883605856750,-10,-7,12,0,-10,-9,9,53
1511883605864309,11,-6,14,0,-2,-15,-1,52
1511883605864309,10,-7,6,7,1,-10,4,36
1511883605879077,10,1,7,16,-4,-6,3,35
1511883605879077,-1,3,0,15,-5,-6,6,32
1511883605887095,-18,-1,-8,-1,2,-2,-7,16
1511883605887095,-23,7,-14,5,12,8,-12,-11
1511883605902131,-24,1,-15,-2,0,11,-12,-48
1511883605902131,-12,-1,-15,-5,6,9,-3,-65
1511883605903134,-17,-1,-14,7,1,1,-4,-49
1511883605903134,1,-4,-17,-2,-2,4,5,-28
1511883605916169,2,-10,-15,0,2,-6,1,-26
1511883605916169,-16,-1,-10,7,8,1,-10,-16
1511883605924193,-5,-19,-7,-1,13,-2,-3,-8
1511883605924193,-19,2,12,7,8,-8,-5,-10
1511883605939230,3,-10,-2,-4,19,-6,-3,-7
1511883605939230,15,-1,4,-7,5,-11,7,-16
1511883605947430,18,14,-7,1,7,4,10,-24
1511883605947430,-6,20,-2,0,6,7,16,-50
1511883605962316,-58,26,-3,3,6,16,9,-61
1511883605962316,-56,12,-7,-1,2,12,-5,-45
1511883605962819,24,8,-19,-4,-14,-4,0,-42
1511883605962819,32,-2,-23,-5,-9,-2,1,-14
1511883605975902,95,8,-33,-4,-7,-1,2,-5
1511883605975902,67,4,-35,-10,-2,3,2,12
1511883605983898,53,8,-25,-8,-5,-7,11,14
1511883605983898,46,2,-27,-2,-6,-13,9,15
1511883605999940,23,2,-16,-2,2,-11,-6,9
1511883605999940,27,10,3,13,5,-1,-5,16
1511883606006959,5,27,2,10,-4,4,-10,15
1511883606006959,6,34,0,-4,-6,-9,0,-2
1511883606021998,-9,17,-3,-1,-6,-10,-3,-5
1511883606021998,-1,2,0,-9,-6,0,-1,-11
1511883606023001,-22,-6,6,-16,-9,2,-23,-5
1511883606023001,-13,3,5,-14,-9,-8,-36,-2
1511883606036035,-1,9,14,-10,-13,-6,-40,-1
1511883606036035,-5,-2,0,-12,-3,-7,-40,-3
1511883606044088,-14,-4,8,-6,-10,-11,-38,-2
1511883606044088,-11,-10,18,20,-26,-14,-15,3
1511883606059099,-2,-16,1,-12,-21,-23,-7,1
1511883606059099,11,-1,-5,-13,-18,-4,2,-1
1511883606067121,9,-9,-12,-1,-12,16,9,-1
1511883606067121,17,-7,-19,8,-8,16,11,0
1511883606081688,1,-3,-9,16,-2,13,23,12
1511883606081688,-14,-3,-5,8,11,17,14,6
1511883606082663,12,29,25,0,-3,6,13,0
1511883606082663,52,17,60,12,1,14,16,-7
1511883606096702,39,9,-17,4,-9,7,24,-10
1511883606096702,18,8,-45,0,4,5,21,3
1511883606103720,-10,-10,-78,26,1,2,5,11
1511883606103720,-13,-12,-70,-5,-17,-2,0,0
1511883606118760,-8,-20,-31,31,-1,-8,-4,-2
1511883606118760,-2,-25,-41,52,-8,-9,-1,-10
1511883606126780,-33,-25,2,80,13,-2,16,-10
1511883606126780,-42,-13,-1,72,14,-2,20,-4
1511883606141848,-36,-9,17,70,-1,-1,23,3
1511883606141848,-13,-14,12,43,-5,-14,26,9
1511883606142825,-5,-27,32,10,-23,-22,7,-1
1511883606142825,-1,-26,17,-24,-11,-10,-12,2
1511883606156861,-4,-28,-1,-56,-4,-3,-12,-6
1511883606156861,-2,-4,23,-55,-16,-10,-2,-4
1511883606163882,11,-4,6,-67,2,-13,25,-1
1511883606163882,-24,-15,-9,-66,-4,-15,20,0
1511883606178952,-28,3,10,-59,-8,-3,18,-2
1511883606178952,-38,-15,12,-75,-12,-3,3,4
1511883606185971,4,-13,6,-74,1,9,3,3
1511883606185971,41,-17,11,-63,8,10,-3,-2
1511883606210036,103,-18,4,-48,10,9,-10,0
1511883606210036,39,-29,14,-35,3,16,-13,-10
1511883606211039,-7,-22,-5,-14,12,12,-25,0
1511883606211039,-38,-2,-7,11,10,11,-41,8
1511883606216051,-46,6,13,37,11,8,-39,19
1511883606216051,-28,4,10,28,24,-11,-44,22
1511883606224073,-27,1,-3,15,25,0,-44,20
1511883606224073,-24,-2,-2,21,7,-11,-86,22
1511883606239113,-31,1,-9,23,-4,-17,-103,12
1511883606239113,-14,11,20,44,-14,-24,-15,4
1511883606246132,-17,24,24,36,-3,-15,14,-6
1511883606246132,-8,-1,13,30,1,-14,52,8
1511883606262175,-15,12,2,27,12,10,56,16
1511883606262175,-9,25,-2,16,10,19,31,17
1511883606263178,-2,12,4,23,-11,8,14,5
1511883606263178,-2,18,9,23,-9,18,-17,-14
1511883606276216,-9,11,12,7,-5,14,-18,-11
1511883606276216,-2,6,8,7,-11,24,-11,-8
1511883606284237,0,5,17,1,-19,4,-5,-2
1511883606284237,-38,-11,9,-25,-14,-7,18,10
1511883606299277,-21,-12,15,-38,-16,-32,20,7
1511883606299277,-17,-2,19,-38,11,-10,35,3
1511883606306321,-11,-4,24,-39,4,9,17,2
1511883606306321,0,-4,23,-19,9,19,19,7
1511883606322368,-11,-15,26,-17,5,26,22,7
1511883606322368,3,-6,21,-14,-8,8,0,2
1511883606323367,8,-1,-38,1,-13,1,-3,9
1511883606323367,4,7,-57,-4,-5,9,4,-4
1511883606336399,2,0,-57,6,-7,4,7,-11
1511883606336399,-1,-7,-62,3,-8,-1,-20,-8
1511883606344397,-13,-15,-42,13,3,-12,-19,4
1511883606344397,-7,12,-44,56,4,-5,15,-1
1511883606358433,-13,11,-16,24,-3,-10,34,3
1511883606358433,-5,6,13,-31,6,-14,38,-2
1511883606366484,1,25,44,-67,-6,-5,34,5
1511883606366484,15,12,47,-84,0,-7,31,10
1511883606381545,10,4,37,-55,1,9,1,-5
1511883606381545,-4,9,20,-35,7,10,0,0
1511883606389566,-14,0,12,11,7,11,7,-2
1511883606389566,-3,-14,13,26,6,0,8,-19
1511883606396588,-10,-9,14,51,-2,-5,1,-18
1511883606396588,7,6,1,57,-6,-15,-12,-21
1511883606403604,11,2,-10,45,7,-7,-33,-24
1511883606403604,-6,4,-4,38,16,8,-34,-15
1511883606418621,-31,-7,-15,21,18,12,-13,-11
1511883606418621,5,-8,4,19,14,7,-8,-14
1511883606426670,11,-7,-7,4,-6,11,1,-8
1511883606426670,37,-9,10,-4,-24,24,-1,-4
1511883606441709,5,-3,1,-14,-22,1,-2,8
1511883606441709,-17,5,14,17,-17,-11,-2,17
1511883606449704,3,2,2,6,-4,-22,14,7
1511883606449704,11,12,2,-6,5,-22,10,-7
1511883606456750,-20,23,-2,6,7,-10,5,-9
1511883606456750,-18,13,-7,33,6,-9,2,-7
1511883606464274,-28,2,7,35,-8,9,5,-11
1511883606464274,-22,-10,2,30,4,14,-10,-1
1511883606478828,17,-16,-2,1,5,19,-2,-6
1511883606478828,8,-14,-11,6,12,23,-1,10
1511883606486849,6,-20,-14,-6,13,13,12,14
1511883606486849,-2,-7,-4,-5,9,15,22,9
1511883606500912,9,-11,-9,0,3,7,18,-1
1511883606500912,26,-6,-2,-7,-11,6,3,-8
1511883606509939,38,8,-2,-6,-13,0,0,-2
1511883606509939,11,2,-1,-3,-18,-18,1,17
1511883606524949,7,-1,14,4,-6,-12,0,33
1511883606524949,2,-4,1,-8,-5,-8,-4,30
1511883606524949,-14,-1,6,-7,5,-14,-18,22
1511883606524949,-15,4,-10,-5,2,-21,-6,8
1511883606539013,-17,13,-14,-6,-27,-16,-9,-2
1511883606539013,-10,-1,-19,-20,-23,-13,-5,2
1511883606546037,-15,17,-16,-39,-18,-13,-2,-5
1511883606546037,-10,19,-3,-41,-12,-3,-11,11
1511883606561577,10,16,1,-43,2,-6,-4,5
1511883606561577,23,-2,-11,-17,2,-15,0,-6
1511883606569624,33,-8,-4,-10,17,-19,0,2
1511883606569624,13,-15,-7,-14,23,-30,-11,6
1511883606585195,2,1,-14,2,15,-30,3,5
1511883606585195,-21,8,-9,-9,11,-22,5,-11
1511883606586202,-2,14,-19,0,-6,-20,-21,-8
1511883606586202,-6,23,-11,-11,-21,-21,-21,5
1511883606607227,6,11,-21,2,-8,-16,27,16
1511883606607227,-8,10,-36,-2,-5,-13,12,27
1511883606608263,-20,5,-24,-5,6,-11,14,24
1511883606608263,-9,-3,-27,2,2,-2,4,14
1511883606621264,-49,-11,-11,-2,6,-4,-9,-3
1511883606621264,-29,3,-8,-15,9,13,-3,-4
1511883606629285,-7,0,14,-13,7,14,-7,-40
1511883606629285,16,-7,16,-21,-1,12,-27,-53
1511883606644326,34,1,17,-4,0,15,-53,-63
1511883606644326,25,-3,9,1,-1,3,-58,-61
1511883606645328,8,-7,9,-9,-4,23,-57,-42
1511883606645328,29,5,2,-2,-5,28,-13,-21
1511883606659367,40,7,-1,-5,-7,33,-7,-12
1511883606659367,47,1,9,11,7,16,-26,110
1511883606666387,46,-7,6,28,7,9,-15,44
1511883606666387,15,-3,-22,28,13,1,6,-9
1511883606681455,4,5,-69,20,9,8,23,-49
1511883606681455,23,23,-71,13,-1,-3,32,-80
1511883606689476,14,16,-51,19,-16,1,36,-29
1511883606689476,-4,29,-5,14,-31,-1,39,-4
1511883606704545,-24,17,26,10,-1,5,-25,18
1511883606704545,-54,23,27,0,19,17,51,8
1511883606705530,-23,17,24,3,28,15,38,38
1511883606705530,-11,3,13,3,56,20,6,15
1511883606718580,11,9,20,0,35,22,8,28
1511883606718580,-3,-5,22,2,12,28,5,5
1511883606726604,-8,1,24,14,6,19,35,14
1511883606726604,-2,-10,-2,6,-11,12,16,19
1511883606741642,-18,-15,14,0,-13,5,-1,39
1511883606741642,-9,-16,24,-9,-12,16,-48,3
1511883606749663,-11,-17,-3,-18,-30,18,-47,-7
1511883606749663,1,-19,-10,-15,-26,21,-54,-37
1511883606764726,8,-24,-1,-25,-35,23,-33,-20
1511883606764726,4,-31,11,-12,-32,7,-24,-41
1511883606765725,-13,-36,13,-13,-24,9,5,-26
1511883606765725,-43,-24,20,0,-10,42,-12,-9
1511883606779289,26,-12,14,-3,-13,17,-11,-17
1511883606779289,-1,-15,14,-7,-1,-4,-8,4
1511883606786307,-12,-7,6,4,17,-27,-27,9
1511883606786307,-32,15,9,-3,29,-34,-13,19
1511883606801351,-19,23,9,8,35,-23,-14,16
1511883606801351,4,36,5,4,9,-14,-60,9
1511883606809373,-4,8,0,-7,-9,7,-66,-1
1511883606809373,-41,5,19,4,-7,-9,-49,26
1511883606832411,-33,-15,79,-2,-7,-22,-9,20
1511883606832411,9,18,118,3,-3,-22,36,9
1511883606833411,-4,-19,113,1,-18,-31,61,0
1511883606833411,31,-9,86,7,-42,-40,69,-12
1511883606839444,41,-13,41,17,-19,-37,39,9
1511883606839444,21,-13,0,3,-4,-18,115,11
1511883606846476,12,16,-15,-1,8,-3,92,13
1511883606846476,13,24,-11,-4,6,2,49,-22
1511883606861591,-38,9,-27,-4,2,13,2,-8
1511883606861591,-28,23,-23,1,-3,15,-93,-18
1511883606870084,-36,24,-39,0,-4,5,-71,-18
1511883606870084,-13,11,-40,-3,-9,-14,-44,-7
1511883606884753,-13,-15,-38,-7,-21,-12,3,-16
1511883606884753,-19,-25,-24,-11,-24,-16,1,-22
1511883606885723,-18,-14,-22,2,-8,10,-2,-40
1511883606885723,-58,1,-3,-13,2,-6,-9,8
1511883606898819,-68,5,-4,18,27,-6,9,8
1511883606898819,-44,-5,-5,6,18,-9,13,41
1511883606906857,21,6,26,6,10,-8,-1,36
1511883606906857,51,-11,16,10,10,-3,12,24
1511883606921816,55,-6,-11,2,4,-7,15,1
1511883606921816,23,1,-14,14,9,1,23,-15
1511883606929834,16,15,4,16,6,1,18,-12
1511883606929834,29,-18,24,-2,9,5,11,-7
1511883606944912,18,5,21,-21,7,-2,-2,-8
1511883606944912,34,1,15,-1,3,-4,-2,-8
1511883606945877,26,19,9,3,-2,0,-6,-4
1511883606945877,17,21,-1,10,4,-7,-6,-3
1511883606959443,6,19,6,12,1,8,5,16
1511883606959443,17,12,-17,6,-7,7,-7,-3
1511883606966944,10,29,-27,1,-15,1,-23,-9
1511883606966944,8,7,-26,9,-34,1,-25,1
1511883606981208,-7,-11,-6,3,-28,-11,-53,-6
1511883606981208,8,-7,-9,6,-11,-16,-20,3
1511883606990183,-4,-19,-8,7,15,-22,-15,27
1511883606990183,24,-1,-31,1,3,-8,-23,13
1511883607004256,25,24,-21,2,1,0,-6,7
1511883607004256,-7,20,-20,1,-3,-9,-6,6
1511883607005229,-5,19,-12,-7,22,-2,-8,-9
1511883607005229,4,10,-3,-17,24,2,13,0
1511883607019374,8,-7,-1,0,18,-1,18,-6
1511883607019374,-8,-30,-10,-12,7,-24,20,10
1511883607026408,-21,-45,-12,-18,9,-25,26,-2
1511883607026408,-30,-30,-3,-13,10,-15,23,-11
1511883607041450,-7,-20,5,-11,14,4,20,3
1511883607041450,12,-11,21,-8,10,15,18,-10
1511883607049375,16,-4,15,2,-5,-1,9,-16
1511883607049375,5,13,16,4,0,1,11,-9
1511883607065021,-3,8,4,6,14,-6,14,-21
1511883607065021,-31,-6,-3,3,15,3,6,-18
1511883607065526,-5,-8,-9,-9,9,-1,0,6
1511883607065526,-3,-42,-14,2,6,-2,7,5
1511883607079197,18,6,-8,-8,-2,2,7,3
1511883607079197,7,-9,12,-9,-8,-5,-1,4
1511883607086215,4,21,6,11,-3,1,-1,-2
1511883607086215,0,-8,18,16,-10,-5,6,-4
1511883607110279,3,-16,-4,14,4,-6,2,3
1511883607110279,-1,-25,-15,-2,11,-30,-2,1
1511883607111282,-1,-11,-1,-13,6,-4,1,39
1511883607111282,4,1,0,-3,8,14,2,37
1511883607124316,3,5,2,-14,-10,60,-1,22
1511883607124316,9,18,2,1,-10,117,-1,7
1511883607125319,-8,-14,-8,11,-15,122,0,-6
1511883607125319,-19,-1,-11,-3,-6,108,0,-24
1511883607139357,-6,-5,-11,-3,-4,69,0,-15
1511883607139357,-8,-3,-18,5,7,53,0,-11
1511883607146376,-11,-10,-7,-9,0,52,-1,-16
1511883607146376,-22,-5,-5,-14,-1,59,0,-4
1511883607161469,-10,3,-6,-4,-14,27,0,-8
1511883607161469,-17,16,-3,-2,-17,4,0,3
1511883607169984,-14,-23,-12,4,4,-17,-1,19
1511883607169984,-29,11,-10,5,-4,-38,0,20
1511883607184032,-34,-10,-15,31,3,-57,1,14
1511883607184032,-20,-13,-7,30,0,-69,-1,11
1511883607185033,-7,-5,3,7,2,-82,-1,-7
1511883607185033,0,-16,-11,-18,6,-72,1,-3
1511883607207092,7,-27,-19,-18,1,-63,-1,-6
1511883607207092,-8,-13,-7,-13,5,-43,-1,2
1511883607208119,4,-7,-12,-20,-1,-38,0,-16
1511883607208119,14,-8,1,-9,19,-27,0,-15
1511883607221129,-7,7,4,-22,6,-27,-1,-3
1511883607221129,9,-7,-3,-10,12,-23,23,9
1511883607229151,18,3,14,-13,7,-26,44,25
1511883607229151,35,-17,-2,-3,10,-28,48,14
1511883607244191,6,-12,1,-13,-8,-20,43,4
1511883607244191,-2,-6,-4,-11,-2,-2,26,-1
1511883607245194,-17,-9,-26,-5,-2,-9,23,4
1511883607245194,-3,16,-28,6,-3,-4,21,12
1511883607259257,6,10,-24,4,-10,-12,16,9
1511883607259257,-1,-4,-14,-11,-20,-4,18,2
1511883607266779,10,11,-9,-11,-14,-2,15,-10
1511883607266779,21,13,4,-4,-34,-18,-2,-10
1511883607281873,4,25,1,5,-8,-30,-6,-20
1511883607281873,17,19,6,14,9,-41,-18,-6
1511883607288892,18,3,1,22,17,-37,-16,-9
1511883607288892,8,-9,-12,11,27,-22,-24,-13
1511883607304937,2,-6,-11,1,31,0,-19,-3
1511883607304937,2,11,6,-1,16,10,-33,-6
1511883607304937,4,21,-1,1,3,13,-39,-6
1511883607304937,3,15,9,9,10,5,-44,-13
1511883607326965,1,2,-4,8,-4,9,-52,0
1511883607326965,-6,-4,-8,2,-16,0,-41,0
1511883607327968,-5,-11,2,-5,-13,-1,-40,7
1511883607327968,-4,-6,9,1,0,-5,-25,1
1511883607341002,6,-14,12,-8,1,4,-7,17
1511883607341002,10,-19,-6,-18,-4,-7,-8,39
1511883607349023,4,21,-4,14,-10,-3,-9,51
1511883607349023,-14,-7,-25,13,-4,-3,0,43
1511883607364121,40,-4,-2,0,0,-6,14,19
1511883607364121,42,6,11,-4,-12,6,18,5
1511883607372116,29,-3,8,-1,8,11,-20,-15
1511883607372116,21,-2,21,-1,-13,7,-26,-15
1511883607386714,37,-5,3,-12,-21,4,-43,-9
1511883607386714,57,0,2,-5,-16,10,-53,-6
1511883607387717,33,-16,-8,-4,-22,11,-48,-12
1511883607387717,-1,2,3,-5,-14,8,-31,10
1511883607401754,-15,1,-3,-2,-16,-1,-13,20
1511883607401754,-7,13,25,-7,-14,1,21,12
1511883607409802,-24,2,22,-34,-21,24,35,11
1511883607409802,5,1,-6,1,-20,15,40,18
1511883607423839,0,5,-18,13,0,14,40,3
1511883607423839,3,-10,-40,14,12,11,28,-20
1511883607431861,16,15,-42,9,7,5,26,-25
1511883607431861,-2,-7,-5,9,1,14,24,-22
1511883607438874,-1,-3,-5,3,-12,24,17,-12
1511883607438874,-20,2,-5,10,-1,29,7,-3
1511883607446873,-17,-10,3,2,-1,10,12,-15
1511883607446873,-12,-1,-11,-9,-3,2,8,-14
1511883607461469,-65,-6,-5,-10,-3,0,3,-18
1511883607461469,-41,-8,4,-6,-5,11,2,-26
1511883607469989,-20,-12,14,3,-21,12,5,-10
1511883607469989,-15,0,10,1,-20,8,1,-14
1511883607484056,-13,13,10,-3,0,13,1,-19
1511883607484056,-43,11,-11,-8,-14,-1,2,-21
1511883607492077,-20,13,7,6,-2,-19,1,-8
1511883607492077,-12,1,27,-12,-6,-32,-1,7
1511883607507118,3,3,31,1,9,-32,0,-6
1511883607507118,5,44,24,14,12,-30,-1,-14
1511883607508120,24,4,-21,13,32,-9,0,-22
1511883607508120,43,23,-49,-3,18,3,0,-23
1511883607521155,43,12,-69,-2,16,1,0,-6
1511883607521155,43,5,-66,-13,21,15,-1,6
1511883607529149,6,2,-48,-6,23,14,0,-7
1511883607529149,1,9,-13,7,24,25,1,-3
1511883607544218,5,2,23,-2,6,19,0,10
1511883607544218,-9,-7,64,5,-4,7,-1,21
1511883607552237,-39,-3,52,-13,-19,-2,0,33
1511883607552237,-37,0,39,-13,-19,-8,0,37
1511883607567277,-32,17,41,5,-12,-9,-1,26
1511883607567277,-35,7,24,0,-8,5,-1,21
1511883607568256,-25,3,14,-5,-24,0,0,5
1511883607568256,-19,8,18,8,-6,-3,-1,-2
1511883607581857,-17,6,7,0,-4,-3,-1,3
1511883607581857,-32,-3,9,-1,11,-10,0,-1
1511883607588874,-32,-1,12,-11,14,-13,0,-19
1511883607588874,-17,0,19,-7,7,1,-1,-22
1511883607603916,-18,-20,4,-18,-11,15,0,-2
1511883607603916,-7,11,-7,-3,-19,10,-1,4
1511883607611938,6,5,-1,7,-43,-5,-1,-22
1511883607611938,0,11,-2,8,-27,-15,7,-22
1511883607626975,-4,1,-3,2,-23,-12,14,-34
1511883607626975,-3,-9,-14,5,-18,-3,10,-22
1511883607627952,-21,-4,-8,15,-11,8,5,16
1511883607627952,-27,-6,-12,7,-4,18,0,-2
1511883607641012,-15,0,0,3,0,18,-11,6
1511883607641012,-5,2,-9,5,17,7,-12,-3
1511883607650031,-10,-11,-23,8,35,-8,-1,-6
1511883607650031,-13,2,-10,1,27,-14,-12,-7
1511883607664615,-4,1,-21,0,15,-7,-17,-23
1511883607664615,-1,-10,-10,-1,7,-3,-7,-17
1511883607672131,-5,4,-7,-8,-2,-2,-1,4
1511883607672131,2,-9,-15,-14,3,-14,9,11
1511883607687197,-8,-9,-2,4,14,-19,5,17
1511883607687197,-4,-7,-7,2,8,-29,-3,6
1511883607688201,8,-28,-18,0,-1,-24,2,2
1511883607688201,17,-16,-21,0,-5,-20,15,-32
1511883607701209,30,-39,-28,-3,-13,12,23,-55
1511883607701209,37,-32,-12,3,0,29,26,-66
1511883607709230,14,-3,1,4,13,15,21,-47
1511883607709230,-5,-3,14,12,7,-2,15,-23
1511883607724270,-14,-1,2,9,-5,-24,17,-13
1511883607724270,-20,-13,-7,-5,-19,-17,20,7
1511883607732291,9,-6,-22,-4,-20,-11,21,9
1511883607732291,8,-12,-18,-1,-26,-6,14,24
1511883607747331,5,0,7,1,-14,-12,0,35
1511883607747331,22,-2,4,5,-12,-16,0,19
1511883607747331,18,4,23,1,-2,1,2,9
1511883607747331,21,3,10,6,-5,12,-5,6
1511883607761398,13,13,9,-1,0,13,-22,3
1511883607761398,-7,8,3,-4,-5,8,-28,2
1511883607769921,-11,9,3,-11,5,8,-21,6
1511883607769921,-24,-16,0,-8,13,42,-18,0
1511883607783478,-2,-8,18,8,7,13,-12,7
1511883607783478,9,-4,-6,3,7,-8,-16,7
1511883607792508,-8,13,17,11,22,-10,-18,-4
1511883607792508,18,11,3,-2,2,-12,-31,2
1511883607806545,2,10,6,5,30,-12,-18,8
1511883607806545,9,11,-12,-4,57,-9,-14,14
1511883607807548,30,9,6,-8,43,-4,7,14
1511883607807548,49,-10,-35,-9,36,-14,16,2
1511883607821559,41,-5,-26,-1,34,-13,20,-1
1511883607821559,12,-13,-14,10,18,-13,10,14
1511883607829577,1,-18,-16,1,-3,-10,7,33
1511883607829577,-2,-22,13,14,-11,-3,-4,4
1511883607843645,-6,-17,12,40,-26,-2,15,-20
1511883607843645,-2,6,9,74,-41,3,12,-16
1511883607851639,-21,-6,-9,83,-48,4,4,-5
1511883607851639,-40,-2,-6,80,-29,-3,-2,-7
1511883607867227,-50,1,-8,61,-17,-4,-3,11
1511883607867227,-42,-3,-3,43,-5,-1,-7,11
1511883607868227,-27,-4,19,34,-3,4,-18,0
1511883607868227,-23,-18,1,-4,-2,-2,-12,16
1511883607881875,-11,-22,2,-8,7,7,-21,-2
1511883607881875,-19,-20,2,-29,3,2,-17,5
1511883607890013,3,-24,8,-49,10,16,-23,18
1511883607890013,-7,-9,12,-51,5,23,-6,10
1511883607904045,10,-6,-1,-41,-6,35,-1,10
1511883607904045,2,-8,8,-36,-11,19,-7,29
1511883607911969,2,-5,-4,-32,-3,15,-13,25
1511883607911969,5,-10,-5,-40,13,15,-2,37
1511883607926992,2,-3,-1,-48,4,11,0,55
1511883607926992,24,10,0,-37,-1,2,2,24
1511883607927994,14,3,-12,-25,91,0,11,10
1511883607927994,9,-1,6,-26,114,-4,14,0
1511883607941141,10,6,-2,-20,79,-1,29,-18
1511883607941141,15,8,0,-14,24,3,31,-40
1511883607950121,15,10,17,-3,-43,-15,28,-38
1511883607950121,25,12,18,5,-76,-8,40,-37
1511883607964092,10,19,10,-1,-51,-6,46,-8
1511883607964092,-10,-1,8,3,-46,-7,43,-13
1511883607972117,-12,-11,1,11,-53,2,28,-20
1511883607972117,-10,14,-7,19,-37,-3,21,-23
1511883607987192,-7,-5,6,26,-29,-2,5,-15
1511883607987192,13,-1,3,12,-8,8,12,9
1511883607988192,2,-9,-2,8,6,-5,8,5
1511883607988192,2,5,0,9,3,-21,-10,9
1511883608001229,33,-4,-6,-20,-21,-18,-8,8
1511883608001229,36,-5,-4,-9,-11,-9,-11,-6
1511883608010277,33,8,7,-3,-8,-8,-22,0
1511883608010277,-1,15,-11,-10,-3,-16,-17,-5
1511883608024406,-4,20,7,-22,27,-23,-17,-19
1511883608024406,-1,12,-1,-9,100,-3,-33,-15
1511883608032309,14,4,-6,-8,60,56,-33,-8
1511883608032309,48,13,15,2,42,113,-18,-4
1511883608047538,19,5,15,-8,6,99,-12,3
1511883608047538,12,-11,-1,-24,-18,73,2,2
1511883608048404,31,18,14,-11,5,40,0,-3
1511883608048404,19,-3,2,-17,103,2,-8,9
1511883608061420,10,-13,6,-11,117,-6,-3,-3
1511883608061420,2,-13,19,-17,37,-25,-20,0
1511883608069419,-11,17,19,-17,-39,-42,-12,-14
1511883608069419,-6,7,27,-9,-88,-45,-23,-5
1511883608083961,7,-2,13,-5,-78,-61,-27,-15
1511883608083961,14,1,8,-4,-72,-50,-27,-29
1511883608091978,11,-7,1,-6,-59,-43,-24,-37
1511883608091978,28,-2,-7,-3,-60,-42,-12,-48
1511883608107048,28,10,-12,4,-48,-23,-15,-45
1511883608107048,8,24,-13,-1,-41,-4,8,-28
1511883608108021,23,9,-10,8,-22,13,2,-15
1511883608108021,-1,3,-6,2,-21,24,-25,14
1511883608121055,-2,9,7,6,-30,23,-58,34
1511883608121055,-5,-10,-8,2,-15,25,-78,38
1511883608129077,-14,-12,-11,4,-77,13,-54,37
1511883608129077,-12,4,-6,5,-125,6,-34,33
1511883608144129,-7,9,-4,2,-128,22,-8,30
1511883608144129,19,3,2,-8,-128,21,22,24
1511883608152138,17,13,3,-21,-68,13,27,1
1511883608152138,1,0,4,-8,6,2,44,-12
1511883608167233,-12,1,8,-12,75,16,35,-6
1511883608167233,-16,4,22,-3,99,27,39,16
1511883608168239,-21,-2,4,3,94,1,22,17
1511883608168239,-29,-1,20,-2,93,-2,15,21
1511883608181811,-9,-4,-9,22,108,-33,3,17
1511883608181811,-17,7,0,25,127,-30,-4,13
1511883608188831,25,-6,2,30,127,-28,-4,2
1511883608188831,39,1,-10,9,67,-23,7,-7
1511883608203877,20,1,1,18,-3,-37,9,-11
1511883608203877,10,4,-10,4,-56,-40,-3,-17
1511883608211867,-19,3,-5,2,-69,-41,4,-15
1511883608211867,-12,3,-16,3,-58,-27,20,-11
1511883608226907,-6,-20,-21,9,-60,-15,37,-29
1511883608226907,-10,0,-13,21,-56,-20,37,-42
1511883608227910,-31,-6,-8,0,-30,-39,28,-37
1511883608227910,-19,-11,-5,11,-27,-24,2,-39
1511883608240944,-37,9,-1,6,-29,4,1,-33
1511883608240944,-24,1,5,9,-14,26,-3,-38
1511883608248964,-30,0,5,-7,-1,29,-4,-18
1511883608248964,-19,8,1,-6,-12,20,-10,-1
1511883608264046,-11,-29,-12,-14,-11,19,-9,15
1511883608264046,-7,-13,8,-17,1,15,-28,14
1511883608272036,10,-12,-9,-19,-1,13,-18,21
1511883608272036,7,4,8,-15,-8,12,-10,28
1511883608286687,-12,17,-8,-21,-2,2,0,28
1511883608286687,-16,19,1,-19,1,1,12,11
1511883608294708,-18,6,11,-10,-3,0,2,6
1511883608294708,-17,-7,4,-4,-2,-8,-11,-1
1511883608301727,-14,19,16,-4,1,-11,-18,-3
1511883608301727,-9,-8,6,5,-2,0,-2,4
1511883608308773,-5,14,20,5,-2,6,6,2
1511883608308773,-6,4,-1,16,0,-1,-1,-8
1511883608323784,4,0,-11,14,-2,4,-8,-6
1511883608323784,-7,5,-14,8,-3,-4,-15,-9
1511883608331832,9,-4,-11,12,0,6,1,-6
1511883608331832,-6,-8,-10,30,-1,-3,9,9
1511883608346845,-2,2,-26,28,-2,2,16,8
1511883608346845,10,-3,-25,23,-23,-9,18,-8
1511883608354896,-6,-7,-23,18,-58,-1,14,2
1511883608354896,-10,2,-11,1,-64,4,9,-13
1511883608361415,-3,-2,-1,1,-48,-2,7,-10
1511883608361415,-9,-14,-9,-2,-27,-7,1,4
1511883608368932,-15,-2,-4,-7,2,-3,-5,13
1511883608368932,-7,-20,2,-6,14,6,-3,20
1511883608383929,-5,-30,2,-1,26,13,4,3
1511883608383929,-4,-21,-4,-7,21,11,14,8
1511883608391949,8,-15,-5,-5,27,6,13,20
1511883608391949,2,-5,6,-5,11,4,7,23
1511883608405986,4,-10,-4,-5,7,8,-3,13
1511883608405986,3,-25,2,-8,-13,3,-4,2
1511883608415010,-6,-10,-7,-5,-20,-3,-1,-1
1511883608415010,3,1,-8,-7,-3,-5,3,-10
1511883608429074,15,7,5,-8,2,-18,5,2
1511883608429074,-7,4,23,5,18,-12,-2,10
1511883608430079,7,1,9,3,21,-7,-11,-7
1511883608430079,2,1,-13,0,4,6,-15,-12
1511883608453138,-28,0,1,-3,-26,10,-13,-14
1511883608453138,9,7,-7,-10,-15,5,-3,-8
1511883608453138,2,5,-15,2,-11,-1,-6,1
1511883608453138,-1,1,6,5,3,-7,-8,4
1511883608466719,-10,7,6,2,-3,-8,-8,2
1511883608466719,-19,6,0,0,-1,-2,6,1
1511883608475212,-20,0,6,-6,-76,4,0,-5
1511883608475212,-14,-10,2,-3,-76,7,0,-16
1511883608497331,-3,0,-5,-12,-69,11,-8,-16
1511883608497331,15,13,-3,-15,-35,-1,0,-7
1511883608498308,28,4,-2,-5,10,-8,2,-7
1511883608498308,14,9,-1,-10,8,-11,3,5
1511883608504350,38,4,13,8,19,-22,5,0
1511883608504350,41,4,14,14,24,-1,4,-5
1511883608512376,39,3,6,10,49,4,10,1
1511883608512376,32,-5,-16,3,77,3,14,9
1511883608526412,22,6,-3,3,63,4,11,0
1511883608526412,-1,-9,-19,-1,-90,-3,-1,7
1511883608534404,-5,-2,-3,9,-115,4,-10,-1
1511883608534404,-2,-12,0,-2,-106,1,-3,6
1511883608549444,1,3,15,-6,-60,-8,4,-3
1511883608549444,-7,4,6,-12,-4,0,-5,-9
1511883608550447,-32,14,-8,-6,8,17,-12,6
1511883608550447,-23,15,3,-5,8,33,-23,16
1511883608573007,-5,5,-1,-15,17,32,-47,3
1511883608573007,17,-16,-2,-26,31,21,-41,7
1511883608573509,3,-26,1,-20,44,11,-26,-4
1511883608573509,13,-6,-1,-14,30,-6,-17,-2
1511883608586589,-4,-4,-6,-18,9,-6,0,9
1511883608586589,-6,-12,5,-10,37,-8,3,-5
1511883608594587,0,1,-4,-9,42,-9,16,-7
1511883608594587,2,12,1,13,47,-14,15,6
1511883608609627,-5,-12,-6,1,18,-16,21,16
1511883608609627,-15,0,-4,5,21,-14,7,26
1511883608610632,-10,12,-2,-5,37,-8,-1,13
1511883608610632,-34,-10,-7,-7,16,-8,-13,6
1511883608623693,-21,6,-3,6,9,-7,-16,-6
1511883608623693,-25,3,4,13,19,-16,-4,-11
1511883608631715,-7,1,4,2,13,-21,1,-22
1511883608631715,-10,-3,3,-14,-1,-19,4,-16
1511883608646757,-11,-8,6,2,11,1,25,-7
1511883608646757,2,-3,14,-4,3,7,34,9
1511883608654779,4,-10,8,-10,-3,-8,21,3
1511883608654779,17,-1,-10,-20,18,-5,23,-9
1511883608669844,10,3,-16,-2,7,1,25,2
1511883608669844,-2,4,-7,-7,-13,1,30,7
1511883608670346,9,9,7,-3,-10,8,20,7
1511883608670346,-4,-13,0,-3,-10,5,11,-4
1511883608684069,-9,-2,2,0,-13,1,-5,-13
1511883608684069,9,-5,-8,3,2,5,-14,-7
1511883608692098,6,12,-6,12,-9,7,-16,16
1511883608692098,29,4,-2,5,1,10,-14,19
1511883608706135,36,32,0,8,3,8,-6,12
1511883608706135,42,32,1,14,-9,6,-10,-9
1511883608714125,29,13,-6,7,-20,6,-10,-3
1511883608714125,-1,18,8,9,-10,-3,-9,5
1511883608729166,-22,-10,4,-2,-4,-2,-19,11
1511883608729166,-25,6,12,-6,9,-5,-22,9
1511883608730169,-14,-2,2,-1,20,-4,-23,6
1511883608730169,-22,0,-6,-10,-3,14,2,5
1511883608744207,-13,3,23,9,2,8,4,8
1511883608744207,-16,-7,19,-5,2,-4,11,6
1511883608752227,-19,-6,16,0,6,-11,14,11
1511883608752227,-3,7,13,0,-5,-3,3,5
1511883608775338,9,-10,-3,-16,2,-8,10,8
1511883608775338,-2,3,-1,-13,7,-9,2,45
1511883608776341,-11,-9,-8,-11,0,-4,6,57
1511883608776341,4,-9,-3,-7,-3,-5,1,39
1511883608789353,-7,-1,2,-15,-9,-11,-2,7
1511883608789353,2,4,-14,3,9,0,3,-11
1511883608790356,-6,-7,-10,1,5,3,12,-39
1511883608790356,-1,8,-5,6,-6,2,5,-53
1511883608804393,-11,-14,-13,-6,-9,-1,1,-54
1511883608804393,-12,9,-4,-2,-5,-2,2,-48
1511883608812442,-11,-9,1,0,4,3,3,-38
1511883608812442,5,-5,2,-2,4,4,15,-28
1511883608826477,7,0,9,-5,19,1,22,3
1511883608826477,-9,0,-17,-10,2,-6,10,4
1511883608834505,-6,10,4,-10,16,-1,2,1
1511883608834505,-23,15,5,4,6,-8,-12,0
1511883608849550,-6,7,-3,-4,0,-5,-12,-1
1511883608849550,-6,8,-1,-3,-4,-9,-18,0
1511883608850522,8,13,11,14,-15,-10,0,2
1511883608850522,-3,5,-7,15,-5,-9,7,-2
1511883608864097,2,2,-5,5,-5,-4,12,6
1511883608864097,15,-6,-15,6,-6,4,18,-2
1511883608873114,42,7,-7,-4,3,7,-5,-5
1511883608873114,28,-1,-1,7,2,5,-11,11
1511883608886681,4,-15,-7,-1,-13,3,-3,21
1511883608886681,-9,-11,1,0,-7,7,-1,8
1511883608895680,-13,-7,5,7,8,8,14,8
1511883608895680,5,-11,-7,14,17,6,3,-1
1511883608908808,13,13,1,20,9,2,-2,-6
1511883608908808,22,-10,-2,13,-4,-9,-9,-1
1511883608917714,-2,-1,-2,17,-4,-7,-8,2
1511883608917714,-10,-14,4,14,-10,-6,5,-8
1511883608923915,14,-5,-11,10,-16,-6,-7,-4
1511883608923915,14,5,0,10,2,-14,-12,5
1511883608932754,-27,-11,2,-9,3,-12,-10,-1
1511883608932754,-10,-5,-1,-3,4,-13,-12,7
1511883608946996,-23,-21,-2,-5,10,-7,-13,-3
1511883608946996,-11,-7,7,-8,6,19,-15,-5
1511883608955816,-3,-12,-4,-20,-7,0,-27,0
1511883608955816,-1,-5,15,-14,-8,-2,-27,1
1511883608969369,-11,-9,8,1,10,-3,-29,9
1511883608969369,-18,-18,-8,-5,-2,-4,-31,14
1511883608977897,-4,-22,-9,-7,13,2,-11,20
1511883608977897,8,2,-5,-9,9,-3,4,3
1511883608983916,16,4,-5,3,0,-6,11,4
1511883608983916,2,5,9,4,12,0,19,-2
1511883608992941,4,0,6,7,6,2,13,-10
1511883608992941,1,8,3,-8,12,8,14,-8
1511883609007011,-7,11,4,-6,15,14,5,-2
1511883609007011,0,12,-3,-1,-2,-5,4,-3
1511883609015133,2,1,-13,1,-3,-1,11,-16
1511883609015133,2,6,1,-3,-4,-1,8,-9
1511883609029035,-7,2,9,-4,-8,-11,8,-15
1511883609029035,-17,4,14,1,5,-7,0,-12
1511883609038091,-9,4,6,5,-7,-12,7,-8
1511883609038091,7,-5,0,-1,-3,-16,-1,1
1511883609053249,8,-17,0,-7,-5,-1,-5,-1
1511883609053249,-3,-6,-12,-6,4,13,-3,-6
1511883609054126,-7,4,-2,0,3,16,-7,-14
1511883609054126,-1,-7,-3,-1,10,14,1,-9
1511883609066640,-3,-8,-15,3,3,5,-3,13
1511883609066640,0,-12,-14,0,1,-5,1,11
1511883609075662,-15,15,-4,-8,6,-1,-5,17
1511883609075662,-17,-1,-8,-17,-7,-1,-29,7
1511883609089121,-17,8,-3,-8,11,2,-23,-7
1511883609089121,-15,9,-1,1,5,4,-6,-9
1511883609098118,4,1,-13,2,1,-6,12,-18
1511883609098118,16,18,6,4,-5,-9,22,-11
1511883609104134,22,12,-9,2,-11,-2,14,-23
1511883609104134,26,8,6,2,3,3,4,-14
1511883609119201,7,4,2,4,-7,-14,-3,-11
1511883609119201,-5,1,4,0,-3,3,4,-7
1511883609126193,-19,0,-6,4,-11,9,14,-16
1511883609126193,9,6,-6,6,3,11,9,-15
1511883609135217,42,2,-6,5,-1,-4,5,-27
1511883609135217,22,1,-14,0,5,-8,1,-55
1511883609149281,5,5,5,-2,1,5,0,-63
1511883609149281,-19,7,-2,-6,6,0,3,-35
1511883609158278,-9,-7,0,-7,-4,1,-7,44
1511883609158278,-7,-5,-1,7,10,-7,1,111
1511883609164327,20,-3,0,6,1,-3,2,127
1511883609164327,12,-19,-9,3,-8,11,-3,127
1511883609173348,-12,-15,0,21,-3,7,-10,106
1511883609173348,-16,4,-13,34,1,-2,-16,75
1511883609186414,-22,1,-4,38,20,-11,-2,46
1511883609186414,-21,4,-10,9,11,-29,16,4
1511883609195415,-19,1,6,11,10,-13,12,-1
1511883609195415,-10,-18,-18,-9,-6,-5,5,-13
1511883609208473,-15,8,8,-4,2,-8,-9,-9
1511883609208473,-13,30,10,-6,5,-7,-13,-5
1511883609217497,-21,36,-7,-13,3,9,5,-11
1511883609217497,-13,43,11,0,-7,3,10,-11
1511883609223516,10,21,-1,-8,-6,-10,7,-22
1511883609223516,4,-25,-10,-3,-17,-6,-1,-38
1511883609232511,-1,-13,-2,-8,-5,-2,-6,-40
1511883609232511,-15,-30,10,-6,3,12,-8,-41
1511883609246547,11,-39,13,-22,5,7,-12,-25
1511883609246547,7,-44,6,-14,3,8,0,-26
1511883609255571,15,-3,4,-7,1,14,12,-33
1511883609255571,3,-20,-9,0,-7,4,11,-43
1511883609269167,2,-14,-2,-10,-6,-3,13,-46
1511883609269167,-3,-2,10,-3,8,-5,0,-48
1511883609278161,-8,-13,28,-11,3,2,-4,-44
1511883609278161,-17,-2,36,-12,13,19,2,-34
1511883609283547,-21,6,23,4,7,11,11,-29
1511883609283547,-4,2,-6,17,2,1,15,-23
1511883609292571,19,7,-19,6,-9,2,9,-19
1511883609292571,9,-15,-34,-1,-12,-4,4,-4
1511883609306631,22,10,-26,7,-2,2,5,2
1511883609306631,41,2,-3,8,-3,-4,3,10
1511883609315633,33,6,-6,4,-5,-5,-3,-1
1511883609315633,14,-1,19,7,2,6,4,4
1511883609329669,-1,-4,6,-6,-17,3,-3,-13
1511883609329669,-36,5,1,-4,-8,-2,3,-21
1511883609337691,-45,0,-9,-11,-19,1,8,-26
1511883609337691,-26,5,2,1,-13,-1,10,-57
1511883609352730,29,-1,-8,-7,-11,-10,7,-55
1511883609352730,54,17,-4,-11,-11,-16,-7,-53
1511883609354736,33,3,-4,3,8,-14,-6,-27
1511883609354736,17,9,-7,1,-5,-25,-2,-9
1511883609366797,-9,10,-13,-13,-12,-31,-6,18
1511883609366797,-5,11,23,2,-6,-7,-1,31
1511883609375292,9,-1,8,-7,-17,-10,-2,27
1511883609375292,11,8,7,3,-12,-12,5,23
1511883609388470,9,-6,-15,5,1,3,1,6
1511883609388470,10,-3,-18,-8,6,8,3,12
1511883609397492,12,-12,-7,-4,7,1,3,26
1511883609397492,31,-4,-9,-3,12,5,-4,43
1511883609412560,31,5,-10,5,-7,1,-7,68
1511883609412560,28,0,-2,5,-1,-3,-4,56
1511883609414568,18,-15,-10,6,7,10,0,39
1511883609414568,4,-5,-7,-1,28,8,-7,20
1511883609426597,-7,-5,20,15,27,6,2,10
1511883609426597,-28,-13,2,6,13,8,4,-3
1511883609435595,-19,1,3,0,11,4,5,-18
1511883609435595,-27,-7,0,6,23,8,4,-20
1511883609448629,-50,0,-11,-4,18,5,11,-13
1511883609448629,-27,9,6,-3,8,7,13,-7
1511883609457653,-22,-11,6,-4,12,3,1,-1
1511883609457653,-16,-1,2,-10,4,12,-7,-8
1511883609472752,-5,-13,5,-6,9,18,-12,-12
1511883609472752,-8,12,2,9,8,7,8,-3
1511883609474753,3,-4,4,-3,2,-33,4,-13
1511883609474753,-28,-7,15,0,-1,-57,2,-23
1511883609486788,-35,11,10,1,-12,-42,-11,-23
1511883609486788,-35,-2,7,-2,-20,-26,-5,-44
1511883609495811,-31,-2,13,7,-12,3,-2,-34
1511883609495811,18,-3,3,-3,-16,6,-6,-31
1511883609508875,17,-6,8,-6,-20,14,-13,-19
1511883609508875,6,-9,4,-18,-19,20,-18,-7
1511883609517868,-4,-3,-11,-12,-21,12,-25,0
1511883609517868,10,-5,0,-2,-19,18,-18,20
1511883609539951,2,-4,6,-8,2,30,-1,19
1511883609539951,7,-10,9,9,-3,18,-1,16
1511883609541933,0,10,14,11,-7,14,9,23
1511883609541933,-10,-1,-6,13,-8,22,11,27
1511883609545945,-4,2,-16,6,-13,25,10,19
1511883609545945,-41,-4,0,19,-4,23,-14,16
1511883609554995,13,4,-20,-2,4,19,-19,-8
1511883609554995,29,11,-2,-5,2,13,-13,-27
1511883609569034,24,7,8,-5,3,9,-12,-32
1511883609569034,14,-6,-7,-19,11,1,1,-16
1511883609578058,20,2,8,7,3,0,-15,-6
1511883609578058,15,6,-12,-17,2,1,-19,10
1511883609593155,6,10,1,-8,-1,-7,-11,3
1511883609593155,10,3,-5,-2,0,-6,-5,3
1511883609594133,-9,-7,-4,2,-1,-2,-3,8
1511883609594133,2,-5,-22,2,-8,2,10,6
1511883609607193,-1,-16,-14,11,4,-7,3,10
1511883609607193,10,-8,-5,11,-3,-12,-1,9
1511883609615188,5,-12,-4,2,3,2,4,0
1511883609615188,-5,-6,8,2,2,-7,-9,2
1511883609629225,-22,-6,-2,-2,-1,-11,-1,18
1511883609629225,-2,13,1,-12,0,-9,1,18
1511883609638249,-5,-12,-18,-7,0,0,-3,19
1511883609638249,-3,-28,-19,-9,-3,-3,-5,20
1511883609652313,-11,-15,-33,-9,5,7,-6,19
1511883609652313,13,16,-26,3,-6,7,-9,22
1511883609659331,-9,-4,-21,1,-13,-7,2,10
1511883609659331,-6,20,-23,-4,-6,8,4,4
1511883609666826,13,5,-11,-11,3,-7,0,9
1511883609666826,7,-6,-17,-3,11,-9,-3,5
1511883609675349,11,16,1,2,-2,-2,2,14
1511883609675349,-7,10,5,24,6,-5,8,8
1511883609688428,8,5,7,8,-4,-8,16,-11
1511883609688428,-6,1,9,-3,3,-4,9,-12
1511883609697483,21,5,6,-12,11,-9,8,0
1511883609697483,29,-4,17,-16,6,2,-2,9
1511883609712521,30,-7,-7,-6,2,5,-5,3
1511883609712521,9,-6,10,-7,-15,6,-3,-4
1511883609714496,-7,-8,-4,-8,-2,7,8,-10
1511883609714496,-9,4,-4,-16,-3,1,16,2
1511883609726553,-23,12,12,3,6,11,17,3
1511883609726553,-8,17,4,3,1,-4,22,8
1511883609735575,-29,12,10,11,-14,-1,21,-3
1511883609735575,-20,9,5,3,-17,-3,9,6
1511883609748614,-6,-20,6,-9,15,-1,-2,5
1511883609748614,9,-22,1,-14,18,1,-11,2
1511883609757611,-5,-1,9,-16,14,11,-10,-4
1511883609757611,-2,12,3,-6,4,7,-3,-4
1511883609772679,-5,7,5,-6,-11,0,-7,2
1511883609772679,0,-4,-5,-11,-4,-4,-9,2
1511883609774685,-5,-2,4,0,4,-10,-12,-6
1511883609774685,1,3,7,10,11,-11,-13,2
1511883609786241,-8,13,-1,4,-3,10,-3,14
1511883609786241,-7,5,-7,9,1,23,-1,13
1511883609795236,-8,-13,-8,-2,3,19,2,15
1511883609795236,-6,-19,-3,8,-4,31,4,20
1511883609809301,-21,13,-2,5,-5,9,0,17
1511883609809301,-49,6,5,4,-20,-5,6,12
1511883609818298,-42,15,10,23,-9,-10,-1,6
1511883609818298,-27,5,-9,5,-3,-4,-12,-9
1511883609832336,11,3,10,8,-6,-3,-12,1
1511883609832336,18,-23,-13,-3,0,-2,-17,3
1511883609834341,23,10,8,8,9,5,-12,10
1511883609834341,12,1,12,6,0,-5,-16,8
1511883609846494,11,-4,4,-12,0,-7,-15,5
1511883609846494,7,3,6,-7,-1,-4,-11,12
1511883609855396,6,-1,-5,-5,-10,-15,-2,17
1511883609855396,2,11,7,-12,-15,-14,9,19
1511883609869494,-18,-3,7,10,-22,-19,2,20
1511883609869494,-11,1,-6,6,-7,-13,7,22
1511883609883657,-10,-6,-10,-9,-10,-3,3,19
1511883609883657,13,-9,-8,-9,-5,-11,-12,8
1511883609907905,12,-2,5,5,5,-8,-46,-8
1511883609907905,15,8,10,12,-1,-9,-58,-26
1511883609909727,-8,10,-2,7,4,-4,-47,-26
1511883609909727,-11,1,-4,8,-2,6,-16,-30
1511883609914744,-4,10,7,-1,-2,5,8,-33
1511883609914744,11,4,10,5,1,1,7,-22
1511883609916744,13,-3,-6,-9,-4,26,6,-20
1511883609916744,4,6,8,16,7,27,13,-21
1511883609928778,16,-8,-7,18,4,16,20,-18
1511883609928778,2,1,15,9,5,-2,29,-8
1511883609937801,10,-4,7,2,-5,-27,25,4
1511883609937801,8,-2,7,-2,-5,-28,13,-1
1511883609952842,-8,3,7,-6,-10,-27,28,-5
1511883609952842,7,-4,4,1,-8,-13,42,-2
1511883609953863,-3,-4,0,-8,-6,-18,30,21
1511883609953863,4,-4,6,-2,-6,-1,25,19
1511883609966936,-4,-7,8,-13,-14,-6,19,23
1511883609966936,3,-4,-4,-16,-20,0,22,20
1511883609975431,7,9,5,-1,-13,1,17,10
1511883609975431,11,15,-11,-3,-7,-2,16,0
1511883609988481,7,-17,-5,3,2,6,15,-2
1511883609988481,-13,-19,-9,-8,14,-5,2,1
1511883609997714,-10,-8,14,1,4,1,-10,7
1511883609997714,-26,-18,7,2,4,-13,-15,4
1511883610012748,-15,3,0,3,11,1,-14,-8
1511883610012748,7,-8,-16,-5,6,10,-16,-10
1511883610014552,16,2,-7,-5,3,13,-19,-17
1511883610014552,4,12,-4,-17,-1,9,-4,1
1511883610026583,-2,11,1,-11,4,12,6,6
1511883610026583,1,2,-104,0,10,7,-4,0
1511883610035642,12,-3,-37,2,11,-7,-8,0
1511883610035642,12,8,5,-5,9,-10,-11,6
1511883610048777,1,8,-57,-3,10,-4,-25,1
1511883610048777,-1,4,-45,3,1,4,-23,-17
1511883610057667,5,-11,-107,5,8,-5,-15,-14
1511883610057667,4,-2,-97,-2,8,-14,-11,-10
1511883610071341,3,-3,-63,3,-2,-15,0,-7
1511883610071341,6,-1,-26,-6,-3,-3,-4,-10
1511883610079888,8,-13,18,6,0,0,-9,-17
1511883610079888,12,-5,64,2,-9,-3,-21,-19
1511883610085880,14,-13,72,-3,1,-12,-27,-16
1511883610085880,6,-2,88,5,-7,-14,-29,-5
1511883610094904,15,1,76,-5,-9,-13,-14,6
1511883610094904,5,-10,49,4,3,-19,2,27
1511883610108943,10,-5,37,6,19,-7,6,6
1511883610108943,2,0,47,8,21,-6,7,1
1511883610117975,6,2,36,-5,21,-4,4,-12
1511883610117975,16,-7,10,-6,8,1,11,-34
1511883610131002,9,-4,7,-18,-10,8,19,-27
1511883610131002,7,-6,30,1,-1,12,14,-23
1511883610140024,11,8,10,1,1,6,13,-24
1511883610140024,2,1,-4,3,-4,-11,4,-12
1511883610146048,12,-1,5,-10,-1,-17,-1,-6
1511883610146048,9,1,13,-19,-6,-13,-7,12
1511883610161088,0,1,1,-10,13,-12,3,8
1511883610161088,-6,-15,-6,-14,8,-5,0,0
1511883610169104,-10,3,2,0,8,-1,10,0
1511883610169104,-5,3,6,-8,-8,0,21,-15
1511883610178129,-3,-8,-1,0,-18,4,16,-13
1511883610178129,-8,4,0,3,-23,9,111,-31
1511883610191221,-24,-3,-1,-2,-22,1,62,-29
1511883610191221,-21,15,3,5,-6,2,28,-30
1511883610200225,-13,10,2,13,-7,5,-4,-28
1511883610200225,-9,9,-2,7,-10,3,-39,-17
1511883610206258,13,-7,-2,5,-6,-5,-43,-8
1511883610206258,5,-9,1,11,-1,-10,-32,0
1511883610215257,-14,-14,1,9,2,-2,-27,7
1511883610215257,-22,-8,-3,-2,10,13,-39,27
1511883610229294,-14,4,-3,-1,4,22,-31,28
1511883610229294,-14,4,3,-12,3,1,-30,28
1511883610238343,6,5,0,-12,7,1,-9,0
1511883610238343,10,-2,-3,3,2,-1,-15,-27
1511883610251375,16,-9,0,6,-1,-8,-4,-41
1511883610251375,12,4,2,4,-3,4,15,-36
1511883610260375,2,10,-1,2,-10,5,13,-10
1511883610260375,-5,-1,-2,-7,-6,14,20,-1
1511883610266395,0,1,0,4,-7,0,17,26
1511883610266395,-9,-18,0,1,-5,2,18,18
1511883610275420,-12,-3,-1,7,10,2,14,16
1511883610275420,-8,-11,-1,-5,7,7,-28,8
1511883610289016,3,21,18,7,12,4,-22,-1
1511883610289016,1,21,17,-4,-5,9,-15,-2
1511883610298011,-6,30,17,-3,-18,2,-13,-15
1511883610298011,-7,25,6,6,-20,-8,-15,-22
1511883610311046,-19,-1,-12,3,-23,-14,3,-8
1511883610311046,1,-15,-7,0,-5,-18,10,-5
1511883610320070,4,-27,4,-6,-3,-20,13,0
1511883610320070,-16,-40,-6,6,10,-13,9,0
1511883610335110,-15,-13,10,-2,5,16,22,2
1511883610335110,-15,-17,-9,-7,-9,20,1,5
1511883610337115,-8,-13,13,-12,-1,9,5,16
1511883610337115,-12,2,22,-14,2,-7,1,13
1511883610349175,-12,-1,13,1,1,-5,9,10
1511883610349175,-14,3,26,1,-1,-2,8,12
1511883610358171,2,-5,13,-2,-2,-1,8,1
1511883610358171,4,1,26,3,5,5,7,-4
1511883610371766,-4,3,21,7,24,12,-5,-5
1511883610371766,-3,5,25,8,9,5,-3,3
1511883610380832,-2,7,-21,-3,0,5,-15,4
1511883610380832,2,15,-18,-4,5,2,-3,16
1511883610394861,8,10,-36,-17,-4,-2,9,9
1511883610394861,2,7,-27,-3,-4,-6,1,5
1511883610396841,-13,18,-18,1,6,0,-6,8
1511883610396841,0,7,-27,8,0,0,-19,1
1511883610408902,6,11,-8,-1,-10,4,-31,-4
1511883610408902,5,14,-7,-1,-17,1,-21,-5
1511883610417895,-1,4,16,-4,-22,-12,-11,-2
1511883610417895,15,8,9,6,-5,-10,-4,15
1511883610439982,14,0,24,9,2,-5,1,8
1511883610439982,10,-3,-9,14,8,3,-6,16
1511883610441960,-3,-11,-15,-3,2,-3,-3,17
1511883610441960,4,-1,-5,-5,-3,-9,-20,8
1511883610455021,1,-2,-7,-7,5,-17,-11,5
1511883610455021,2,7,10,-14,8,-10,0,3
1511883610457000,5,12,32,12,17,8,2,-2
1511883610457000,5,14,30,-11,-10,18,7,-11
1511883610469034,-5,12,7,-7,-9,23,0,-17
1511883610469034,20,16,-19,-12,-3,9,-3,-16
1511883610478058,16,-1,-26,-12,3,13,3,-16
1511883610478058,-6,18,2,0,7,15,1,-12
1511883610491658,3,-1,28,-5,-12,6,-6,0
1511883610491658,-7,-9,56,-5,-11,8,11,17
1511883610500676,12,-4,63,11,-4,-2,14,6
1511883610500676,83,-9,65,10,-2,-4,9,-10
1511883610514714,115,-20,41,-4,6,-4,1,-12
1511883610514714,121,-19,23,-2,4,-2,-9,21
1511883610516692,40,-3,14,-14,-11,3,-13,30
1511883610516692,-109,-2,-12,-6,-30,5,-10,27
1511883610528724,-128,3,-19,6,-21,0,-3,26
1511883610528724,-128,-5,-13,10,-15,1,10,9
1511883610537749,-128,-9,-25,1,-14,11,16,3
1511883610537749,-107,-13,-32,-1,-5,15,22,-4
1511883610550806,-65,-12,-35,-2,-9,11,9,-14
1511883610550806,-47,-5,-33,1,-12,6,12,-24
1511883610560809,4,-8,-29,6,-7,4,11,-17
1511883610560809,27,-3,-16,7,2,-8,7,2
1511883610575377,31,-11,-27,-2,2,-9,-1,9
1511883610575377,26,9,-18,-1,14,0,-8,3
1511883610576889,29,4,-36,-8,8,-1,4,-2
1511883610576889,44,-9,-40,-18,12,1,-2,0
1511883610588440,34,11,-41,-4,4,-8,9,-8
1511883610588440,5,0,-37,-3,1,-20,12,2
1511883610597464,6,-5,-39,2,7,-23,9,10
1511883610597464,23,-18,-37,1,5,-13,-5,16
1511883610611501,31,-10,-33,1,6,-5,-5,27
1511883610611501,51,-15,-20,6,12,-2,-3,16
1511883610620500,43,-9,-1,-2,17,3,-7,5
1511883610620500,29,-5,-5,5,13,-9,1,4
1511883610635565,-19,4,5,-6,8,4,-4,-2
1511883610635565,-3,-15,-4,3,9,-8,5,-5
1511883610636541,15,-8,16,4,-4,-14,-1,-3
1511883610636541,42,-4,19,5,-2,-11,-9,-2
1511883610648573,29,-1,5,7,-10,-12,-11,2
1511883610648573,46,1,0,4,9,5,-27,0
1511883610657597,68,4,-2,8,4,5,-23,-8
1511883610657597,52,5,-11,-1,-8,7,-23,-9
1511883610671693,58,-3,-9,-7,2,8,-15,-4
1511883610671693,98,-2,-11,-12,-8,4,-10,-10
1511883610680745,87,2,-25,-4,0,-2,2,0
1511883610680745,57,7,-43,8,-1,-12,5,-8
1511883610694782,-20,11,-46,14,5,4,6,-23
1511883610694782,-76,11,-33,3,-14,8,12,-23
1511883610696761,-74,2,-8,-6,-13,-4,5,-2
1511883610696761,-66,2,11,-13,-15,-13,16,4
1511883610708819,-57,1,43,-9,1,-1,17,11
1511883610708819,-57,7,63,-7,3,0,3,-4
1511883610717819,-54,7,74,6,39,36,-1,-15
1511883610717819,-33,21,66,-2,41,41,-4,1
1511883610730881,2,19,49,2,35,16,-15,5
1511883610730881,-2,28,35,18,13,12,-5,10
1511883610739898,-18,14,1,2,-13,-15,-8,9
1511883610739898,-25,-5,-2,4,-5,-21,-6,11
1511883610754916,-23,-17,-9,-4,-16,-8,2,28
1511883610754916,-37,-6,-8,-6,-10,-23,5,34
1511883610756921,-37,-9,-6,-11,-17,-26,-17,29
1511883610756921,-24,-8,-11,-23,-2,5,-25,18
1511883610768982,-15,2,13,-8,-10,-1,-43,8
1511883610768982,-7,5,-2,-5,-7,-9,-53,1
1511883610778007,-10,14,-2,11,0,-8,-21,-4
1511883610778007,-1,18,-2,9,4,-7,-11,-8
1511883610791569,-7,14,1,7,-1,-19,12,-8
1511883610791569,-8,17,7,2,-7,-12,26,-4
1511883610800593,-6,-2,-7,-5,-14,-9,25,-18
1511883610800593,-20,-2,6,-14,-66,-11,26,-13
1511883610815635,-5,-2,11,-11,-39,-8,19,-14
1511883610815635,16,-15,22,-1,-20,-14,8,-17
1511883610816637,13,-24,30,-5,21,-12,6,5
1511883610816637,-12,-31,31,4,49,-9,0,-3
1511883610828872,-42,-46,6,4,55,-8,-3,1
1511883610828872,-35,-51,86,14,49,-10,10,-5
1511883610837692,-1,-37,116,16,33,0,2,-3
1511883610837692,14,-40,127,12,17,-8,18,-5
1511883610851733,44,-15,127,0,-4,-3,24,-14
1511883610851733,24,-19,57,1,-7,10,8,-18
1511883610860758,10,-10,-17,9,-14,4,1,-24
1511883610860758,8,-6,-60,18,-17,7,-4,-12
1511883610875591,-16,-22,-120,16,-12,9,5,-5
1511883610875591,-25,1,-123,-2,-3,12,12,5
1511883610876985,-34,2,-123,-3,-29,5,18,-1
1511883610876985,-1,10,-128,-9,-24,-9,16,-4
1511883610889209,22,19,-127,-6,-3,-10,32,-8
1511883610889209,23,0,-126,-17,7,-2,34,-7
1511883610898256,28,7,-104,-22,8,5,32,-7
1511883610898256,20,13,-45,-8,-1,11,30,5
1511883610911264,15,-4,-30,-4,-28,5,14,-6
1511883610911264,4,13,-4,-3,-23,3,2,7
1511883610920287,-5,8,0,-12,-23,-2,1,6
1511883610920287,3,-12,-4,-5,-13,-5,-2,3
1511883610935327,4,-1,11,2,-21,2,-11,-1
1511883610935327,-3,-10,-40,-4,-36,-4,-14,0
1511883610936333,-19,18,-46,-4,-17,-6,-3,5
1511883610936333,-42,7,-50,3,2,-8,-9,4
1511883610949365,-40,25,-14,-1,6,-9,-10,-8
1511883610949365,-66,-3,6,6,2,-4,-16,-16
1511883610958388,-57,6,39,8,-14,6,-15,-8
1511883610958388,-28,17,38,2,-31,-9,-13,1
1511883610971450,-12,23,37,2,-21,-11,-11,-1
1511883610971450,29,2,35,2,-15,-10,-10,4
1511883610980160,21,10,33,-2,-39,-2,-18,-2
1511883610980160,6,14,30,0,-38,8,-16,-6
1511883610995385,10,8,22,-2,-14,23,-9,4
1511883610995385,-6,1,18,-14,-11,18,-2,-12
1511883610997227,6,-4,15,-10,19,7,-6,-8
1511883610997227,12,-6,10,-5,35,11,-7,-1
1511883611009266,23,20,11,1,38,1,-9,8
1511883611009266,22,-11,6,6,34,13,-7,11
1511883611018263,24,-9,5,1,31,12,-15,4
1511883611018263,16,-13,-6,-1,24,4,-8,-3
1511883611031490,25,-17,-17,-11,16,2,-2,2
1511883611031490,9,11,-8,-14,17,-10,-2,3
1511883611040319,3,-25,-12,-4,9,-8,-7,2
1511883611040319,10,12,-5,8,21,-4,-5,-1
1511883611055545,5,13,-11,12,15,-9,-9,8
1511883611055545,6,7,-19,7,5,1,-12,3
1511883611057389,30,-3,-23,0,5,-5,-13,5
1511883611057389,-8,30,8,4,16,0,-26,-4
1511883611068995,-8,4,-2,3,6,-13,-20,4
1511883611068995,1,-6,-5,1,7,-4,-7,5
1511883611078019,-3,-18,22,-5,5,-2,10,7
1511883611078019,8,17,1,-8,-3,-4,2,9
1511883611091099,0,-7,42,-9,-16,4,-3,-8
1511883611091099,1,3,12,-3,-14,1,-15,-6
1511883611100095,0,19,-11,10,-8,4,-8,2
1511883611100095,-9,-21,-74,-4,5,5,1,4
1511883611114160,7,18,-43,-6,5,6,0,3
1511883611114160,8,4,-16,13,3,-4,-15,-4
1511883611121158,11,3,12,5,-3,-9,-13,-3
1511883611121158,25,8,31,0,5,5,0,-2
1511883611129200,1,-16,30,5,0,-7,1,7
1511883611129200,7,-12,44,6,10,-7,13,2
1511883611138198,0,15,27,-2,5,-2,9,-1
1511883611138198,4,-9,14,-1,-7,5,9,-12
1511883611151265,3,-8,10,-5,-5,6,10,-18
1511883611151265,-3,8,22,-6,-5,12,9,-14
1511883611160256,-14,-5,18,-1,-5,8,9,-3
1511883611160256,1,-10,26,1,-11,4,8,-1
1511883611174798,-12,-7,2,-1,-11,2,1,2
1511883611174798,-24,-2,19,-3,-3,-2,-7,6
1511883611181377,9,11,32,3,2,2,-10,0
1511883611181377,-8,-17,79,6,-3,2,-14,-9
1511883611188395,8,-3,55,10,-5,1,-4,-7
1511883611188395,-3,-4,30,3,2,-8,9,-7
1511883611197447,-10,-17,-12,7,6,-3,18,5
1511883611197447,4,5,-27,-6,2,-7,5,17
1511883611211484,3,-7,-37,11,-2,4,2,18
1511883611211484,-2,-17,-52,-9,-18,7,-5,12
1511883611220482,-12,-9,-32,0,2,5,2,-5
1511883611220482,-21,9,-9,-5,0,-9,2,-7
1511883611242566,-19,-18,-17,0,7,-3,0,1
1511883611242566,-8,-10,-4,-8,3,-1,-3,-4
1511883611244561,4,-21,-2,9,4,7,1,-5
1511883611244561,4,-25,-13,-3,-3,4,-8,-3
1511883611257579,0,-4,4,-2,3,3,1,0
1511883611257579,3,3,6,11,-6,-1,7,0
1511883611259585,-9,1,6,-18,-23,-4,-7,-6
1511883611259585,-9,-4,17,1,-10,-5,-3,-12
1511883611271618,-14,-11,3,7,3,-5,-4,-9
1511883611271618,-15,2,-1,10,0,-11,14,-8
1511883611280691,-17,12,14,-4,-4,-20,6,-7
1511883611280691,-13,-7,10,0,-1,-6,3,1
1511883611294728,-6,-7,7,-10,-6,-6,-7,-7
1511883611294728,5,20,-3,-2,0,7,-3,6
1511883611301746,18,-7,1,1,-16,5,6,-7
1511883611301746,17,-26,8,-1,-11,3,6,8
1511883611317762,12,-5,-7,0,-15,9,1,5
1511883611317762,16,-4,-7,7,-29,7,-7,0
1511883611319767,16,5,-18,2,-28,7,-7,4
1511883611319767,12,3,-26,-1,-9,3,-5,-1
1511883611331799,5,2,-1,-17,-2,-7,-7,19
1511883611331799,-2,11,21,-4,10,7,-5,5
1511883611339821,-1,6,4,1,13,7,-5,8
1511883611339821,2,14,13,5,-8,-2,-2,-4
1511883611354861,-11,4,0,1,-25,-11,4,-13
1511883611354861,-7,37,3,0,-25,3,2,-11
1511883611360878,-7,3,-13,0,-9,0,16,-3
1511883611360878,-13,8,-12,-9,-12,0,20,5
1511883611377955,0,17,2,-14,-15,9,22,2
1511883611377955,-4,5,-1,-14,-22,7,16,1
1511883611379459,-21,18,5,7,-26,1,-3,-6
1511883611379459,-14,10,-19,-3,-31,0,1,3
1511883611391029,2,-1,-6,-7,-24,-11,-7,4
1511883611391029,3,-11,-12,-19,0,-5,-10,16
1511883611400044,7,-3,-13,-26,17,2,-12,11
1511883611400044,-8,5,-6,-9,34,7,2,11
1511883611423087,9,-7,-7,-14,35,4,1,2
1511883611423087,15,-15,-14,-5,35,-1,8,8
1511883611424095,-8,-3,7,-17,26,-13,3,7
1511883611424095,-3,-3,-2,-14,21,-15,-9,6
1511883611438153,-1,13,4,15,35,-4,-7,-23
1511883611438153,-2,-13,2,-9,25,-10,-7,-22
1511883611439129,-15,15,24,18,21,-10,8,-8
1511883611439129,-14,-8,6,2,9,-2,-3,-7
1511883611451185,-26,-4,-3,14,6,2,-1,-4
1511883611451185,-33,12,-6,-9,-9,7,1,-5
1511883611460186,-26,-7,-11,-5,-1,11,5,0
1511883611460186,-35,4,-1,3,11,8,8,7
1511883611474753,-26,-10,-13,-15,11,0,-2,12
1511883611474753,-20,1,1,1,22,-4,-7,12
1511883611481272,-6,2,-11,-2,27,-4,-4,15
1511883611481272,18,13,-8,6,14,-5,5,7
1511883611497345,24,-2,2,6,7,-2,-1,10
1511883611497345,5,-8,-15,1,-9,-5,-1,0
1511883611499323,11,4,-14,2,2,1,-1,-18
1511883611499323,8,-5,-16,-1,-7,-7,0,-25
1511883611511382,7,6,-11,-4,-13,-5,2,-5
1511883611511382,14,-3,-7,-3,6,-7,4,-1
1511883611520380,5,-6,-21,2,-1,0,-2,4
1511883611520380,2,-1,-11,4,-12,-4,-10,11
1511883611534412,-12,-8,-6,5,-15,-2,-3,12
1511883611534412,-9,0,-10,10,-12,2,-2,11
1511883611548449,1,-3,6,14,-12,7,-5,8
1511883611548449,16,-1,-15,9,-11,10,-3,3
1511883611557501,25,11,-5,12,-5,1,2,1
1511883611557501,42,-14,-28,12,-5,4,-4,1
1511883611559479,43,3,-18,2,-15,8,4,0
1511883611559479,31,-8,0,7,-5,10,2,11
1511883611571569,30,-6,2,4,3,-8,5,14
1511883611571569,21,-3,-4,10,7,-20,5,7
1511883611579589,16,9,3,4,11,-11,2,10
1511883611579589,21,2,-3,10,10,-3,0,2
1511883611609063,4,0,-18,0,-1,-2,0,4
1511883611609063,3,2,11,1,-2,-3,3,-7
1511883611617083,23,-9,3,-5,-4,0,0,-14
1511883611617083,24,-5,0,5,8,2,-4,-21
1511883611618086,18,1,5,4,11,5,-1,-30
1511883611618086,1,11,4,-8,6,6,-2,-10
1511883611625105,-4,-9,1,-1,1,-3,2,1
1511883611625105,18,1,-2,-11,26,-6,-4,-9
1511883611631120,8,-5,-3,-5,16,5,1,-8
1511883611631120,31,2,-1,11,9,-1,-4,-9
1511883611640144,17,-1,0,2,-10,-1,-9,2
1511883611640144,16,1,0,-8,-24,-6,-4,-2
1511883611654210,-3,-3,3,-16,-22,-7,-2,-7
1511883611654210,-14,4,10,-6,1,-1,-1,-8
1511883611661202,-21,9,1,-8,1,-13,4,-6
1511883611661202,-19,10,-6,-5,-9,-9,3,-4
1511883611677774,-39,16,-8,8,-7,1,5,7
1511883611677774,-41,2,-22,-1,-28,8,2,17
1511883611679278,-37,14,-20,0,-13,-3,-10,10
1511883611679278,-37,10,-12,4,5,4,-1,4
1511883611690971,-27,-7,0,3,-5,0,-6,7
1511883611690971,-30,-27,3,-4,-9,-3,5,5
1511883611700013,-19,-26,-2,-9,-3,2,15,-2
1511883611700013,-26,-18,25,-8,-10,2,12,1
1511883611714059,-21,15,8,-4,-6,5,6,3
1511883611714059,-12,26,9,1,-3,-11,-2,6
1511883611721084,-7,17,8,-5,15,-10,-4,11
1511883611721084,-2,9,18,-5,8,-1,-11,6
1511883611738123,8,-7,-1,-10,115,3,-24,5
1511883611738123,3,-12,8,-3,-89,-3,-18,3
1511883611739099,8,-7,-20,-3,-104,-4,-21,-3
1511883611739099,-2,-10,-21,-5,-128,-9,-23,0
1511883611751160,4,0,-29,-9,-128,0,-21,-3
1511883611751160,0,10,-35,-7,-22,10,-6,-11
1511883611760156,-2,-1,-19,-1,13,9,7,-9
1511883611760156,-18,-3,-23,-1,-4,6,6,-1
1511883611774696,-21,-8,-4,10,13,2,3,-5
1511883611774696,-22,-2,11,13,49,-2,-3,-23
1511883611781215,-23,3,23,10,29,5,-4,-19
1511883611781215,-6,0,18,-1,53,0,3,-14
1511883611797283,3,-12,3,-8,27,2,-1,-15
1511883611797283,1,15,9,5,29,4,-6,-13
1511883611799263,-16,10,15,10,21,4,1,-19
1511883611799263,-21,-7,2,-2,19,-2,2,-12
1511883611811322,-10,-5,23,1,-13,-8,12,-2
1511883611811322,13,-5,11,-1,1,-11,3,14
1511883611820317,18,-3,6,-6,9,-4,-13,4
1511883611820317,4,6,7,-6,10,6,-6,0
1511883611834388,-6,1,-4,-7,-5,2,3,-16
1511883611834388,-6,-10,-9,-5,13,6,6,-3
1511883611841414,-2,-4,-7,0,-6,6,10,3
1511883611841414,0,-7,12,12,-6,7,2,8
1511883611857448,-10,-4,6,6,-16,3,2,5
1511883611857448,-13,-16,11,5,4,11,-2,4
1511883611859457,-13,-15,13,7,2,10,-2,-7
1511883611859457,0,-3,2,-1,-4,5,3,-16
1511883611871494,5,-6,3,-5,-17,3,-1,-18
1511883611871494,11,-6,-4,-11,-17,-3,-3,-20
1511883611880781,16,-5,-9,-1,3,3,4,3
1511883611880781,21,14,-4,14,16,-7,0,8
1511883611894792,9,-1,-5,15,7,-14,-5,11
1511883611894792,-1,3,8,11,3,-10,-2,-10
1511883611901836,-10,-14,2,0,-7,-10,-4,-7
1511883611901836,-4,-1,-6,-6,12,-9,3,-11
1511883611917961,8,0,4,6,5,-2,4,8
1511883611917961,18,-2,-11,-26,2,-8,1,1
1511883611918846,13,10,-2,-102,-3,-15,4,-10
1511883611918846,-2,9,3,-97,-7,-13,3,-13
1511883611931911,-9,-11,3,-88,-9,-16,9,-6
1511883611931911,7,5,10,-37,7,0,8,6
1511883611940928,10,-7,-6,-9,6,-3,-10,14
1511883611940928,-2,-2,9,11,-15,-3,-11,19
1511883611954945,-1,-14,-11,2,-12,9,-10,16
1511883611954945,-12,-7,0,-6,-12,1,7,15
1511883611960958,-6,1,2,-10,-4,-5,8,5
1511883611960958,1,-12,0,-1,2,-12,5,-2
1511883611978013,9,-1,-1,6,-6,-19,-12,-9
1511883611978013,7,-5,2,-9,4,-14,-12,-8
1511883611979513,7,3,-19,-6,-8,-17,-7,1
1511883611979513,-3,0,-1,4,5,-1,-3,8
1511883611991889,10,-7,12,6,8,16,-1,10
1511883611991889,1,2,14,2,6,12,10,-3
1511883612000709,-18,-5,-2,15,2,21,1,-10
1511883612000709,1,-7,-12,11,18,13,6,-6
1511883612014931,-2,17,-10,13,14,16,10,0
1511883612014931,1,11,4,21,13,5,-13,8
1511883612021769,-2,-2,11,15,5,-1,-9,-3
1511883612021769,1,-11,8,18,-2,4,-16,1
1511883612036934,-6,-7,8,28,-5,-4,-11,-3
1511883612036934,-5,2,1,45,-7,2,-7,-7
1511883612043834,109,-3,4,55,-4,3,0,-6
1511883612043834,119,-3,8,25,-10,6,4,-12
1511883612051846,127,-11,4,13,-5,7,5,-11
1511883612051846,61,1,-3,10,1,1,12,-9
1511883612060882,-13,7,2,30,-6,-1,1,-10
1511883612060882,-53,13,-3,36,9,7,0,1
1511883612075033,-84,23,-11,24,-6,0,6,3
1511883612075033,-116,15,-16,23,-13,3,14,8
1511883612081131,-127,8,0,44,12,10,12,5
1511883612081131,-87,20,2,61,-4,7,16,-3
1511883612105153,-60,6,-4,59,-6,10,16,3
1511883612105153,2,-8,-1,56,-2,18,4,3
1511883612107160,13,-1,16,28,0,14,6,6
1511883612107160,11,10,13,6,0,9,5,1
1511883612111197,-2,-8,4,-2,2,3,8,-10
1511883612111197,26,-3,5,-16,-5,2,9,-7
1511883612120193,19,1,-5,-16,-11,-2,1,-9
1511883612120193,11,-1,-14,-10,-5,-12,-3,-13
1511883612134230,5,18,1,-26,-10,-10,-12,1
1511883612134230,11,3,-16,-26,-4,-18,-8,9
1511883612141249,2,-3,1,-12,-14,-23,5,16
1511883612141249,-3,-3,-11,-20,-3,-4,11,22
1511883612157320,-1,0,-4,-12,0,-6,-2,-2
1511883612157320,10,-15,-7,-9,3,-10,-9,0
1511883612164312,28,4,-10,-13,2,-8,-5,-1
1511883612164312,10,-21,-6,-24,-8,-12,1,-4
1511883612179857,5,1,8,-17,-6,5,5,-12
1511883612179857,-6,-4,3,-24,5,14,5,-6
1511883612182143,7,-7,6,-13,7,6,-3,-10
1511883612182143,17,-6,7,-10,-1,13,-4,-2
1511883612194176,0,4,12,-11,0,4,-10,-2
1511883612194176,5,-1,8,-14,-7,-6,-12,-3
1511883612201194,-9,-7,-16,-13,-6,-2,-7,8
1511883612201194,-5,0,-10,-22,0,7,-18,5
1511883612217236,-4,6,1,-62,3,-4,-9,1
1511883612217236,-4,-3,-5,-75,-6,-3,0,0
1511883612224254,-26,-7,1,-62,8,8,6,11
1511883612224254,-15,1,-1,-33,17,3,-7,4
1511883612240324,13,-8,-10,-3,15,8,-3,6
1511883612240324,5,-2,-9,8,14,5,3,7
1511883612241327,7,-2,-2,6,14,0,2,0
1511883612241327,0,-2,1,17,16,-4,5,-6
1511883612254362,-5,3,-4,13,20,-5,4,-3
1511883612254362,-1,5,12,4,2,-13,-12,0
1511883612261381,5,4,4,5,-14,-12,-23,4
1511883612261381,4,-14,-3,2,-17,-5,-18,0
1511883612277399,1,-9,1,15,-5,-6,-7,-12
1511883612277399,-1,-9,-2,16,-1,-4,3,-4
1511883612283994,-7,-1,6,3,-24,2,5,0
1511883612283994,8,8,-3,2,-12,0,-7,2
1511883612300037,15,-6,-5,20,-20,-1,-11,15
1511883612300037,25,-8,2,5,-23,-1,-9,4
1511883612302043,12,5,6,5,-1,1,-16,-4
1511883612302043,-3,8,-4,-2,-5,-2,0,9
1511883612314101,-6,-5,-15,0,-5,-7,3,6
1511883612314101,-9,-3,-5,15,0,-2,5,-9
1511883612321119,5,-5,-4,15,-2,-6,0,-4
1511883612321119,0,-10,-1,20,6,-4,-1,6
1511883612337136,-11,8,-4,23,11,-3,2,10
1511883612337136,-14,5,0,21,1,-8,13,18
1511883612344187,0,6,-15,16,1,6,18,9
1511883612344187,1,-7,-10,7,3,11,13,6
1511883612360227,8,10,-8,-9,-3,9,7,4
1511883612360227,4,0,-12,-3,-5,18,-4,7
1511883612362202,1,2,-8,-5,0,6,5,7
1511883612362202,-2,2,-1,-2,1,-7,12,4
1511883612374288,1,-5,1,-5,0,-12,11,-3
1511883612374288,-2,7,2,1,16,-12,-1,-6
1511883612382288,-18,4,13,13,8,-6,-4,-3
1511883612382288,-15,-7,-7,6,-6,-3,-4,2
1511883612397354,-13,-9,2,3,-13,3,-11,4
1511883612397354,-1,1,-4,9,6,-1,-8,-6
1511883612404373,0,-10,-6,-7,5,-6,-5,-6
1511883612404373,-4,4,9,-9,-2,3,8,-11
1511883612420390,0,14,-8,-9,0,8,10,-18
1511883612420390,-5,-8,-8,-6,3,2,-2,-5
1511883612421392,-9,2,3,1,-6,0,-5,-3
1511883612421392,-6,6,13,2,-23,-9,-12,-13
1511883612433432,14,-9,11,1,-24,-5,-14,-12
1511883612433432,31,9,22,2,-24,5,-17,-6
1511883612442448,21,4,9,9,-18,-1,-8,-6
1511883612442448,14,3,0,4,-4,-6,-14,3
1511883612457510,-2,-3,1,1,7,-8,2,0
1511883612457510,-2,-2,-14,-14,18,-3,7,-4
1511883612463531,-3,-15,-4,-13,18,2,1,-4
1511883612463531,-12,-7,3,-15,19,-4,-5,0
1511883612480552,-11,-6,-5,-7,37,5,-10,1
1511883612480552,-25,-5,-10,-15,19,-4,5,-3
1511883612481556,-17,-3,-9,-17,13,-5,-11,-1
1511883612481556,-5,-6,-10,-4,25,1,-8,-14
1511883612493588,-7,-10,-18,0,26,4,4,-5
1511883612493588,12,-1,-12,1,17,5,5,4
1511883612502611,4,-1,-14,-2,4,1,4,-2
1511883612502611,7,1,-12,-13,-8,0,5,-9
1511883612516649,12,0,3,-9,-4,4,-3,-8
1511883612516649,-9,2,9,-19,1,-2,-6,0
1511883612523694,-3,2,1,-9,4,-1,1,-3
1511883612523694,35,0,1,-11,-7,6,10,-6
1511883612539741,49,-6,6,-13,-20,4,5,0
1511883612539741,40,14,10,0,-18,13,10,-4
1511883612541714,30,19,9,5,-20,-3,-11,-5
1511883612541714,11,22,-5,1,-21,-4,3,-6
1511883612553774,8,38,-5,2,-14,-11,6,-8
1511883612553774,-3,13,8,7,-22,-5,-1,-5
1511883612562792,-8,6,5,3,-13,0,-10,-7
1511883612562792,-13,-1,3,19,-19,-3,-18,21
1511883612577339,20,-9,1,26,-21,-8,-10,26
1511883612577339,20,-4,7,29,-18,-4,7,22
1511883612583907,5,-9,-2,2,-22,-1,15,22
1511883612583907,-9,-6,3,3,-1,-4,21,17
1511883612599953,-38,-7,11,-2,0,-5,14,10
1511883612599953,-65,-6,-1,5,-2,-5,18,-3
1511883612601932,-43,4,5,4,1,-2,26,-15
1511883612601932,-29,1,6,0,2,-10,10,-25
1511883612613990,-12,-3,5,-3,-7,-8,-4,-24
1511883612613990,-4,-8,7,-6,-3,-3,-7,-19
1511883612622988,-8,-2,5,-7,-4,-10,-7,1
1511883612622988,-15,-5,1,-9,0,-7,6,8
1511883612637051,-8,-5,2,-2,1,-9,6,16
1511883612637051,11,-19,-14,-12,-8,-8,-4,3
1511883612644045,20,-9,-9,-4,0,1,-4,5
1511883612644045,16,-16,1,-2,9,4,-6,3
1511883612660113,-9,-6,3,-1,10,1,2,-2
1511883612660113,-9,4,-3,2,4,-2,-3,-4
1511883612662091,-18,8,1,-6,1,-2,0,3
1511883612662091,-5,1,10,-5,-4,3,-5,-11
1511883612674176,-9,2,4,-12,-7,10,2,-2
1511883612674176,-5,1,-9,-13,-13,7,3,0
1511883612682837,12,2,-3,-3,5,2,1,9
1511883612682837,-4,6,-8,-1,2,-5,-5,6
1511883612696899,10,-3,-6,4,2,-7,0,-2
1511883612696899,3,-8,8,-2,3,-11,1,-5
1511883612703916,17,-6,-3,-1,14,-1,14,-13
1511883612703916,12,1,-1,-3,-1,8,5,-12
1511883612719963,-3,-7,1,0,-10,1,-1,-3
1511883612719963,-8,8,-5,1,-3,6,-5,2
1511883612721973,-7,-12,6,-3,1,11,-3,2
1511883612721973,-11,6,-3,-1,7,13,0,3
1511883612734000,-3,21,3,-1,7,18,-4,-6
1511883612734000,14,-5,4,-5,12,0,-3,2
1511883612742997,10,8,5,4,19,-1,-3,2
1511883612742997,17,14,2,-3,18,-5,0,10
1511883612757061,3,-9,11,-4,9,2,1,9
1511883612757061,-1,0,-4,5,13,2,-5,11
1511883612764077,7,4,-15,0,1,-5,-1,2
1511883612764077,19,-2,-14,-1,-2,-11,-5,1
1511883612780098,15,13,-21,-10,6,-9,0,-2
1511883612780098,1,15,-11,-8,1,-5,6,-6
1511883612781933,5,1,-16,-3,1,-5,-7,-3
1511883612781933,-5,-5,-8,-2,17,0,-28,-9
1511883612793966,-23,-8,-7,-1,22,-2,-35,-4
1511883612793966,-27,-16,5,-2,22,-3,-25,-1
1511883612803008,-19,-9,0,1,17,-6,-3,0
1511883612803008,-10,-18,-2,2,6,1,11,-3
1511883612817051,16,-6,-2,-1,-5,-2,5,-5
1511883612817051,13,0,3,1,5,1,-1,-8
1511883612824172,14,4,0,0,-9,4,3,0
1511883612824172,7,1,-1,-3,-11,-3,8,-1
1511883612840220,-21,1,-4,1,-1,-9,9,3
1511883612840220,-28,8,-5,-2,1,-12,7,0
1511883612842093,-29,-2,2,-1,0,-14,-5,-8
1511883612842093,-23,8,-1,-2,-1,-12,-9,4
1511883612854128,-18,-23,1,-4,-2,-12,9,7
1511883612854128,12,-4,3,2,-6,-11,-1,7
1511883612863148,21,-16,3,0,-4,0,-4,5
1511883612863148,13,-15,3,8,-8,2,-4,5
