timestamp,emg1,emg2,emg3,emg4,emg5,emg6,emg7,emg8
1511883899026141,-2,2,-1,11,0,1,1,-3
1511883899026141,1,1,0,10,-16,2,2,1
1511883899029675,-1,-2,-7,-21,-11,5,-1,-2
1511883899029675,1,3,2,-4,8,-8,2,3
1511883899032707,0,0,-3,-9,-4,-6,-5,1
1511883899032707,1,1,-1,29,16,3,-4,-3
1511883899033686,0,2,0,4,10,0,2,2
1511883899033686,-3,-2,-2,-4,-4,3,-2,-1
1511883899037698,-1,-10,3,1,4,1,-1,-1
1511883899037698,1,3,-3,-10,-22,-5,7,2
1511883899045718,-1,-4,-1,2,3,-3,-8,-2
1511883899045718,-2,-1,-3,-16,-20,-5,1,-2
1511883899062763,-2,0,-7,-10,13,-9,-9,-1
1511883899062763,0,0,6,1,4,2,1,-2
1511883899065771,3,5,-4,0,-7,6,6,1
1511883899065771,-1,1,9,1,-3,-1,-3,-3
1511883899082817,0,-1,3,25,2,3,7,2
1511883899082817,-1,3,-11,-42,-3,6,-7,-2
1511883899096881,-2,-8,0,-9,-14,-12,3,1
1511883899096881,-2,1,-2,20,23,2,-5,-3
1511883899098859,3,2,0,-23,-6,1,1,0
1511883899098859,-1,-1,2,14,9,-5,-1,-2
1511883899142319,-4,-3,-4,-7,3,2,-1,-1
1511883899142319,-2,-1,-4,-3,15,4,3,-1
1511883899143315,0,-1,6,5,-11,1,-2,-2
1511883899143315,-3,-2,-11,-10,-5,-12,-7,0
1511883899144311,0,-3,-3,-33,-5,2,0,-2
1511883899144311,-1,-2,-6,-21,-23,-4,0,1
1511883899145300,2,13,2,2,3,7,5,-2
1511883899145300,-1,-14,2,0,2,-3,-5,-5
1511883899157335,-1,-6,-3,14,-27,-6,-4,0
1511883899157335,0,4,10,-12,-7,-5,4,4
1511883899163347,-2,-4,0,0,-4,-7,-3,0
1511883899163347,1,5,3,9,-12,8,4,-1
1511883899170397,0,0,1,-1,18,4,0,-3
1511883899170397,-2,-6,-6,-12,-20,-10,-1,-4
1511883899185411,0,-2,-5,-4,1,5,1,1
1511883899185411,4,10,2,-11,9,-8,-5,-2
1511883899193476,-2,-10,1,10,-4,-3,1,0
1511883899193476,-1,4,-6,-20,-7,-4,-5,-3
1511883899217580,-1,-2,4,2,4,5,5,-1
1511883899217580,-1,0,1,-1,13,4,-3,-1
1511883899218048,2,3,1,-4,-2,0,2,3
1511883899218048,2,-1,0,23,23,5,-3,2
1511883899231252,1,-4,-10,-17,3,2,-5,-2
1511883899231252,-2,3,17,11,-17,-2,-1,-2
1511883899232211,1,5,-2,0,-7,0,0,0
1511883899232211,0,1,3,10,-3,6,6,1
1511883899254267,-2,-4,-3,-4,7,-8,-7,-3
1511883899254267,1,-4,-3,9,-8,-11,-8,3
1511883899255272,-1,6,-2,-5,-3,-8,-7,-3
1511883899255272,1,1,3,19,16,6,0,2
1511883899277331,-3,-5,-6,-16,6,6,6,-6
1511883899277331,-2,1,0,4,-3,-10,-4,3
1511883899278335,-2,0,0,4,-1,-4,-7,-1
1511883899278335,2,-1,-1,-15,12,2,-2,-2
1511883899291368,-1,-2,-2,30,12,-4,-5,-1
1511883899291368,-2,-3,-6,-11,24,12,12,-1
1511883899292367,0,0,-2,4,-19,0,-2,0
1511883899292367,-3,-3,2,-5,-6,-3,-3,-4
1511883899314603,-1,-5,0,8,5,6,7,3
1511883899314603,-1,9,3,-3,-7,1,7,0
1511883899315101,0,-9,-5,9,12,-4,-5,-2
1511883899315101,-3,-2,0,-6,1,5,-1,-6
1511883899337565,-2,-7,3,4,-15,-4,1,-1
1511883899337565,-2,-4,-10,-22,4,4,4,1
1511883899338444,1,6,1,-3,7,0,2,-1
1511883899338444,1,2,8,38,12,2,1,-1
1511883899351474,0,1,-3,-17,-13,-5,-6,-1
1511883899351474,-2,-3,-2,11,0,7,2,0
1511883899352477,-3,3,3,-18,-16,-17,4,2
1511883899352477,0,-12,-5,3,0,2,-4,1
1511883899373553,0,9,4,2,-7,-8,-6,0
1511883899373553,2,-1,-5,-10,-10,0,-3,-4
1511883899374556,2,0,7,20,18,4,5,-1
1511883899374556,-2,1,-3,-12,-13,1,-2,-1
1511883899397617,-5,-23,-12,-2,-9,-1,0,-1
1511883899397617,1,1,10,3,-9,-3,-2,2
1511883899397617,-2,0,-2,-4,5,1,3,1
1511883899397617,0,2,3,9,0,4,0,-1
1511883899411630,3,6,6,28,-8,-9,1,0
1511883899411630,-2,-7,-10,-16,-4,2,1,-2
1511883899412632,-6,-3,0,-3,-12,1,-7,-5
1511883899412632,2,5,1,1,-17,1,3,-1
1511883899433724,1,3,4,12,13,4,8,1
1511883899433724,0,4,-6,-15,-3,-4,-3,-5
1511883899434722,0,0,5,0,7,-8,-2,2
1511883899434722,2,-4,-7,12,-6,-5,-1,2
1511883899456806,0,7,2,-14,15,3,-1,-2
1511883899456806,-1,-4,4,4,-11,5,-3,-3
1511883899457789,1,-1,-4,-15,-3,5,0,-1
1511883899457789,-1,2,-4,-4,13,-3,-1,-1
1511883899471848,2,4,10,2,-23,-7,-1,2
1511883899471848,-3,3,0,-3,17,-1,1,1
1511883899471848,-3,-7,-6,1,-1,7,2,0
1511883899471848,2,2,1,0,-4,-10,-2,0
1511883899493880,-3,-3,-8,-19,3,5,-2,-1
1511883899493880,-2,3,0,6,-8,-13,-7,1
1511883899494882,2,0,0,11,4,11,7,1
1511883899494882,-1,-3,-4,-13,1,-11,-2,-4
1511883899517444,-2,4,2,-4,-2,-1,-3,0
1511883899517444,-1,-12,-3,21,6,1,0,-1
1511883899517946,1,1,2,-6,3,-1,-3,-2
1511883899517946,0,-8,-5,21,14,5,-4,0
1511883899531025,-3,4,-5,-13,-18,4,6,-1
1511883899531025,0,-7,5,1,-12,-17,-9,-1
1511883899539026,2,11,-1,7,-12,0,1,-1
1511883899539026,-3,1,0,-11,21,-1,-1,-5
1511883899554064,0,-5,-1,-7,5,-1,-13,0
1511883899554064,0,0,-7,3,-1,1,0,-2
1511883899555091,-1,3,2,16,7,-1,-2,-3
1511883899555091,-3,-17,5,-2,-16,1,2,1
1511883899577126,2,3,-10,-9,9,-4,-2,3
1511883899577126,-1,1,3,5,20,7,2,-2
1511883899578128,2,5,1,-7,-11,1,8,4
1511883899578128,-2,-1,-7,6,-14,1,-2,0
1511883899591164,-3,-11,4,3,-28,-12,-3,-1
1511883899591164,1,2,3,4,-3,5,0,0
1511883899599184,0,-5,-8,12,9,3,2,2
1511883899599184,0,7,3,-22,-9,-5,-5,-3
1511883899614224,0,0,4,4,5,-7,-1,0
1511883899614224,-1,0,2,15,-3,5,4,-1
1511883899614728,-1,-6,-5,-18,1,-6,-8,-4
1511883899614728,0,-1,-2,-8,3,11,5,-2
1511883899636831,0,3,-4,-9,6,-7,-4,2
1511883899636831,-1,0,1,-7,11,2,-2,-4
1511883899637798,0,-6,4,9,9,6,7,3
1511883899637798,-2,6,4,16,5,4,3,0
1511883899650871,-1,-2,-4,-9,11,-6,-3,-3
1511883899650871,0,2,1,20,8,-1,3,1
1511883899658885,-5,-2,0,-25,-23,-4,-7,-4
1511883899658885,0,3,-2,-1,-7,-1,6,4
1511883899673922,1,2,4,12,24,6,-2,0
1511883899673922,-2,-4,0,-20,-8,2,4,1
1511883899674925,-2,-2,-8,14,25,-4,-6,-5
1511883899674925,0,3,1,8,-5,3,-1,-3
1511883899696983,-5,-18,-9,-26,9,1,-7,-4
1511883899696983,0,5,-2,10,3,0,4,2
1511883899697959,1,5,-1,-1,-5,0,-3,0
1511883899697959,-3,-7,0,-16,-45,-9,-5,1
1511883899711018,3,11,3,13,6,5,7,2
1511883899711018,-3,-18,-7,-3,-5,-1,-4,-1
1511883899719067,-2,-6,-8,-18,9,-3,4,0
1511883899719067,1,8,12,32,-1,-1,-2,2
1511883899733671,0,1,-5,-19,-13,-2,3,-4
1511883899733671,2,5,0,-10,-2,9,6,0
1511883899734673,-1,-2,2,19,-9,-18,-12,2
1511883899734673,-2,-2,-3,-8,9,-1,1,0
1511883899756731,0,-1,-1,-8,3,4,4,0
1511883899756731,1,6,-3,2,-16,-2,-1,-2
1511883899757734,-1,-6,-4,-2,10,4,2,0
1511883899757734,-1,-5,-8,-7,23,3,0,-2
1511883899770768,-2,2,11,19,-12,-6,-2,-1
1511883899770768,-1,0,-3,3,4,2,4,0
1511883899778818,-1,3,6,-3,-8,3,-3,-5
1511883899778818,-1,-2,3,-12,2,-8,3,1
1511883899793856,1,12,5,19,2,-5,-3,2
1511883899793856,-4,-17,-4,2,6,-2,-5,-2
1511883899794860,-4,-7,-1,20,-5,2,3,-1
1511883899794860,-2,4,-6,-29,4,-3,-5,-1
1511883899817396,2,2,4,11,22,9,5,0
1511883899817396,-2,1,-7,-10,-7,-1,-3,-1
1511883899817897,1,0,-5,-18,6,-9,-1,2
1511883899817897,3,-1,15,38,31,12,5,1
1511883899830933,-1,2,-7,-14,-6,3,-3,-2
1511883899830933,0,3,2,-6,-9,-10,-5,0
1511883899838953,-2,-3,1,1,12,2,-2,-4
1511883899838953,1,7,-3,-2,-10,3,4,1
1511883899854021,-1,-4,8,3,-22,-13,-4,0
1511883899854021,1,4,-3,4,7,7,2,-1
1511883899854997,1,7,-7,3,-9,7,-4,0
1511883899854997,-2,-4,5,7,9,-8,1,1
1511883899877084,1,0,-2,1,-30,-5,4,-4
1511883899877084,-4,-5,-9,-20,-38,-8,-8,-3
1511883899878058,-2,1,8,-10,-6,-2,0,1
1511883899878058,1,5,-5,24,11,6,-1,0
1511883899891122,-2,-7,-8,-24,-3,2,3,0
1511883899891122,-2,3,8,9,17,1,1,1
1511883899899114,1,-6,0,-4,20,8,4,-4
1511883899899114,-5,-1,-11,-13,-31,-13,-11,-4
1511883899914154,0,1,4,11,-3,4,5,0
1511883899914154,0,-3,0,2,12,3,-2,-1
1511883899915158,-1,-5,-8,-7,-16,0,0,-2
1511883899915158,-1,-6,-7,-30,1,-6,-4,-3
1511883899937277,-1,-1,1,28,-9,-6,-1,4
1511883899937277,2,5,-3,-30,7,3,-3,1
1511883899938275,0,2,7,31,-11,3,5,4
1511883899938275,-2,-1,-4,-11,15,1,-4,-6
1511883899959330,-1,0,-8,4,3,10,5,-1
1511883899959330,-1,17,9,1,-11,-28,-16,-4
1511883899960306,-4,-14,-5,2,-12,-2,1,-1
1511883899960306,4,9,2,-1,6,-5,-5,-3
1511883899974366,2,0,2,-8,15,13,6,0
1511883899974366,-5,-8,-7,4,-5,-2,2,1
1511883899974366,6,23,14,-10,4,4,-2,-3
1511883899974366,-2,8,5,2,-30,-12,0,0
1511883899997406,-4,-19,-10,-4,4,-4,-8,-2
1511883899997406,-1,-3,-6,-14,-9,2,3,-4
1511883899997406,-2,5,1,5,-2,1,0,1
1511883899997406,1,6,7,-5,-1,-1,1,0
1511883900019995,2,4,1,4,2,2,4,-2
1511883900019995,4,14,17,19,14,-4,-2,3
1511883900020496,-3,1,-3,2,4,-8,-13,-5
1511883900020496,-3,-8,-5,-14,-2,2,-4,-1
1511883900033532,-5,-3,2,-2,4,1,-2,-6
1511883900033532,2,-16,-10,8,20,5,5,0
1511883900034534,4,-10,-4,-7,8,9,10,4
1511883900034534,3,-2,6,6,8,-1,-12,-1
1511883900056593,-4,0,-3,3,21,-18,-6,2
1511883900056593,-4,-13,0,-3,20,5,0,-5
1511883900057597,-8,-13,-11,-11,-31,-10,0,-4
1511883900057597,2,-6,5,20,28,9,7,3
1511883900079681,1,19,-4,-35,-16,12,2,1
1511883900079681,3,-2,8,21,10,5,2,2
1511883900080685,0,-22,-11,7,-9,-5,1,6
1511883900080685,7,34,15,-14,-2,3,0,0
1511883900093719,-1,6,6,-10,12,-10,-17,0
1511883900093719,0,4,-2,6,19,7,26,4
1511883900094717,-6,-16,-6,9,31,-25,-28,-6
1511883900094717,6,15,9,6,-22,4,5,3
1511883900115782,-1,-24,-10,3,24,2,4,1
1511883900115782,-4,31,-2,-31,-21,2,-8,-6
1511883900124779,-1,11,3,7,21,12,8,0
1511883900124779,-14,-24,-23,-10,-9,-6,-2,-4
1511883900139822,0,5,9,3,-25,-9,-7,-3
1511883900139822,-3,-11,0,7,-5,-5,-3,0
1511883900140824,3,5,1,-11,-16,7,13,-2
1511883900140824,-2,-6,-2,-1,-13,-13,-11,0
1511883900161879,-1,-29,-13,5,-3,6,0,0
1511883900161879,12,18,24,14,-1,5,1,6
1511883900163912,-3,-4,-7,-18,-3,-2,-2,-1
1511883900163912,-5,-14,-9,8,-1,8,9,-1
1511883900175941,-1,2,-1,3,-7,-1,-1,-4
1511883900175941,-1,2,1,-2,-13,-7,-2,2
1511883900184941,-2,5,3,1,-6,2,-1,-1
1511883900184941,3,-2,1,3,-11,-2,1,2
1511883900199981,1,16,6,-3,-17,-11,-4,-1
1511883900199981,-4,-17,-14,-15,-5,-2,-4,-3
1511883900200983,-1,2,3,6,13,2,2,-4
1511883900200983,-9,-20,-12,1,-8,2,-6,-5
1511883900222570,-1,-4,0,23,7,15,6,3
1511883900222570,4,1,0,-35,-1,5,5,2
1511883900224074,-3,-4,-2,2,23,96,3,0
1511883900224074,2,-1,1,-21,-51,-61,-19,-1
1511883900236107,1,4,1,1,3,47,6,1
1511883900236107,-4,-9,-7,-8,32,6,-4,-1
1511883900245132,3,7,3,4,5,22,6,3
1511883900245132,2,-1,3,6,18,0,12,0
1511883900258218,-3,2,9,14,-20,-32,-18,0
1511883900258218,-1,-4,-6,17,-27,0,3,-2
1511883900267191,-2,-7,-5,-4,4,-19,0,1
1511883900267191,-5,-5,-7,-5,-28,-73,-20,-8
1511883900282262,2,-4,-5,-6,30,8,9,1
1511883900282262,0,-6,1,8,-12,-4,2,1
1511883900284237,1,5,2,-6,-1,0,-5,-1
1511883900284237,-2,-2,-3,1,14,33,9,0
1511883900296302,1,2,-3,-13,-4,-7,2,-2
1511883900296302,-3,3,-2,-13,5,6,-4,-3
1511883900305295,1,5,1,-23,-26,-24,0,3
1511883900305295,-1,-1,-4,-5,16,24,4,4
1511883900319374,-1,-1,1,3,-4,-10,0,-2
1511883900319374,-2,4,2,15,13,10,-3,-5
1511883900325856,3,8,7,13,-2,-19,-2,0
1511883900325856,1,2,-5,10,24,11,2,1
1511883900342404,-2,0,-2,1,1,10,1,-3
1511883900342404,-1,-5,-4,5,-8,-8,-3,1
1511883900343408,-1,3,1,2,-1,-17,-5,-1
1511883900343408,0,-3,0,1,9,21,4,-2
1511883900364463,-1,0,2,-1,-1,-1,-1,-2
1511883900364463,0,-1,1,1,1,-6,-3,1
1511883900366480,-1,-3,-1,-1,-8,-14,-2,-1
1511883900366480,1,-2,-1,-4,3,17,2,2
1511883900378500,-3,-1,-1,-4,0,-3,0,-2
1511883900378500,-2,0,-3,0,-12,-6,-2,0
1511883900385541,-4,-1,3,-1,2,-2,-3,-2
1511883900385541,0,3,-1,-2,5,7,3,-1
1511883900402566,2,1,-1,10,21,9,3,-1
1511883900402566,-2,-6,-9,-11,-26,13,-5,-4
1511883900403567,2,3,-4,-3,-4,0,1,1
1511883900403567,2,-2,1,3,12,17,5,1
1511883900424624,-3,-2,-4,-1,-12,-34,-12,-2
1511883900424624,2,-1,0,6,19,-5,3,1
1511883900426629,1,-1,0,-3,-8,21,0,0
1511883900426629,-3,-2,-2,-6,-9,-31,-8,-1
1511883900439205,0,-1,-2,-4,12,24,6,-1
1511883900439205,0,1,-1,3,-2,-6,3,-1
1511883900447225,-3,0,-2,-1,10,12,-1,-3
1511883900447225,2,0,0,5,-2,-7,-3,-2
1511883900462265,-1,-2,1,-5,-8,-3,-1,0
1511883900462265,-2,2,-1,-1,4,-3,-1,-1
1511883900463269,1,-4,0,1,7,-4,3,1
1511883900463269,-3,-2,-1,1,-18,16,3,0
1511883900484354,0,-1,0,-6,-2,-12,-2,0
1511883900484354,1,4,1,3,-6,0,1,0
1511883900486330,-2,-1,-1,0,8,0,1,0
1511883900486330,0,-1,-1,1,3,-14,-6,1
1511883900498386,1,0,2,-2,-24,8,2,0
1511883900498386,-2,-5,-2,0,15,25,4,-3
1511883900507386,0,3,0,-3,-21,-69,-11,-3
1511883900507386,-2,-1,2,0,3,-4,-2,-2
1511883900522428,-1,0,0,-2,-10,4,-2,1
1511883900522428,-1,-4,-1,0,2,4,-1,0
1511883900523960,3,13,5,1,-10,-1,0,0
1511883900523960,-3,-5,0,-1,10,14,2,0
1511883900544227,2,3,5,1,-2,-5,-2,-1
1511883900544227,0,-3,1,0,0,-13,-3,-3
1511883900546232,2,-4,0,14,-2,6,1,-1
1511883900546232,1,-2,-2,-7,0,3,2,1
1511883900558292,0,-1,0,3,-1,4,0,0
1511883900558292,-3,-3,0,29,-4,-7,-4,-4
1511883900567287,-1,-4,2,-7,4,3,-1,1
1511883900567287,1,1,-3,-19,-3,8,2,-2
1511883900582329,-3,-9,-18,-30,-3,-9,-5,-5
1511883900582329,6,20,6,0,18,5,9,2
1511883900583330,-3,-3,20,51,8,0,-7,0
1511883900583330,5,11,5,17,7,9,0,-1
1511883900604414,-7,-6,-10,-81,-25,-17,-5,-1
1511883900604414,-8,-19,-19,-1,-13,-14,-14,-6
1511883900606391,2,-1,1,-30,-6,-3,0,4
1511883900606391,4,4,26,62,13,8,4,1
1511883900618982,2,1,-5,-15,1,5,-1,0
1511883900618982,2,1,18,34,19,8,5,2
1511883900634556,-8,-11,-31,-67,-51,-13,-1,-6
1511883900634556,-2,0,3,-13,0,-1,-4,-1
1511883900642547,3,3,-1,12,3,1,5,-2
1511883900642547,0,-8,-2,-9,-7,-6,-3,4
1511883900643550,5,8,18,64,24,13,6,3
1511883900643550,-7,-8,-19,-40,-15,0,5,-5
1511883900664637,-3,-1,-7,-25,-1,-9,-9,-3
1511883900664637,0,4,-6,-23,-23,-10,-4,-1
1511883900666612,4,4,16,53,27,5,0,1
1511883900666612,-4,-3,-19,-48,-14,8,10,-4
1511883900678670,-4,-8,24,27,18,-1,-10,-1
1511883900678670,-4,-11,-11,-27,-22,-14,-11,-5
1511883900687667,0,2,1,5,9,4,1,0
1511883900687667,0,0,-11,14,1,2,-1,0
1511883900701734,-1,1,5,-4,11,7,6,1
1511883900701734,3,2,0,-26,0,-2,-3,3
1511883900703710,-2,-3,5,35,4,4,0,-2
1511883900703710,0,-2,3,-3,-8,12,19,2
1511883900724833,-2,0,5,30,-14,-13,-11,0
1511883900724833,-7,-10,7,9,-16,-24,-17,-9
1511883900726306,-4,-6,-21,-7,5,-8,-5,-6
1511883900726306,1,0,4,28,18,7,5,1
1511883900737868,4,2,4,39,12,16,13,5
1511883900737868,2,3,-1,15,12,10,7,1
1511883900746888,-2,-3,-11,-36,-15,-1,0,0
1511883900746888,-3,-7,-2,6,25,-2,-5,-3
1511883900761929,2,2,-13,-74,-9,-9,-3,-1
1511883900761929,1,11,-8,-15,9,4,0,0
1511883900763934,-5,-26,-14,-1,13,-1,-1,-2
1511883900763934,-2,6,3,-32,-16,-25,-22,-4
1511883900784990,5,9,8,70,36,13,7,3
1511883900784990,-2,8,2,-43,-56,-6,1,-3
1511883900785966,-3,-13,-7,-14,2,10,14,2
1511883900785966,-2,0,10,-13,16,-8,-15,-4
1511883900798025,1,0,-2,5,3,0,-3,0
1511883900798025,1,1,6,42,24,8,6,2
1511883900807022,6,13,9,18,-1,5,2,2
1511883900807022,-10,-13,-4,-42,-23,-8,-8,-7
1511883900822593,-1,1,-6,32,-12,-4,0,2
1511883900822593,0,-3,5,-28,-18,7,11,1
1511883900824096,-3,-1,-12,-81,1,-23,-18,-5
1511883900824096,4,3,-2,34,2,7,7,5
1511883900844679,0,-8,-2,24,9,4,9,1
1511883900844679,-1,-1,18,36,12,-8,-11,-1
1511883900845682,-3,9,-10,-22,-52,-14,-9,-5
1511883900845682,5,-3,-11,-3,-4,13,12,5
1511883900859719,-6,-4,-2,-16,-6,-2,0,-7
1511883900859719,4,5,5,71,17,16,16,7
1511883900867741,-2,4,-7,-49,15,2,-3,-4
1511883900867741,3,3,5,25,0,-11,-11,0
1511883900881805,-1,0,-9,1,-13,-1,-3,1
1511883900881805,-3,-5,-3,-17,10,-3,-2,-4
1511883900883783,0,6,15,2,-6,2,0,1
1511883900883783,1,2,4,8,-3,0,3,1
1511883900904866,2,2,0,23,-5,0,0,1
1511883900904866,-3,6,-15,-85,-4,-4,-6,-3
1511883900905843,0,-3,10,34,28,3,4,-1
1511883900905843,-2,-4,-23,-15,-3,4,7,1
1511883900918431,-1,3,15,-10,-40,0,5,3
1511883900918431,-9,-8,1,-4,7,-34,-28,-12
1511883900927427,5,4,-2,16,-17,11,9,3
1511883900927427,-3,-11,12,18,-18,-7,-6,-6
1511883900942522,4,8,5,-15,23,14,11,1
1511883900942522,-1,-7,4,50,4,11,11,3
1511883900943525,-2,3,-7,-46,-8,-5,-8,0
1511883900943525,-3,-24,10,39,1,-13,-8,-2
1511883900964554,0,5,-5,-3,3,-2,-2,-1
1511883900964554,2,-5,-9,-8,-10,3,1,3
1511883900966559,-1,8,4,4,8,6,5,0
1511883900966559,4,11,-2,2,1,10,5,2
1511883900978592,-6,-12,8,-2,-3,-23,-17,-6
1511883900978592,-1,-3,-11,-24,-16,-1,1,-1
1511883900987647,0,2,1,20,-11,-1,4,1
1511883900987647,-1,3,-4,-11,-3,10,8,2
1511883901001680,-4,-6,-3,5,-1,-8,-10,1
1511883901001680,1,7,19,-48,-25,-9,-5,-2
1511883901003672,-2,-3,-8,19,-20,-10,-8,-4
1511883901003672,-1,6,-1,-7,25,2,-4,-3
1511883901024745,0,-1,-3,8,14,11,7,-1
1511883901024745,3,-1,-9,-5,15,10,8,5
1511883901026247,-2,6,7,17,-6,-2,0,0
1511883901026247,1,4,9,12,10,-4,-4,2
1511883901038003,-3,1,-31,-64,-22,-1,0,-2
1511883901038003,1,10,12,24,7,10,3,2
1511883901047004,-5,-30,-21,-45,-12,-5,-1,-2
1511883901047004,5,13,4,46,13,7,3,3
1511883901062045,-4,-6,-9,-50,9,-5,-3,-6
1511883901062045,-1,-1,-6,1,-8,6,7,-2
1511883901064050,-1,3,12,1,-1,0,-3,-1
1511883901064050,-4,-4,6,7,0,-9,-9,-3
1511883901084130,-2,-1,-7,-20,3,7,4,-2
1511883901084130,0,-11,-12,4,15,-8,-2,1
1511883901086108,-4,0,3,-10,9,8,7,-2
1511883901086108,1,0,0,19,13,-6,-6,6
1511883901098168,-2,5,-3,34,0,-14,-14,-5
1511883901098168,-1,-2,-13,-30,-1,8,6,1
1511883901107200,3,0,6,39,31,10,2,1
1511883901107200,0,0,-2,-11,-34,6,10,1
1511883901121758,-1,-3,7,19,-8,-5,0,-2
1511883901121758,-1,-2,-12,7,7,-1,-3,1
1511883901128274,1,-2,2,10,-1,-3,-2,0
1511883901128274,-1,4,3,-33,-29,-2,0,-2
1511883901144319,5,6,32,70,28,9,6,3
1511883901144319,-5,-11,-25,-11,-9,-5,-5,-5
1511883901146325,1,5,1,-34,8,-13,-9,1
1511883901146325,1,7,-2,20,9,-4,-4,-1
1511883901158375,-2,-21,3,14,-6,3,3,1
1511883901158375,-1,3,15,28,4,0,0,-1
1511883901167382,1,-2,20,35,2,9,7,2
1511883901167382,-4,-4,-15,-51,-16,-23,-22,-7
1511883901181437,6,9,-2,30,5,12,9,3
1511883901181437,-8,-18,-12,-34,-2,-2,-5,-3
1511883901188440,-1,1,-5,17,18,10,7,0
1511883901188440,0,-2,9,3,-19,-10,-2,1
1511883901204528,-3,3,2,-3,3,-6,-8,-4
1511883901204528,-1,9,20,2,-10,-2,0,0
1511883901206487,1,-3,-15,-15,6,-1,1,0
1511883901206487,-3,0,-9,-1,4,11,7,-1
1511883901218592,-1,-2,8,29,15,3,-1,-1
1511883901218592,3,12,-2,-40,-13,-8,-5,-2
1511883901227597,-1,-11,-15,-5,-22,-1,7,-1
1511883901227597,1,-7,0,-36,-15,-4,-5,1
1511883901241743,0,-5,-13,-32,-5,5,9,0
1511883901241743,2,6,11,68,40,12,-2,2
1511883901243745,-5,-9,-18,-48,-31,-22,-17,-5
1511883901243745,-3,-3,-4,6,0,8,10,-2
1511883901264997,1,-1,2,23,10,-4,-2,1
1511883901264997,2,1,-3,-6,-25,8,14,2
1511883901265931,-1,1,-5,-17,27,2,-8,-1
1511883901265931,-1,0,4,24,12,-11,-9,-4
1511883901287031,-1,0,-10,-37,-16,4,0,2
1511883901287031,2,7,5,21,3,2,0,3
1511883901288866,-1,1,0,21,0,6,4,1
1511883901288866,-6,-9,-11,-30,1,-2,1,-4
1511883901301989,0,8,-2,2,-2,-1,-1,-2
1511883901301989,-3,-9,-6,-51,-14,0,-3,0
1511883901303905,5,12,11,34,-4,-5,-2,1
1511883901303905,-5,-14,-8,-46,34,5,1,-4
1511883901324664,-3,-4,6,13,-39,-9,-2,-1
1511883901324664,-3,-1,-5,0,2,-1,3,0
1511883901326670,-1,-9,0,-5,3,11,11,1
1511883901326670,3,6,4,-6,-27,-12,-14,2
1511883901347030,1,-3,2,-3,7,0,-1,-1
1511883901347030,1,-3,-2,3,35,3,1,0
1511883901348850,-3,8,17,17,-1,1,-3,-2
1511883901348850,1,-2,-8,9,20,14,12,2
1511883901361888,0,-3,-2,-4,12,7,1,-5
1511883901361888,-1,0,11,34,0,-22,-17,-2
1511883901363891,-3,0,-16,-61,-8,-1,3,-2
1511883901363891,-1,3,5,0,-3,8,6,0
1511883901385054,-2,1,-11,-18,-6,-9,-7,-2
1511883901385054,-1,-11,1,30,-3,2,3,-2
1511883901385981,-3,-2,3,-22,-5,4,9,-1
1511883901385981,2,6,10,16,-7,0,2,3
1511883901407028,-3,-3,-12,32,28,-4,-9,0
1511883901407028,2,7,-8,-1,20,15,12,0
1511883901409010,-2,1,20,52,3,-20,-21,-4
1511883901409010,-1,-7,11,25,-1,5,6,0
1511883901421545,-3,-3,-18,-75,7,6,5,2
1511883901421545,-1,-4,-4,-9,-8,-2,-3,-1
1511883901428564,3,9,-6,-27,-14,-1,1,-2
1511883901428564,0,-2,7,24,10,0,2,0
1511883901444635,1,2,0,-9,-12,-12,-8,-2
1511883901444635,-2,-1,6,38,-1,4,1,1
1511883901446638,1,-8,-3,5,-3,-1,0,2
1511883901446638,0,4,-3,-3,0,-5,-4,-2
1511883901466667,-3,-8,5,5,3,1,1,0
1511883901466667,1,2,6,-10,-7,-1,-1,1
1511883901468672,1,9,1,28,8,1,-1,0
1511883901468672,-4,-19,-5,20,3,-1,-2,0
1511883901481734,-2,0,-2,-39,-16,-1,0,-2
1511883901481734,-2,0,6,18,-4,1,2,-1
1511883901487755,-3,-2,-5,-9,-26,-17,-16,-4
1511883901487755,1,2,-6,-12,14,3,0,-3
1511883901504769,-1,0,4,-3,-47,-5,0,1
1511883901504769,-1,1,0,16,19,1,-1,-2
1511883901505772,1,-3,3,6,0,-1,-1,0
1511883901505772,-1,2,-6,-12,-7,-6,-3,0
1511883901527358,2,1,6,21,12,2,1,0
1511883901527358,0,-4,-10,-24,-12,-3,-2,1
1511883901528862,-1,0,1,-16,5,2,0,-1
1511883901528862,1,1,-10,-20,-6,-3,-2,0
1511883901540924,-2,2,7,15,7,2,0,-2
1511883901540924,1,-1,3,7,-5,-4,-4,-2
1511883901549948,0,-4,-8,-26,4,3,2,0
1511883901549948,-1,3,-1,-2,-11,-2,1,-1
1511883901564989,-1,5,11,20,25,5,2,0
1511883901564989,-6,-8,-15,-49,-12,-3,0,-4
1511883901565990,0,-2,0,23,15,6,3,4
1511883901565990,2,3,-2,-7,-4,-7,-9,-1
1511883901587073,-3,-2,-4,-30,17,-2,-4,-5
1511883901587073,1,5,3,0,-22,-3,-3,-1
1511883901589079,-1,-1,-5,2,5,4,2,-3
1511883901589079,-1,5,3,26,12,5,6,2
1511883901601111,-2,-7,-14,-26,-12,-2,-1,1
1511883901601111,-1,1,8,-17,-20,-8,-5,-3
1511883901608106,-3,-7,-1,-6,-6,1,1,-1
1511883901608106,-2,6,-6,-11,-4,-1,1,-1
1511883901624649,-1,7,2,20,-2,-1,-1,1
1511883901624649,-5,-19,-10,-44,-1,-7,-4,-1
1511883901626654,2,0,-2,48,5,1,5,3
1511883901626654,-3,0,7,-14,-4,-6,-6,-4
1511883901646751,3,-1,4,13,-7,0,1,1
1511883901646751,0,3,-2,13,11,4,2,0
1511883901648730,2,6,2,-11,1,10,10,2
1511883901648730,-1,-10,11,14,-14,-19,-15,0
1511883901661791,-1,4,-4,-33,-10,-2,-8,-2
1511883901661791,0,-7,10,51,9,-10,-6,0
1511883901667780,-2,3,-16,-36,-1,-3,-2,-4
1511883901667780,0,6,3,1,-20,12,12,-1
1511883901684852,-3,-17,-3,6,-18,-1,3,-1
1511883901684852,5,17,1,-2,4,3,4,4
1511883901685835,-6,-24,5,16,-5,6,1,-1
1511883901685835,2,18,0,4,3,8,13,-3
1511883901706884,7,48,16,13,9,-6,-10,3
1511883901706884,-19,-88,-23,-10,-14,-30,-21,-13
1511883901708890,-1,12,-22,-32,-9,1,-1,3
1511883901708890,3,17,9,8,-14,4,1,2
1511883901721478,-5,-42,-10,5,-3,16,15,0
1511883901721478,11,58,11,38,4,9,8,2
1511883901728471,-4,-26,2,-18,4,-8,-8,-2
1511883901728471,1,8,-5,-13,-2,2,0,-2
1511883901745043,-12,-52,-12,-13,1,-19,-11,-6
1511883901745043,5,-6,3,0,6,9,5,4
1511883901746018,7,63,10,6,-14,-9,-4,-3
1511883901746018,-4,-35,-18,-5,14,8,4,3
1511883901767075,8,34,9,9,9,9,12,1
1511883901767075,-3,1,-1,-12,-5,-6,-14,0
1511883901769081,-13,-32,-15,3,8,-15,-11,-9
1511883901769081,8,20,14,-3,-2,-3,1,2
1511883901781139,-6,-7,-8,-5,4,-7,-8,-1
1511883901781139,3,25,-3,-7,-27,21,18,4
1511883901790137,2,11,10,8,8,-29,-25,-8
1511883901790137,-5,-10,-5,3,14,2,-1,1
1511883901804194,-9,-41,-20,-6,7,7,6,-3
1511883901804194,3,22,10,-1,18,13,11,0
1511883901806180,1,-7,2,4,22,-2,-2,1
1511883901806180,-9,-27,-10,-14,-13,-8,-4,-3
1511883901827236,6,25,9,6,31,4,3,0
1511883901827236,0,8,-2,8,-33,-3,1,0
1511883901828740,-2,-14,-6,-29,-12,2,0,1
1511883901828740,-1,12,2,-5,3,-5,-5,-4
1511883901840794,2,8,3,-7,18,6,0,1
1511883901840794,-1,-3,5,-3,7,-1,0,0
1511883901849818,3,1,-4,11,-10,13,13,6
1511883901849818,2,8,5,-13,-6,-16,-14,-1
1511883901864885,4,14,11,50,-18,-3,-3,1
1511883901864885,-2,-12,-14,-24,12,4,7,-2
1511883901865907,1,-11,16,22,-6,9,5,1
1511883901865907,3,29,3,-1,16,-7,-6,-1
1511883901886944,-6,-41,-10,6,-11,-1,3,0
1511883901886944,1,9,1,-3,13,-6,-6,-1
1511883901888923,3,2,9,10,13,1,-2,-1
1511883901888923,-3,-8,-5,10,8,6,2,0
1511883901900982,1,18,2,-41,-12,-2,-1,-1
1511883901900982,2,14,5,14,34,7,3,-2
1511883901909979,-2,-24,-6,1,-8,4,7,4
1511883901909979,-5,-2,-5,-3,-2,-2,-3,-2
1511883901925045,4,11,2,16,24,4,2,0
1511883901925045,-2,8,-7,7,8,13,9,0
1511883901926549,0,12,8,2,-13,-22,-24,-4
1511883901926549,0,-3,-5,2,-27,-9,-3,-1
1511883901947158,-6,-24,-4,1,-7,11,10,2
1511883901947158,3,14,-2,-23,-18,-14,-14,-2
1511883901949163,-2,2,-1,-1,1,6,10,2
1511883901949163,-4,-33,-4,19,1,6,1,0
1511883901961167,3,21,4,-46,-22,-7,-7,-2
1511883901961167,-5,-23,-5,-27,0,-8,-1,-4
1511883901970192,0,7,-4,35,-12,3,2,-1
1511883901970192,3,-7,9,-6,9,-2,2,3
1511883901984256,-3,7,-13,-15,-6,-4,-8,-6
1511883901984256,-2,-4,-1,27,9,5,3,0
1511883901986235,-4,-10,-8,-30,18,-5,-4,-1
1511883901986235,1,11,4,-10,-9,8,7,-2
1511883902007308,1,-5,1,44,10,1,2,1
1511883902007308,-3,-4,3,5,5,-10,-12,-2
1511883902008313,-2,1,-2,4,-22,11,11,1
1511883902008313,0,10,-19,-19,-7,-23,-10,-2
1511883902020860,-2,-13,10,31,-3,-1,1,0
1511883902020860,-3,-18,-7,-29,-11,1,-1,-1
1511883902029851,0,3,7,22,12,3,1,1
1511883902029851,-3,-5,-13,-38,-3,9,2,-2
1511883902044391,6,8,7,10,-2,-2,4,4
1511883902044391,3,22,0,11,-5,-8,-3,1
1511883902050407,-12,-60,-15,-20,2,11,6,-4
1511883902050407,-1,0,3,0,1,-5,0,1
1511883902067480,-1,5,2,14,-3,-13,-11,-3
1511883902067480,-2,-15,1,22,8,-1,-2,2
1511883902068455,3,19,-13,-30,-18,-1,2,-1
1511883902068455,-1,-12,7,10,6,9,-4,-2
1511883902080487,0,11,-8,-29,-19,1,7,-1
1511883902080487,-6,-25,2,-1,5,-4,-4,-1
1511883902089511,2,8,8,27,26,1,-2,-1
1511883902089511,-2,-13,-3,5,-5,-3,-3,-3
1511883902103577,5,8,8,8,14,-1,5,2
1511883902103577,5,19,0,-13,-2,-1,1,4
1511883902110598,1,-8,4,0,-8,0,4,1
1511883902110598,-3,-12,-3,9,14,16,10,1
1511883902127139,-8,19,-3,-30,54,-33,-36,-12
1511883902127139,-9,-53,-11,11,12,13,9,-3
1511883902129143,0,13,1,2,9,-7,-8,1
1511883902129143,7,12,17,37,10,10,2,3
1511883902140676,-15,-34,-19,-34,-16,-14,-3,-7
1511883902140676,5,18,14,34,2,-5,-2,-1
1511883902149701,-1,18,-4,-17,17,7,2,-5
1511883902149701,-1,-13,2,16,-21,11,10,2
1511883902163770,4,2,-7,-19,-22,15,12,6
1511883902163770,4,2,-7,13,-20,-26,-28,-8
1511883902170758,4,16,3,-26,21,24,14,2
1511883902170758,-9,-20,-4,-7,6,3,5,0
1511883902186817,0,-6,5,-7,-24,-23,-18,0
1511883902186817,4,17,0,12,-18,3,6,-1
1511883902188805,-3,-10,-3,2,-6,6,-2,-1
1511883902188805,1,10,8,3,28,-8,1,0
1511883902200840,1,0,2,10,20,31,24,1
1511883902200840,1,11,1,13,46,9,5,5
1511883902209860,-3,1,-3,8,-15,-21,-16,-4
1511883902209860,-6,-11,-7,-9,9,13,7,-4
1511883902224434,-1,-14,-4,11,-24,-34,-30,-3
1511883902224434,-5,1,-6,-26,-20,15,19,1
1511883902230954,6,9,18,85,0,-6,-6,2
1511883902230954,-4,-20,-18,-35,-30,-9,-12,-5
1511883902247238,8,23,-5,-2,-39,1,5,3
1511883902247238,-7,-12,4,-4,22,1,-1,-5
1511883902249121,-1,2,-3,-45,-31,-3,5,-3
1511883902249121,10,22,6,-1,61,3,-5,4
1511883902269251,0,-7,6,23,-18,16,10,0
1511883902269251,-2,5,1,-1,15,-10,-9,0
1511883902271179,-2,11,4,-5,1,8,11,-2
1511883902271179,-3,-2,-10,-9,15,-20,-17,-1
1511883902284218,-9,-10,-8,-40,-16,20,16,-2
1511883902284218,-4,-9,0,5,-22,-7,0,-1
1511883902291236,-3,-9,0,-10,1,-18,-16,-4
1511883902291236,2,13,0,-14,-10,16,17,1
1511883902307279,3,2,11,19,0,-12,-9,6
1511883902307279,-2,-14,0,8,-9,0,1,1
1511883902308277,3,6,0,22,17,3,6,1
1511883902308277,2,15,15,13,-20,-12,-16,-2
1511883902329867,-3,-24,-11,-8,11,3,5,-2
1511883902329867,3,22,4,-7,-8,-14,-11,1
1511883902331368,2,7,3,-1,-4,18,17,4
1511883902331368,0,1,-1,-11,7,-20,-14,-6
1511883902343996,-1,-2,10,32,25,2,-6,-2
1511883902343996,0,2,-7,-44,-11,-5,-5,-1
1511883902351010,0,-5,3,0,29,15,12,1
1511883902351010,-1,-9,-1,23,-12,14,12,3
1511883902367053,-2,10,-5,-34,16,-18,-9,0
1511883902367053,-4,-14,-5,7,-10,-9,-9,-3
1511883902369058,2,-8,-5,2,22,13,7,3
1511883902369058,0,-1,-2,52,6,-20,-9,-2
1511883902390114,-1,11,15,-23,-1,7,7,0
1511883902390114,2,-10,-5,-5,9,8,3,1
1511883902391117,0,3,-13,-14,-4,-10,-4,0
1511883902391117,-1,-5,3,-2,6,31,23,3
1511883902403269,2,4,11,60,2,-18,-17,1
1511883902403269,-2,-12,-7,-27,-8,-3,1,-4
1511883902412174,-4,12,1,-4,-27,-12,-12,-3
1511883902412174,-6,-16,0,11,-39,-3,0,-2
1511883902427217,3,8,0,13,-8,22,15,2
1511883902427217,-3,-2,3,32,24,10,6,-2
1511883902428721,-6,-24,-19,-22,-13,-6,0,-2
1511883902428721,-1,17,-1,-17,-27,-16,-18,-3
1511883902449825,-3,-28,-3,31,20,11,6,-4
1511883902449825,2,9,-9,-66,-16,-8,-2,2
1511883902450809,-2,-7,-6,-13,-41,-2,2,-2
1511883902450809,0,-1,-8,3,17,-4,-3,0
1511883902462867,5,23,4,-3,25,17,10,0
1511883902462867,-10,-34,-8,-20,-11,-6,-7,-2
1511883902471880,3,12,16,31,-23,-14,-5,1
1511883902471880,0,-8,9,42,-9,-7,-7,0
1511883902486904,-4,-1,-15,-35,11,3,0,-3
1511883902486904,3,9,6,34,26,13,5,-1
1511883902488910,1,1,7,1,3,9,6,4
1511883902488910,0,1,3,37,8,-3,0,-5
1511883902509966,-1,3,-1,18,-24,-48,-37,-6
1511883902509966,4,15,9,41,35,22,14,-2
1511883902510969,-5,-7,-6,-12,-35,-11,-6,0
1511883902510969,0,-2,-2,-33,-3,9,13,7
1511883902523503,-3,-26,-16,-12,10,12,9,-1
1511883902523503,0,8,3,-8,-13,-4,2,2
1511883902532032,-4,-4,11,0,16,-8,-7,-4
1511883902532032,4,-4,-23,-70,-18,7,3,3
1511883902547270,-4,19,4,7,7,3,5,-3
1511883902547270,-3,-8,-7,-5,-28,-30,-25,-6
1511883902548273,3,-1,6,-3,7,23,12,1
1511883902548273,1,9,-7,-6,-43,-4,-1,1
1511883902569329,1,-5,3,-13,-2,-16,-8,1
1511883902569329,4,17,9,29,31,26,21,5
1511883902571334,-5,1,3,35,8,-14,-19,-7
1511883902571334,1,4,-5,8,17,8,5,2
1511883902583366,3,21,9,-9,-58,-4,3,0
1511883902583366,0,-3,3,82,29,17,5,4
1511883902592391,1,-7,-7,-17,4,6,9,2
1511883902592391,-4,-9,0,-30,3,-15,-13,-5
1511883902607457,2,-1,0,32,10,4,3,1
1511883902607457,-1,5,0,-33,-14,7,8,-2
1511883902608433,1,-4,-7,-11,0,-25,-25,1
1511883902608433,-4,-21,-10,-24,3,-2,5,-1
1511883902630067,-3,-15,9,1,10,9,2,0
1511883902630067,-1,-7,-8,-16,-39,-15,-8,-4
1511883902631571,-1,-6,-15,-32,-4,15,16,3
1511883902631571,-3,14,18,19,27,-8,-10,-2
1511883902643632,-2,-15,-5,-23,-11,-9,-3,3
1511883902643632,-2,11,6,13,29,-7,-8,-3
1511883902652627,-3,-9,-3,22,34,12,6,-2
1511883902652627,2,5,-6,-21,-21,-4,2,1
1511883902666666,3,6,-2,1,15,10,9,0
1511883902666666,-4,-2,-1,-1,-5,6,4,2
1511883902668681,-4,-9,4,-3,-47,-17,-13,-5
1511883902668681,-1,-4,-10,6,-7,-1,0,-3
1511883902689753,1,8,6,32,4,13,5,0
1511883902689753,3,13,-2,-32,4,-20,-12,-3
1511883902690757,-3,-22,3,0,15,-1,4,3
1511883902690757,-1,9,-3,7,23,3,-5,-1
1511883902702791,-7,4,7,19,-17,-9,-4,-6
1511883902702791,0,9,-1,10,2,14,11,3
1511883902711808,1,0,-2,15,-50,-16,-5,3
1511883902711808,-5,3,-8,-51,5,-6,-4,-5
1511883902727372,1,8,1,2,7,0,-11,-4
1511883902727372,0,-10,3,11,-2,0,-4,2
1511883902728850,1,6,3,33,35,16,12,-1
1511883902728850,5,3,-8,-19,-24,3,-2,2
1511883902749429,0,8,4,-17,-15,8,0,2
1511883902749429,-1,-17,-7,-30,-17,-6,0,0
1511883902751434,-1,11,-2,-36,-4,-1,0,-1
1511883902751434,-3,-4,5,28,30,6,4,-3
1511883902763493,-1,-5,-8,22,36,12,7,2
1511883902763493,2,0,1,-12,63,4,-2,2
1511883902772499,5,18,7,-7,10,-7,-7,-2
1511883902772499,-8,-15,-2,-5,-13,1,0,-5
1511883902787531,-9,-35,-19,-31,-11,-5,2,-1
1511883902787531,-2,7,8,0,-31,-1,0,-1
1511883902788534,-1,1,-18,-4,2,-3,0,-1
1511883902788534,1,5,27,-6,10,-2,-5,2
1511883902809616,0,-5,-2,9,8,-1,-1,-3
1511883902809616,2,10,-6,30,-13,-7,-4,1
1511883902811622,-2,-18,4,22,-1,3,2,-1
1511883902811622,1,17,-2,4,5,2,-7,-4
1511883902823664,3,-15,-1,4,-4,3,9,7
1511883902823664,-8,-22,-10,-6,-19,-28,-17,-7
1511883902832680,1,13,14,5,19,12,7,-1
1511883902832680,1,3,-2,12,-46,-10,-6,-3
1511883902846741,2,-3,-5,25,27,22,17,3
1511883902846741,3,-10,-6,-25,-12,-23,-20,-4
1511883902848723,-4,-18,-14,-3,-10,-1,1,0
1511883902848723,0,9,10,57,12,3,2,1
1511883902869806,-1,8,-9,-53,14,5,0,-1
1511883902869806,-2,-12,6,0,-16,13,18,2
1511883902870809,-2,5,5,2,7,-16,-21,-7
1511883902870809,2,10,1,-13,17,-2,10,0
1511883902882841,-7,-6,2,-7,13,-14,-15,-6
1511883902882841,0,11,-3,-8,-5,18,13,2
1511883902891865,-5,-13,-11,-14,-25,-20,-16,-1
1511883902891865,2,2,4,12,39,7,4,1
1511883902906906,0,15,-19,-41,-49,-21,-13,-6
1511883902906906,0,-2,8,30,18,17,7,0
1511883902908907,-1,-7,-7,-23,15,-7,2,1
1511883902908907,-6,-25,-8,22,-10,-21,-10,-1
1511883902929965,2,13,-1,-1,7,-1,0,2
1511883902929965,-1,-17,-3,2,-5,13,9,-2
1511883902931469,5,11,-1,9,-36,-4,-5,2
1511883902931469,2,14,12,6,-8,-2,0,-2
1511883902943559,-7,-45,-6,9,-8,0,3,-2
1511883902943559,1,7,1,-10,-8,-5,-1,0
1511883902952560,1,21,11,1,0,-13,-13,-3
1511883902952560,-3,-21,-21,-8,1,12,11,7
1511883902966597,-3,13,11,1,-13,-1,-1,-4
1511883902966597,-3,-3,-4,-17,-17,-5,-4,-5
1511883902973642,1,-1,0,4,26,7,6,4
1511883902973642,6,16,8,-2,-6,-4,-9,-3
1511883902989685,1,-1,-5,4,10,1,1,3
1511883902989685,-2,5,2,-6,4,-3,-3,-2
1511883902991664,-3,-4,5,-1,0,7,1,-6
1511883902991664,1,3,1,25,10,5,5,3
1511883903002692,2,15,11,20,4,4,3,1
1511883903002692,-3,2,5,-28,-39,-11,-3,-1
1511883903011716,0,9,3,32,6,5,-1,-1
1511883903011716,-4,-16,-6,-37,19,11,3,-2
1511883903026782,4,12,-5,-2,-2,-10,-7,4
1511883903026782,4,12,4,7,-2,16,14,6
1511883903032774,-3,4,9,9,20,-5,-6,-4
1511883903032774,-2,-10,5,-11,-30,2,-1,1
1511883903049865,-5,-2,-13,6,-2,5,7,-5
1511883903049865,1,13,8,4,16,-15,-10,1
1511883903050887,-3,-44,-19,-19,-2,-15,-18,-7
1511883903050887,-5,-3,6,14,-6,4,4,-1
1511883903062901,2,10,2,-42,-47,11,11,0
1511883903062901,-1,-7,0,34,13,-20,-10,-2
1511883903071924,-4,-4,-18,-9,11,2,4,0
1511883903071924,-1,3,11,13,-6,-5,-1,1
1511883903085991,2,0,-1,-22,-17,-6,-4,-1
1511883903085991,-4,-9,-8,5,21,6,2,-3
1511883903093006,3,14,6,-5,-21,3,8,6
1511883903093006,-1,-8,-9,-11,-20,-5,-6,-5
1511883903110025,3,10,18,10,48,7,5,3
1511883903110025,-4,-6,-20,-2,-15,0,-4,-1
1511883903111029,3,12,3,0,4,3,4,1
1511883903111029,1,7,4,18,3,2,0,0
1511883903123595,-3,0,-3,-32,0,-1,0,-5
1511883903123595,2,-5,7,15,11,-16,-14,1
1511883903132592,-3,-1,5,15,-8,-2,-7,-6
1511883903132592,3,0,-11,-16,37,3,1,1
1511883903146195,-1,1,2,26,-2,0,-2,0
1511883903146195,-4,-16,-11,-33,-19,8,7,-2
1511883903153213,-1,14,11,1,10,0,1,-2
1511883903153213,3,-4,0,14,0,-6,-4,5
1511883903169288,-1,-1,5,35,9,-8,-8,0
1511883903169288,-1,0,0,-15,0,10,5,1
1511883903171262,-2,-2,-10,-17,46,14,17,2
1511883903171262,-2,-2,1,1,-6,-27,-20,-4
1511883903192336,4,15,-5,3,6,7,1,4
1511883903192336,2,12,4,9,-14,6,2,-1
1511883903193335,-2,2,0,-11,4,11,8,-1
1511883903193335,-2,0,-12,-5,2,1,2,-2
1511883903206359,-1,-3,7,-13,-22,-12,-8,-1
1511883903206359,-3,1,3,16,26,-3,-9,-5
1511883903213392,-1,-8,-10,-13,17,2,7,4
1511883903213392,-2,2,6,-24,-34,1,-1,-2
1511883903230006,-2,-4,-2,10,-2,-3,-2,-3
1511883903230006,-1,8,2,-13,26,7,7,1
1511883903231497,0,-1,-2,5,-16,-4,-5,-1
1511883903231497,-2,-7,0,4,-4,4,4,-1
1511883903252264,-4,7,2,2,12,-3,0,0
1511883903252264,1,-18,-10,-14,-22,-1,2,2
1511883903254151,4,20,7,25,-6,-1,-1,0
1511883903254151,-5,-13,-13,-29,5,9,3,-4
1511883903266300,-1,-20,0,10,-16,-8,-8,1
1511883903266300,-4,-8,-10,-14,-21,-7,0,-4
1511883903273202,-1,-1,7,19,1,-3,-10,-2
1511883903273202,-1,8,10,21,6,8,7,-3
1511883903289253,-2,-5,-3,-12,4,-5,-3,-1
1511883903289253,-3,9,-1,-12,-8,-1,-1,-1
1511883903291255,1,2,5,2,-7,-5,1,-1
1511883903291255,3,3,4,23,-6,-5,-6,1
1511883903312305,2,5,-12,-18,3,3,6,-1
1511883903312305,-7,-49,-6,13,1,-5,-11,-3
1511883903313312,7,24,2,13,2,1,-2,1
1511883903313312,-3,0,-4,-44,-5,6,9,0
1511883903326849,-1,-9,10,17,-4,8,5,-2
1511883903326849,4,12,-1,11,13,-8,-5,4
1511883903333363,-5,-13,-1,-11,-4,7,5,-3
1511883903333363,1,2,-4,-8,-33,-12,0,1
1511883903349885,-1,-13,-1,12,7,0,-2,-4
1511883903349885,1,16,7,-3,1,13,7,1
1511883903351691,0,-12,5,-4,-15,-16,-11,-1
1511883903351691,-5,-6,-12,-11,24,0,-7,-6
1511883903371827,-1,7,-4,1,-24,-6,-1,-1
1511883903371827,4,4,4,7,14,12,6,1
1511883903373749,-5,-12,-4,-1,4,12,12,0
1511883903373749,2,1,-3,17,9,-26,-18,-3
1511883903386898,-3,-4,-5,1,2,6,0,-2
1511883903386898,-1,3,7,3,9,-16,-9,-4
1511883903393819,0,7,1,0,-8,6,4,3
1511883903393819,-4,-8,-2,27,3,9,7,-1
1511883903409845,-3,-15,-5,-4,10,-8,-2,-1
1511883903409845,3,14,0,-6,-24,7,7,0
1511883903411850,-3,-4,-3,-22,15,-13,0,0
1511883903411850,2,-1,0,-1,-26,-6,-8,-1
1511883903432434,5,17,7,15,10,8,6,3
1511883903432434,-4,-2,3,3,-1,-10,-9,-3
1511883903433911,0,-6,-4,-15,0,3,0,-2
1511883903433911,4,19,9,4,5,5,6,4
1511883903445946,-11,-14,0,8,34,-2,-8,-5
1511883903445946,1,7,-3,-20,-31,-2,9,-2
1511883903452965,-1,-6,-3,1,-9,-5,-2,0
1511883903452965,-2,6,10,22,24,-2,-5,-4
1511883903470047,1,-2,0,-5,-4,-3,-5,5
1511883903470047,1,2,4,14,3,1,0,-1
1511883903471014,0,-1,-4,-5,3,3,-3,-3
1511883903471014,-3,-7,-5,-17,-16,1,6,0
1511883903492095,0,0,3,-7,-6,6,4,0
1511883903492095,0,-3,-7,-8,13,-15,-13,0
1511883903494098,4,11,3,11,-3,3,1,0
1511883903494098,-3,-34,-5,3,12,5,8,3
1511883903506122,-2,2,-7,-7,-15,-10,-10,-4
1511883903506122,3,17,8,3,9,6,4,0
1511883903513151,0,-10,1,10,23,22,11,-2
1511883903513151,4,12,7,1,8,-32,-25,6
1511883903529724,-4,0,-3,-12,1,-3,-1,-3
1511883903529724,-4,-2,-4,-4,-21,-3,4,-2
1511883903531202,1,4,-10,-14,5,-1,0,0
1511883903531202,3,6,2,5,10,13,6,0
1511883903552287,5,6,9,-1,-8,-5,0,1
1511883903552287,-4,-6,-12,-14,20,6,0,-3
1511883903553290,-1,-2,11,4,3,3,1,3
1511883903553290,-1,-2,-2,4,-6,5,11,-1
1511883903566351,-3,-5,-11,-28,-23,-17,-16,-2
1511883903566351,1,5,12,23,15,13,7,0
1511883903573361,-7,-6,-12,-7,-3,-12,-12,-3
1511883903573361,-4,-23,-7,-19,20,13,7,-2
1511883903589388,5,6,8,14,-7,10,5,-2
1511883903589388,-1,-17,-10,1,-3,-21,-12,5
1511883903591402,-2,-8,7,-5,-14,-3,-6,-2
1511883903591402,2,21,3,-8,-9,3,0,-1
1511883903612448,-5,-21,-20,-11,-16,-1,4,0
1511883903612448,-2,-1,5,5,-3,-1,-2,0
1511883903613450,0,-2,3,5,-15,-8,-4,-1
1511883903613450,-3,1,-3,-8,-8,-2,-2,-1
1511883903626490,-1,1,3,-19,4,0,0,-1
1511883903626490,1,5,6,12,-5,6,5,2
1511883903633509,-1,-2,-5,-9,-9,-10,-7,-2
1511883903633509,-1,-7,0,12,-6,3,1,-2
1511883903649339,3,9,5,10,10,1,4,3
1511883903649339,-2,-8,1,-3,2,-1,-4,-4
1511883903651344,-3,14,0,3,-11,-3,-2,-1
1511883903651344,2,0,-8,-32,-9,-4,-2,-1
1511883903672400,-6,-21,3,8,-2,4,0,2
1511883903672400,0,12,-1,-3,4,4,3,-4
1511883903673403,2,-6,1,33,-5,-8,0,0
1511883903673403,1,21,-7,-34,-5,0,-1,-3
1511883903686466,1,13,10,-11,3,4,1,0
1511883903686466,-6,-23,-16,4,-11,8,7,-3
1511883903694460,1,7,2,20,6,-18,-12,1
1511883903694460,-5,-21,-8,9,4,-3,-8,-5
1511883903709526,1,2,6,11,-2,-1,2,1
1511883903709526,5,20,1,-38,-1,15,11,-1
1511883903711530,-11,-49,-21,-11,-5,-10,-6,1
1511883903711530,0,9,3,5,6,6,3,-1
1511883903732113,0,-2,1,44,20,-9,-7,-3
1511883903732113,4,27,5,-49,0,-3,2,2
1511883903734094,-12,-54,-10,-1,5,13,3,-6
1511883903734094,1,0,-11,-21,-3,4,2,4
1511883903745676,1,12,-1,9,2,-11,-7,-5
1511883903745676,3,-18,-2,34,-17,-9,-6,1
1511883903754674,6,19,7,-5,12,14,9,1
1511883903754674,-3,-4,5,0,-19,-7,-1,0
1511883903769740,-1,5,4,8,5,15,8,0
1511883903769740,-4,-4,-11,-3,-10,-15,-10,-2
1511883903770743,4,22,12,-7,-6,7,-2,0
1511883903770743,-1,3,-2,-1,-20,-8,2,-1
1511883903791799,0,-10,-5,10,-8,1,3,3
1511883903791799,0,-8,9,30,11,0,-5,-1
1511883903793778,3,24,-4,-21,-12,0,3,0
1511883903793778,0,-8,3,2,-3,6,4,-2
1511883903805836,-3,-10,-2,2,1,-13,-10,-2
1511883903805836,-4,-6,-12,-11,-2,2,-1,-1
1511883903814846,2,-6,1,0,-6,-2,0,1
1511883903814846,-1,-3,-6,4,12,-3,-7,-2
1511883903829877,-2,-1,-5,-17,-39,8,11,0
1511883903829877,1,4,3,-1,17,5,0,-1
1511883903831381,6,13,5,9,-10,-12,-3,5
1511883903831381,-8,-16,-1,9,-3,6,4,-4
1511883903852540,-5,-23,-4,-13,31,-4,-9,-3
1511883903852540,-1,3,5,15,5,-6,2,2
1511883903853542,0,-2,-4,-19,-4,4,3,-1
1511883903853542,1,13,9,17,0,3,0,2
1511883903865605,2,15,7,30,14,3,6,2
1511883903865605,-5,-24,-5,-22,-10,1,3,-1
1511883903874613,0,6,3,1,-2,-4,-6,-4
1511883903874613,0,5,1,26,1,5,9,3
1511883903889640,5,17,-1,-25,-6,-7,-11,-3
1511883903889640,3,3,2,2,0,0,-1,3
1511883903890668,-4,2,-3,-16,14,-1,-1,-2
1511883903890668,-1,4,-4,5,6,-3,-2,-3
1511883903911698,0,-15,-2,0,-25,0,-2,1
1511883903911698,-4,-18,1,14,22,0,3,-4
1511883903913702,0,13,-6,-11,6,12,4,-2
1511883903913702,-1,-20,-2,1,0,-19,-16,0
1511883903925736,-4,3,3,2,2,0,2,-1
1511883903925736,1,16,1,-5,-31,-6,-1,-2
1511883903934286,-5,-14,-4,4,10,6,3,3
1511883903934286,1,6,-2,-10,13,4,-5,-4
1511883903949549,5,11,2,-6,8,7,3,1
1511883903949549,-5,-32,-11,1,-7,3,4,-2
1511883903951554,3,12,0,-15,4,-5,6,3
1511883903951554,2,-12,-1,7,10,-30,-20,-1
1511883903971633,-1,19,-4,1,14,7,6,0
1511883903971633,0,12,10,-1,-4,1,-2,-2
1511883903973617,5,18,22,6,-4,-4,0,2
1511883903973617,-10,-18,-20,-26,-4,8,4,-3
1511883903985670,-7,-17,-5,-7,-1,-3,-2,-1
1511883903985670,1,5,0,2,7,3,1,-2
1511883903994671,2,8,1,15,12,0,-6,-1
1511883903994671,7,28,17,-4,-9,6,2,0
1511883904008706,1,2,-12,-5,-16,-23,-7,-3
1511883904008706,-7,-26,-8,-7,3,4,0,-2
1511883904015725,1,9,5,12,1,4,7,0
1511883904015725,-3,-26,-3,13,18,-5,-3,3
1511883904032320,-3,-6,-9,-11,2,3,0,-3
1511883904032320,3,6,-2,8,7,-2,-3,0
1511883904033802,0,-8,-3,10,-14,-1,0,-3
1511883904033802,-3,1,5,-4,9,13,10,0
1511883904045386,0,-5,0,-10,-9,6,5,2
1511883904045386,0,17,9,11,2,-10,-10,1
1511883904055390,-7,-15,-9,-18,-3,3,-3,-8
1511883904055390,3,-2,-2,6,-14,-1,3,4
1511883904068448,1,25,7,-3,-11,-4,-3,-3
1511883904068448,-5,-57,-3,19,-1,3,1,2
1511883904075468,-6,-4,-21,-22,-9,-3,-1,-5
1511883904075468,-1,1,-4,-16,-7,-2,-1,-2
1511883904092533,3,7,4,9,12,1,1,2
1511883904092533,1,6,5,8,-10,0,-1,1
1511883904093491,-3,-11,-2,-9,9,-5,-5,-2
1511883904093491,2,2,-1,12,-15,3,7,-1
1511883904105529,0,-5,2,6,-11,2,-3,0
1511883904105529,-1,16,0,-4,-8,-14,-4,-2
1511883904114547,-1,1,-4,14,0,-9,-11,1
1511883904114547,-5,7,16,-4,14,8,4,-4
1511883904129139,2,-6,-8,-12,-19,1,1,0
1511883904129139,-5,-10,-12,-25,18,13,9,-2
1511883904135255,-1,-2,4,16,-5,-16,-12,0
1511883904135255,-3,-1,-6,12,10,1,3,1
1511883904152303,1,-3,16,2,3,-4,-2,2
1511883904152303,0,32,1,-11,9,3,2,-2
1511883904153303,-1,-28,-4,-14,-11,4,6,1
1511883904153303,-3,-12,-9,-6,-9,-6,-5,-1
1511883904174454,1,5,3,4,18,0,-1,1
1511883904174454,-2,6,-9,5,-10,-3,-6,0
1511883904176340,1,5,13,5,5,7,7,1
1511883904176340,7,17,7,12,0,-2,-6,-1
1511883904189378,-8,-35,-17,-28,10,0,-3,-4
1511883904189378,-2,-2,14,35,-21,9,10,0
1511883904195514,1,7,1,21,-20,-4,0,-1
1511883904195514,-4,-9,-6,-37,29,-24,-24,-6
1511883904212543,0,18,1,-5,-10,-1,2,-1
1511883904212543,3,-24,-3,13,11,3,1,2
1511883904213461,-2,7,-6,-28,-1,7,2,-1
1511883904213461,-2,-11,8,3,0,16,15,1
1511883904235188,1,12,2,4,-4,-18,-9,1
1511883904235188,-5,-4,-6,-23,-7,-7,-11,-6
1511883904236172,4,6,1,26,9,9,8,3
1511883904236172,-1,2,-8,-17,-5,-4,-4,-2
1511883904249249,2,-5,2,0,2,4,9,0
1511883904249249,-3,2,-5,-2,-4,-4,-3,-2
1511883904256236,-2,-8,-3,-6,1,-4,-5,0
1511883904256236,3,14,3,17,-23,5,4,0
1511883904272276,2,0,8,19,14,8,6,2
1511883904272276,-5,-3,-2,-26,-18,-6,-5,-3
1511883904273275,2,4,-6,-11,4,4,1,-2
1511883904273275,-1,4,7,2,-8,-1,-4,-3
1511883904294329,1,7,-15,-16,11,-6,-4,1
1511883904294329,1,-16,5,-9,6,1,0,1
1511883904296331,-8,-13,-2,-24,3,5,2,-1
1511883904296331,2,0,-6,1,-22,-8,0,1
1511883904308556,-2,-8,4,-13,-17,1,1,-1
1511883904308556,5,42,7,9,-16,-16,-9,-1
1511883904317389,-9,-40,-13,-9,4,-3,1,-3
1511883904317389,-2,-5,-2,-1,-3,9,4,2
1511883904332647,-5,-18,-2,5,-15,-12,-7,-3
1511883904332647,5,12,-8,-7,1,9,10,2
1511883904334052,2,13,10,28,-6,-18,-10,2
1511883904334052,-4,-16,-6,-4,3,6,2,-1
1511883904354159,1,3,-6,-20,17,3,-2,0
1511883904354159,-2,-6,-4,13,33,-2,-4,-4
1511883904356168,3,12,5,0,-5,-3,1,3
1511883904356168,2,-6,2,14,10,0,2,1
1511883904368397,1,4,-4,-9,-6,8,3,-1
1511883904368397,0,-3,-3,-1,21,0,-3,1
1511883904377221,-2,14,8,7,-35,-5,-3,-3
1511883904377221,1,6,-5,2,20,4,0,0
1511883904392354,0,3,5,3,-2,-5,-9,-4
1511883904392354,1,-3,-7,-10,7,2,2,0
1511883904393356,1,0,-5,-15,-7,6,5,0
1511883904393356,-1,10,1,0,-4,-2,-7,0
1511883904414319,-4,9,11,19,-9,-5,-4,-2
1511883904414319,1,-7,-1,13,7,1,-1,2
1511883904416324,0,8,-13,-32,4,1,-1,-4
1511883904416324,-1,7,6,0,-2,8,8,3
1511883904428358,-1,-8,-5,-13,-21,1,-3,-3
1511883904428358,-7,-22,-6,-17,-6,-7,-2,-4
1511883904437403,3,1,6,30,-4,-1,-1,-2
1511883904437403,2,0,-1,3,3,-9,-4,1
1511883904452469,-5,-1,2,19,20,1,-2,-2
1511883904452469,5,5,-5,-18,-25,5,8,4
1511883904453445,-4,-13,-6,33,15,-1,-2,-1
1511883904453445,3,19,9,-4,2,1,0,-1
1511883904474532,-7,-35,-16,-32,-10,-5,-2,-1
1511883904474532,4,27,4,-4,0,2,0,1
1511883904476536,-2,-10,2,17,-5,3,0,-2
1511883904476536,0,-3,0,-19,11,-9,-6,-3
1511883904488540,1,10,7,22,7,5,5,0
1511883904488540,-5,-15,-5,10,1,4,0,-1
1511883904497593,3,10,11,-13,-3,-3,-1,0
1511883904497593,-1,-3,-4,14,-4,0,2,0
1511883904519678,-1,-5,-6,-15,-10,-5,-2,-3
1511883904519678,-1,-1,2,-9,6,7,9,2
1511883904521154,-2,0,-1,-4,-7,-15,-15,-3
1511883904521154,3,16,3,6,10,-6,-2,-1
1511883904534208,-5,-16,-3,11,15,9,7,3
1511883904534208,-4,-25,-12,5,-6,3,-8,-3
1511883904536284,0,4,-4,-13,11,5,7,1
1511883904536284,-1,-3,13,10,-18,-6,-5,-3
1511883904548338,-3,0,-18,-39,-9,-7,-7,-3
1511883904548338,-1,12,11,20,7,4,9,3
1511883904557338,1,0,-1,8,27,1,-4,2
1511883904557338,1,4,-7,-21,-28,-3,0,-1
1511883904572407,2,-7,8,30,9,-3,-1,0
1511883904572407,0,15,6,-3,0,-3,-3,-2
1511883904573380,-4,-25,-10,-42,8,3,0,-4
1511883904573380,-1,3,0,-1,-14,0,5,1
1511883904594437,-1,3,1,12,3,5,4,0
1511883904594437,5,13,6,5,5,-5,-5,2
1511883904596443,-2,0,-1,16,-14,0,0,-1
1511883904596443,-5,-3,-3,12,18,5,0,-1
1511883904608475,1,-18,-20,-39,-26,-3,1,1
1511883904608475,4,23,22,49,17,-5,-6,-1
1511883904625047,-9,-35,-18,-40,-27,3,6,-2
1511883904625047,2,3,1,-2,-3,2,1,3
1511883904632066,0,17,-2,4,26,1,0,-3
1511883904632066,-1,9,10,11,-15,-24,-25,-6
1511883904634072,-5,-42,-23,-35,-1,5,4,1
1511883904634072,2,8,1,-7,-2,1,3,1
1511883904654225,-2,-29,8,17,5,6,5,1
1511883904654225,-1,-6,-5,-4,-10,-3,-1,-3
1511883904656199,1,17,3,-1,11,-1,0,-1
1511883904656199,-5,-16,-3,12,-4,-5,-6,-7
1511883904668263,2,24,-1,-8,-3,1,-2,0
1511883904668263,-7,-28,-19,-5,6,6,7,0
1511883904677256,4,29,10,21,19,-5,-5,2
1511883904677256,-3,-32,-6,32,12,5,4,0
1511883904692295,5,28,18,15,-4,-1,-4,1
1511883904692295,-6,-19,-11,-55,-2,-2,0,0
1511883904693298,2,11,9,37,4,1,1,-1
1511883904693298,-3,0,-9,-24,-3,-4,-2,-1
1511883904714382,4,10,3,11,-8,1,1,1
1511883904714382,-2,-18,1,24,-3,3,0,1
1511883904716359,2,7,-3,-41,-22,-5,-2,-3
1511883904716359,0,-4,-1,10,-1,3,0,1
1511883904728418,0,-2,1,9,6,-2,-4,-1
1511883904728418,4,14,-2,-24,-2,0,1,-1
1511883904737444,-1,-1,5,16,-16,2,-4,-4
1511883904737444,-3,-4,2,27,16,-15,-15,0
1511883904751508,-10,-44,-14,-10,-16,2,2,-3
1511883904751508,2,12,7,-6,-5,0,3,1
1511883904759501,4,22,15,15,17,14,10,1
1511883904759501,2,-9,-1,0,0,1,5,6
1511883904774570,-5,1,-3,12,5,-9,-8,-3
1511883904774570,1,6,10,-1,-15,-2,1,1
1511883904776572,-3,-15,-6,17,13,0,1,1
1511883904776572,0,6,3,-23,-21,7,10,0
1511883904788602,-2,-14,0,-10,21,-1,-1,-2
1511883904788602,2,5,-4,-4,-4,-2,-5,-3
1511883904797626,2,15,-13,-7,-8,0,3,3
1511883904797626,-3,-13,2,26,2,-2,-4,-1
1511883904811667,-2,0,-12,-33,-13,-4,0,-1
1511883904811667,0,0,1,6,3,0,1,0
1511883904813645,-4,-1,6,-11,-4,-13,-10,-1
1511883904813645,4,26,1,-2,7,2,-1,-2
1511883904834259,-9,-33,-7,-7,-5,0,0,-3
1511883904834259,-1,0,-2,-5,-8,4,3,1
1511883904836271,2,9,2,17,-12,-7,-3,1
1511883904836271,-2,1,4,-8,0,4,6,-3
1511883904848325,7,16,6,6,-9,-6,-7,2
1511883904848325,-2,-1,-7,7,-8,-8,1,-1
1511883904857322,0,4,9,23,14,-2,-9,-4
1511883904857322,3,24,-7,-32,-9,-8,-5,-2
1511883904871382,-11,-57,-10,12,15,-3,-5,-1
1511883904871382,0,7,16,13,-16,-1,-3,-1
1511883904878401,-1,-12,-15,-3,10,5,3,-1
1511883904878401,-2,-14,-1,-17,-5,6,5,-4
1511883904894446,3,29,18,4,-2,-8,0,1
1511883904894446,-3,-9,-3,3,7,6,0,-2
1511883904896451,4,6,4,1,3,-1,5,3
1511883904896451,-9,-33,-15,-27,-31,-5,-1,-4
1511883904908484,9,36,0,-15,-4,7,6,1
1511883904908484,-8,-27,-6,-5,-6,-3,-1,-1
1511883904917482,1,10,6,21,17,2,-4,-3
1511883904917482,-2,3,2,-1,-14,-9,-7,-2
1511883904931548,1,13,0,14,-4,0,0,0
1511883904931548,2,10,-5,-22,-1,3,6,2
1511883904938569,1,6,11,-9,-4,-8,-4,0
1511883904938569,-6,-32,-18,3,-8,-1,0,-1
1511883904954612,0,-2,10,23,14,6,1,-2
1511883904954612,2,16,10,-16,5,0,0,0
1511883904955615,-4,-23,-23,-17,3,4,2,-1
1511883904955615,1,-3,10,-11,-14,-2,-4,1
1511883904968682,2,6,1,31,9,7,9,1
1511883904968682,-1,-4,-11,0,2,-12,-11,-2
1511883904977674,2,6,9,-19,14,-6,-3,2
1511883904977674,-2,3,-3,6,7,1,-4,-4
1511883904991737,-8,-9,-7,-19,-20,2,4,-4
1511883904991737,2,11,8,-7,10,-12,-13,1
1511883904997755,4,12,20,47,-3,6,3,2
1511883904997755,-4,-2,-24,-57,15,8,8,2
1511883905014771,0,10,5,-10,9,-10,-10,-6
1511883905014771,0,-3,-5,-24,4,6,6,1
1511883905015797,-3,2,3,19,-4,-1,3,-1
1511883905015797,3,2,9,4,-17,-8,-6,-4
1511883905037457,0,6,2,-9,10,-2,-1,4
1511883905037457,2,13,0,46,34,8,0,1
1511883905038460,-8,-16,-7,-44,-38,-13,-8,-6
1511883905038460,2,6,0,25,36,9,8,5
1511883905051494,3,18,15,-14,-17,-14,-15,-3
1511883905051494,1,0,9,28,4,4,6,0
1511883905058513,-4,-14,1,13,-3,-12,-11,-3
1511883905058513,1,8,2,5,19,4,4,2
1511883905074579,4,11,-9,-6,-5,3,5,5
1511883905074579,-3,-4,-5,-9,-3,7,7,-2
1511883905076587,-1,-19,-3,44,6,1,1,2
1511883905076587,-4,12,6,-66,-16,-11,-9,-7
1511883905096642,-1,-11,1,27,-1,-1,-1,3
1511883905096642,0,-3,1,7,7,6,3,-1
1511883905098633,-1,16,10,-5,-15,11,10,2
1511883905098633,0,-24,3,33,-4,-26,-18,-2
1511883905111655,0,-12,-21,-36,-3,1,1,0
1511883905111655,-2,-4,-3,22,11,2,0,0
1511883905118682,7,16,-1,-7,1,2,3,1
1511883905118682,-4,-17,-5,28,10,14,10,1
1511883905134751,0,22,-9,-21,-6,-3,-5,-1
1511883905134751,-4,-20,4,-7,-16,-7,-1,-1
1511883905135777,-1,9,1,-6,2,2,-6,0
1511883905135777,1,8,-2,19,-12,-10,-7,-2
1511883905156811,0,4,0,-4,2,7,8,2
1511883905156811,-8,-23,-12,-9,0,4,1,-5
1511883905158815,-3,-18,-8,-21,9,-2,-2,2
1511883905158815,5,34,-11,-20,-2,4,3,2
1511883905171860,-6,-40,20,8,-20,-15,-12,-5
1511883905171860,-1,0,-5,-5,-13,6,9,4
1511883905177866,-4,-3,-7,-34,0,-13,-11,-7
1511883905177866,3,-12,5,19,31,2,-1,3
1511883905195132,1,9,-4,10,-20,7,7,1
1511883905195132,1,-1,-21,-59,-11,-7,-4,1
1511883905196044,-3,-4,10,-50,-11,4,7,-3
1511883905196044,1,12,6,44,9,4,0,0
1511883905217125,0,3,-9,20,11,5,1,0
1511883905217125,-7,-14,31,29,-8,-9,-8,0
1511883905219105,1,6,-27,-50,-2,13,5,2
1511883905219105,2,9,14,27,-9,-23,-21,-3
1511883905231643,-3,-9,6,9,-7,5,10,1
1511883905231643,4,14,6,14,2,-16,-11,-1
1511883905238407,-4,2,-2,3,-6,-4,1,-4
1511883905238407,-3,-4,1,-32,-7,6,7,1
1511883905254253,3,12,0,-9,-3,4,1,-3
1511883905254253,1,9,1,6,-23,-3,1,0
1511883905256266,2,-3,3,27,6,-6,-4,-1
1511883905256266,-1,-2,-4,-8,1,11,6,0
1511883905277316,1,0,2,15,8,-6,-5,0
1511883905277316,0,4,-6,-7,3,2,-1,-4
1511883905278320,-3,-10,-7,4,5,2,1,-1
1511883905278320,-4,-1,2,0,-25,-2,-3,-1
1511883905291354,1,7,6,0,9,-1,-2,1
1511883905291354,-3,-7,-9,-5,5,2,-2,-2
1511883905298372,2,0,5,19,-23,-6,-3,1
1511883905298372,-1,4,2,1,5,-1,0,-2
1511883905314464,-2,3,-3,-5,7,-1,-1,0
1511883905314464,2,1,-3,13,2,0,0,0
1511883905316418,-2,-4,-3,10,-18,0,6,-1
1511883905316418,3,1,2,-4,4,-3,0,0
1511883905337073,-1,-3,-3,-6,3,2,-1,-1
1511883905337073,-1,2,-1,-12,-18,-11,-7,-4
1511883905339075,1,-3,-1,11,21,12,4,2
1511883905339075,-3,-10,-1,0,-5,1,4,0
1511883905351119,1,3,-6,-4,13,6,5,4
1511883905351119,-1,-5,-11,-8,-2,-2,-2,-4
1511883905358129,1,0,-3,17,-1,0,0,0
1511883905358129,-2,0,14,29,33,5,-1,-3
1511883905374172,0,-3,-2,8,-13,-3,-3,-2
1511883905374172,-1,2,-13,-40,9,-1,-2,-1
1511883905376177,-3,-3,2,15,-8,-7,-4,-2
1511883905376177,0,0,-10,-9,-2,3,0,3
1511883905397369,0,-2,3,9,7,2,2,1
1511883905397369,-2,-1,8,1,-2,3,0,-2
1511883905399240,0,0,-3,11,10,0,-2,2
1511883905399240,-3,-6,-4,-30,-14,2,4,0
1511883905411271,-2,-1,-2,-5,-17,-3,-4,-3
1511883905411271,-1,-4,0,-1,-1,-1,2,1
1511883905418286,0,0,1,-6,6,-4,-4,-1
1511883905418286,1,1,3,7,-3,4,3,0
1511883905434862,0,-3,-6,-8,4,0,-3,0
1511883905434862,-1,0,1,2,-2,13,13,-1
1511883905435875,-1,-2,4,-3,-1,-36,-34,-6
1511883905435875,1,-3,-4,28,6,8,4,2
1511883905456931,-1,1,12,13,5,3,2,2
1511883905456931,0,1,2,-7,6,2,1,-3
1511883905458927,-2,1,-4,-33,-36,-5,0,-2
1511883905458927,-3,-2,-3,-9,27,0,-4,-6
1511883905470985,0,3,1,-8,-21,-14,-7,0
1511883905470985,1,2,5,32,29,8,5,3
1511883905477978,-1,-4,-6,-13,-1,8,5,-1
1511883905477978,0,-2,-4,-10,-6,-7,-5,0
1511883905495022,-2,-4,-7,-10,1,6,8,0
1511883905495022,0,0,-6,-7,6,-6,-8,-2
1511883905496024,0,0,1,-3,4,6,6,3
1511883905496024,1,0,-1,-1,-3,1,0,-2
1511883905517108,-2,-1,-2,-6,13,8,7,0
1511883905517108,-2,-3,-2,-5,-44,-26,-18,0
1511883905518614,-1,3,3,17,12,13,9,0
1511883905518614,-2,-1,-2,-9,7,2,2,1
1511883905531676,-1,-5,-6,-8,-18,-1,-1,-1
1511883905531676,2,1,4,27,21,4,-2,0
1511883905538058,-1,0,4,6,-3,7,8,1
1511883905538058,-4,-3,-1,-3,-38,-6,-1,-2
1511883905554101,-1,1,1,6,7,-4,-6,0
1511883905554101,-2,0,-2,-9,-2,5,3,-3
1511883905556114,1,-1,-2,2,-5,-7,-3,0
1511883905556114,-1,-1,1,2,12,3,0,1
1511883905577189,-1,-1,2,2,0,-2,-3,-4
1511883905577189,-1,-1,-2,10,9,3,0,1
1511883905578193,-4,-5,-1,-15,-10,-2,-5,-2
1511883905578193,3,1,0,-23,9,-1,2,1
1511883905591198,1,-1,0,11,17,-3,0,-1
1511883905591198,0,-1,-5,2,9,-2,-3,-1
1511883905599243,-2,-4,-2,-3,17,5,7,2
1511883905599243,-1,-1,2,4,2,0,-2,-2
1511883905614260,0,1,0,-17,8,-3,-8,-1
1511883905614260,-1,1,6,-1,-15,-14,-16,-3
1511883905616265,0,2,1,28,26,-4,-14,-2
1511883905616265,-4,-1,-5,-31,-37,0,8,-2
1511883905637069,-1,0,-1,6,26,-5,-9,-2
1511883905637069,0,-2,-3,4,-18,12,4,3
1511883905639075,5,4,6,7,16,10,19,8
1511883905639075,-3,-4,-6,-18,-43,-36,-20,-4
1511883905651107,-5,-2,-1,-2,-56,4,6,-3
1511883905651107,1,-2,-1,-5,37,-7,1,1
1511883905660159,2,5,1,-2,16,19,-2,0
1511883905660159,-1,1,0,31,15,10,8,-2
1511883905674195,0,-2,-4,-13,-2,-13,-3,-3
1511883905674195,2,-1,-6,-25,-1,2,-1,-1
1511883905676173,-1,2,-4,-9,-21,-3,4,-2
1511883905676173,3,0,0,16,11,6,1,3
1511883905697256,-1,-2,8,5,5,-4,-6,-4
1511883905697256,0,1,6,19,-4,2,6,-1
1511883905698258,-2,-6,-16,-24,-2,-6,-2,-3
1511883905698258,3,1,3,20,-6,1,-2,2
1511883905710264,-4,-2,-4,-19,23,9,4,-2
1511883905710264,1,1,5,9,-2,3,4,3
1511883905719820,-2,-3,9,12,-20,-8,-3,-3
1511883905719820,1,4,0,4,4,0,-5,-1
1511883905734383,0,4,-11,8,7,2,5,3
1511883905734383,-8,-6,2,-16,-19,-15,-8,-3
1511883905736389,-3,-3,-7,-19,0,-4,-6,-3
1511883905736389,2,2,2,6,9,3,1,-1
1511883905757446,0,-5,-3,1,23,7,8,2
1511883905757446,-2,-2,3,28,-2,-10,-10,-4
1511883905758449,1,-1,1,18,-9,-2,-4,0
1511883905758449,-2,-5,-1,-3,12,6,9,1
1511883905770506,-1,-1,-4,2,-61,-6,0,-2
1511883905770506,0,-3,-2,7,-8,-14,-14,-2
1511883905779527,-1,0,0,-19,1,4,7,-1
1511883905779527,0,-1,-4,-6,5,-3,-11,-3
1511883905794567,0,-1,-3,6,20,1,-3,-3
1511883905794567,2,5,3,6,13,15,20,5
1511883905796549,-2,-1,13,37,-10,-8,-6,0
1511883905796549,0,-2,-6,-3,-10,11,12,3
1511883905816602,1,-1,0,15,14,2,0,1
1511883905816602,-2,-6,-13,-44,-9,-6,-2,-2
1511883905819135,3,6,-1,23,16,-1,-2,2
1511883905819135,-3,-12,3,7,-13,-3,-2,1
1511883905831169,3,2,1,-6,-3,-2,-5,-2
1511883905831169,-1,3,3,17,6,8,-1,-2
1511883905839313,3,1,11,5,-3,9,5,3
1511883905839313,-5,-6,-26,-41,-10,-8,-3,-3
1511883905854359,0,4,20,27,8,-4,-4,1
1511883905854359,1,-2,-27,-39,2,3,4,-1
1511883905856335,-1,1,-1,-6,4,5,3,3
1511883905856335,-2,3,16,32,-26,-2,1,1
1511883905877418,-4,-5,-10,-31,9,-2,-1,1
1511883905877418,-3,1,8,16,-9,-9,-12,-8
1511883905878407,-3,-17,-9,-5,3,-2,9,-4
1511883905878407,4,3,-4,8,4,-4,-1,2
1511883905890451,2,10,3,4,4,8,6,2
1511883905890451,-1,-2,9,-6,-11,9,2,0
1511883905899459,-2,0,-18,-3,20,-7,-14,-4
1511883905899459,2,2,6,-19,5,6,4,1
1511883905914489,0,7,15,41,-24,-12,-5,1
1511883905914489,2,3,-33,-61,-4,3,2,2
1511883905916526,-7,-18,9,-16,-19,-4,1,-1
1511883905916526,-1,8,-2,0,12,11,8,-5
1511883905937159,2,0,7,14,8,-3,-10,1
1511883905937159,3,4,2,38,22,22,13,2
1511883905939140,-2,2,0,-31,-5,-54,-30,-5
1511883905939140,-1,-9,-10,3,-4,5,-2,-1
1511883905951198,-2,-8,-12,-28,-10,6,9,0
1511883905951198,1,5,5,74,18,10,10,2
1511883905960204,-2,-1,-11,-45,-38,16,9,-1
1511883905960204,-6,-4,6,15,32,-30,-27,-9
1511883905974266,2,-1,0,10,-1,2,2,-1
1511883905974266,0,4,7,7,14,-5,-3,1
1511883905980276,0,4,-12,-4,-8,10,2,-1
1511883905980276,3,13,23,31,-10,9,7,4
1511883905997296,-4,-19,-15,-69,-4,-1,4,-1
1511883905997296,0,12,6,-5,-50,-24,-23,-2
1511883905998299,2,7,9,19,12,8,1,-2
1511883905998299,0,-6,4,2,3,3,3,3
1511883906019860,-2,5,8,-1,17,-2,-2,-1
1511883906019860,-4,-8,-7,-41,-4,4,9,1
1511883906021362,-2,-1,-8,-6,2,2,1,-1
1511883906021362,-2,-7,2,29,8,4,-1,0
1511883906033896,-2,16,0,-46,-17,6,5,-3
1511883906033896,-5,-28,-5,-13,7,-18,-8,-1
1511883906040953,4,16,19,35,-9,6,2,0
1511883906040953,1,5,-8,29,28,10,7,3
1511883906057022,0,4,2,22,9,-4,-6,1
1511883906057022,1,9,-1,-33,-10,6,7,1
1511883906059028,-3,-13,-10,9,6,-8,-7,-5
1511883906059028,-2,0,-3,-41,-20,-3,4,0
1511883906079081,1,-1,3,21,-19,-5,-9,0
1511883906079081,0,7,1,-4,-3,-9,-5,-1
1511883906081059,-1,-5,-11,-7,8,16,10,4
1511883906081059,0,10,4,-8,-8,-22,-11,-3
1511883906094122,-3,-16,-3,-14,-27,6,8,1
1511883906094122,-2,-6,3,22,27,4,-2,-3
1511883906101113,0,5,6,10,15,7,9,2
1511883906101113,-1,-3,-6,-31,-17,-11,-9,-5
1511883906117156,0,3,-3,23,6,-2,-1,0
1511883906117156,-5,-2,-9,-10,2,6,6,-1
1511883906119162,2,-1,7,-1,-3,-22,-13,1
1511883906119162,-4,-22,0,9,7,9,3,-1
1511883906139719,-1,5,-16,-29,3,-4,-4,-3
1511883906139719,-1,-5,0,-17,-27,-9,-6,0
1511883906140721,1,12,3,14,14,4,-2,0
1511883906140721,0,6,7,0,-3,0,1,3
1511883906152780,2,-8,-7,18,16,20,9,0
1511883906152780,-3,-12,1,7,-10,-17,-10,1
1511883906161809,7,22,15,21,1,2,0,1
1511883906161809,-3,-5,-8,13,7,3,2,3
1511883906176818,-1,1,2,5,-1,2,4,0
1511883906176818,3,11,1,-4,-5,8,8,1
1511883906178822,-9,-50,-2,17,11,-9,-11,-4
1511883906178822,-1,-9,-7,2,-8,-3,-2,-1
1511883906199983,-2,-6,-10,-45,-6,-2,-8,-3
1511883906199983,1,0,3,16,9,4,6,4
1511883906206949,2,13,-4,-21,-20,-4,-1,-2
1511883906206949,1,1,7,-24,17,5,-1,-1
1511883906213040,5,36,0,13,-5,12,17,1
1511883906213040,-5,-23,11,28,3,-26,-25,0
1511883906222555,0,-7,4,8,-5,24,18,4
1511883906222555,-8,-21,-28,-51,-16,-33,-20,-6
1511883906237523,5,21,23,33,-24,0,1,1
1511883906237523,-2,22,5,10,44,8,3,-6
1511883906238491,-2,-5,-1,2,-5,4,4,-1
1511883906238491,0,7,3,8,-24,-12,-7,0
1511883906259544,-3,-19,-14,-19,-3,-3,-2,0
1511883906259544,4,8,10,25,5,6,6,-1
1511883906261550,-2,-2,-17,-46,-14,-10,-6,-1
1511883906261550,0,12,3,6,-2,11,7,-4
1511883906273578,-4,-8,-4,13,13,-13,-6,0
1511883906273578,-3,-1,4,-31,-18,2,-3,-2
1511883906282767,6,14,3,24,19,5,4,2
1511883906282767,0,4,-6,-13,-12,3,-1,0
1511883906296667,-4,-9,5,-3,-13,2,-1,-3
1511883906296667,1,-8,-7,11,1,-6,-5,4
1511883906298646,0,11,1,-64,1,0,5,2
1511883906298646,1,-2,-3,-3,-9,5,5,-1
1511883906319751,-7,-11,3,9,18,-2,-13,-6
1511883906319751,2,4,-16,-23,-13,-10,2,-1
1511883906321231,1,5,0,10,4,0,-2,1
1511883906321231,-5,3,6,-6,10,8,3,1
1511883906333264,1,-5,1,-1,5,5,6,3
1511883906333264,1,3,-5,-11,-6,-1,-2,-1
1511883906342325,-8,-14,1,-8,-17,-12,-10,-6
1511883906342325,5,16,7,18,-4,-10,-1,3
1511883906357369,-6,-35,-4,23,13,-4,-2,-2
1511883906357369,0,14,-15,-30,-10,4,0,-4
1511883906358373,0,-10,9,14,-12,0,3,2
1511883906358373,-5,-17,-16,-12,17,5,-3,-4
1511883906379425,5,11,-5,-19,-16,-5,1,2
1511883906379425,3,-7,13,27,-10,2,3,4
1511883906381429,1,1,-5,6,0,1,1,-1
1511883906381429,1,4,6,12,18,-3,-3,-1
1511883906393465,1,2,17,54,6,0,1,3
1511883906393465,-6,-15,-26,-81,-15,3,3,-5
1511883906402486,0,3,-3,7,-9,-10,-10,-2
1511883906402486,-1,-6,1,5,11,7,7,1
1511883906416522,-1,4,-11,-34,8,-2,-1,-1
1511883906416522,0,-1,17,50,15,-12,-17,-3
1511883906423544,-5,-1,-2,-14,4,-2,-4,-3
1511883906423544,1,1,-3,-10,-25,-1,-1,0
1511883906439631,-3,-4,-7,-7,-1,4,0,-2
1511883906439631,-5,-8,6,5,9,9,7,-3
1511883906441636,2,12,0,16,24,6,0,-1
1511883906441636,-2,1,-4,13,3,0,7,2
1511883906452665,-2,2,-11,-26,7,-3,-3,-4
1511883906452665,0,-4,0,-23,-23,-5,-3,1
1511883906461716,4,12,-2,41,28,-1,-4,0
1511883906461716,7,9,9,44,-1,12,10,2
1511883906476729,-9,-34,-1,27,-11,-3,-2,0
1511883906476729,-3,-10,3,-14,15,-14,-11,-4
1511883906478735,1,-2,-3,-22,-46,0,5,2
1511883906478735,-2,4,-1,-29,30,2,-6,-1
1511883906499791,1,7,3,5,4,5,2,2
1511883906499791,3,7,0,15,1,7,9,3
1511883906500794,-4,0,9,3,-31,-1,0,-4
1511883906500794,-7,-30,-9,-20,-18,-20,-18,-5
1511883906512825,2,8,-2,12,-7,2,2,2
1511883906512825,-3,-2,-1,-1,28,11,3,-1
1511883906529873,2,12,5,2,12,8,3,-2
1511883906529873,1,0,-6,-1,-8,1,5,-1
1511883906536934,-2,-7,4,21,6,-7,-9,-3
1511883906536934,0,1,-8,-12,-7,5,3,-2
1511883906538939,-3,1,1,3,5,-6,-5,1
1511883906538939,3,5,2,-5,14,4,-1,-1
1511883906559019,2,14,4,7,-5,-18,-9,-2
1511883906559019,3,30,8,14,8,7,4,1
1511883906560997,-5,-14,-8,-4,8,15,9,-1
1511883906560997,1,19,9,19,-6,-14,-9,0
1511883906581081,-7,-10,-13,-22,1,-15,-13,-4
1511883906581081,3,10,9,21,-8,26,21,4
1511883906582056,-3,-29,-22,-40,-12,-27,-21,-2
1511883906582056,3,37,16,19,4,16,14,1
1511883906596121,2,15,2,-2,14,10,6,1
1511883906596121,-5,-36,-9,1,-9,-14,-14,-4
1511883906597095,1,11,6,0,-6,9,13,1
1511883906597095,0,14,-3,-7,-3,-6,-7,-3
1511883906619180,-7,-39,-13,5,-8,-6,-10,-5
1511883906619180,1,4,-2,-25,-6,13,16,5
1511883906620205,10,51,12,7,2,-2,-6,1
1511883906620205,-5,-35,-10,3,-9,1,1,0
1511883906641241,8,50,15,16,10,1,6,0
1511883906641241,-5,-15,0,-9,-26,-18,-14,-3
1511883906642271,1,19,-3,-7,0,14,16,3
1511883906642271,-5,-24,-2,17,15,7,-5,-4
1511883906656281,5,4,-2,-36,-15,-17,-11,1
1511883906656281,-6,-9,19,21,3,2,1,-3
1511883906657285,2,15,-2,-7,5,-9,-7,-1
1511883906657285,-5,-20,-9,-14,-6,8,4,-1
1511883906687394,-4,-23,-6,0,-13,-1,0,-1
1511883906687394,8,36,2,7,37,0,-4,-2
1511883906687394,-8,-43,-6,9,11,2,-1,-1
1511883906687394,-2,5,-6,-17,-29,4,3,-2
1511883906701428,5,17,4,-18,25,-4,7,7
1511883906701428,-2,-18,-11,34,32,5,-3,1
1511883906702431,-4,-21,-8,7,-22,-1,1,-2
1511883906702431,3,4,-2,-13,15,-3,-6,-2
1511883906715438,1,0,4,-1,-8,10,11,-1
1511883906715438,-1,10,1,-3,-13,1,4,0
1511883906723990,-3,-18,-6,4,47,-9,-13,-5
1511883906723990,0,5,2,-4,-7,-7,-5,-4
1511883906738558,-1,-2,-1,-9,6,7,-1,0
1511883906738558,-5,-16,-12,-20,-10,-4,4,1
1511883906739546,-3,-1,0,-1,-11,3,1,0
1511883906739546,-1,-1,2,-1,-3,-8,-3,-2
1511883906769641,-4,-9,-2,4,-18,-5,-3,-2
1511883906769641,5,2,-2,-3,-15,-2,-4,0
1511883906770644,0,-3,-2,-3,-4,-4,-1,-1
1511883906770644,0,6,4,4,8,3,2,4
1511883906776632,-1,-6,-1,-1,-4,2,-1,-1
1511883906776632,-3,-4,-4,6,-22,-5,-4,-1
1511883906777635,-2,5,1,0,-1,-1,-4,-2
1511883906777635,0,-6,-3,-2,9,1,1,1
1511883906798718,-1,-7,-1,0,-4,2,-1,-2
1511883906798718,-1,1,1,0,14,-3,-2,-1
1511883906799695,0,-2,1,4,1,0,1,-2
1511883906799695,0,-5,-5,-10,-15,1,-2,-1
1511883906821754,0,2,2,0,8,18,3,3
1511883906821754,-2,1,-2,8,58,-30,-7,-5
1511883906822255,-2,-4,-1,-2,-11,8,-2,-1
1511883906822255,6,18,11,4,3,-19,0,3
1511883906836421,-11,-37,-14,2,-19,-7,-3,-4
1511883906836421,-1,-1,1,4,2,15,4,-1
1511883906837425,0,2,2,4,4,0,-1,-2
1511883906837425,-3,-5,-9,-40,-14,2,0,-2
1511883906858477,3,14,8,13,6,-4,-9,-3
1511883906858477,-4,-6,-3,-22,-26,-3,-4,0
1511883906859455,0,-16,-9,2,10,1,10,5
1511883906859455,-3,-4,2,10,-15,2,-3,-2
1511883906881543,4,15,5,4,13,9,10,3
1511883906881543,1,-9,6,29,-9,-1,-2,0
1511883906882545,2,31,4,1,-39,-14,-12,-2
1511883906882545,-6,-25,-12,-18,16,-2,10,1
1511883906896578,-7,-35,-8,-12,-13,-8,-9,-4
1511883906896578,4,20,5,16,-16,2,2,0
1511883906897581,1,3,0,-14,-34,2,4,0
1511883906897581,2,11,4,35,5,-4,-1,1
1511883906918637,5,8,12,29,11,4,3,6
1511883906918637,-2,-2,-11,-69,-19,-1,2,-2
1511883906919616,-4,-17,-5,16,8,-8,-12,-4
1511883906919616,-1,0,-4,-24,-7,2,0,0
1511883906941297,-1,12,6,18,2,-4,0,-2
1511883906941297,-4,-13,-20,-11,-15,2,-1,-1
1511883906942300,1,0,4,-4,1,0,7,0
1511883906942300,2,8,3,16,-7,-1,-5,-4
1511883906956337,1,6,7,-9,3,0,5,0
1511883906956337,-2,3,-5,-4,-9,-3,2,3
1511883906957340,0,8,6,-15,10,-1,-3,-3
1511883906957340,0,-6,4,1,-2,3,-2,-1
1511883906978396,-10,-40,-11,12,-5,-2,0,-6
1511883906978396,3,14,2,10,3,0,-4,0
1511883906979398,-5,-6,0,-2,-4,-1,2,1
1511883906979398,1,9,4,6,32,5,1,2
1511883907001484,3,10,2,11,7,2,0,-1
1511883907001484,0,6,3,-24,-8,0,3,6
1511883907002487,-10,-39,-7,-30,11,-1,-3,-5
1511883907002487,2,14,16,40,-4,-3,-4,0
1511883907015521,1,4,-8,6,-5,1,3,1
1511883907015521,2,1,-8,-25,24,10,5,-3
1511883907024018,4,15,9,23,5,5,-6,4
1511883907024018,-2,-10,-5,-9,7,-9,-4,0
1511883907038612,2,8,1,-9,-11,-2,-1,0
1511883907038612,-1,-4,16,37,7,-4,-5,-6
1511883907039600,2,1,-11,-6,17,4,-1,1
1511883907039600,-1,-13,-7,16,-25,-1,6,-3
1511883907061673,4,17,1,-8,11,7,4,6
1511883907061673,-4,-11,-2,-12,-10,-12,-4,1
1511883907061673,2,-5,6,17,0,4,3,-5
1511883907061673,0,9,-12,-39,-7,-6,-14,-1
1511883907075711,1,0,9,13,19,0,2,-4
1511883907075711,0,10,-6,-4,-4,3,3,2
1511883907083737,-1,0,-2,-4,-8,-2,3,0
1511883907083737,-3,-8,-1,-20,-10,1,4,-3
1511883907098744,3,12,-5,-11,-12,5,4,1
1511883907098744,0,4,4,0,5,-8,-14,-2
1511883907099747,-3,-10,-1,58,10,1,3,0
1511883907099747,-2,6,-6,-45,-11,5,5,-2
1511883907121335,-3,-5,-6,-5,45,-15,-15,-5
1511883907121335,-1,-9,5,17,15,4,-2,-4
1511883907122310,2,16,0,-21,-6,-1,-2,-2
1511883907122310,-2,-8,1,32,11,-1,0,3
1511883907135874,-2,1,-8,-9,-5,3,2,0
1511883907135874,1,-4,9,45,11,0,4,2
1511883907143919,1,0,2,-36,-8,-2,-3,1
1511883907143919,2,3,-3,-1,16,12,7,-1
1511883907158962,-4,-6,-4,-16,-9,-8,-11,-2
1511883907158962,-4,2,4,31,-2,3,3,-4
1511883907159964,1,0,1,1,-15,-6,-7,1
1511883907159964,1,2,5,-19,3,-1,4,3
1511883907181012,2,10,-4,-19,-17,0,2,2
1511883907181012,-3,-31,1,18,11,9,1,-3
1511883907181996,1,1,-3,14,19,0,6,3
1511883907181996,-3,-3,-9,-6,1,-9,-15,-10
1511883907196141,0,7,0,-16,-14,-2,0,1
1511883907196141,-2,5,-1,2,2,0,-5,-2
1511883907204148,1,-3,1,18,-5,-1,2,-1
1511883907204148,-2,-10,-8,-19,19,12,10,-2
1511883907219218,1,8,2,8,-11,-14,-9,-3
1511883907219218,3,3,-6,-21,-23,-6,-2,-2
1511883907220220,-1,1,1,11,8,-1,-4,0
1511883907220220,-1,3,2,3,-13,1,1,0
1511883907241314,-5,-6,-2,7,58,-4,-10,-5
1511883907241314,2,1,4,7,-6,-4,1,3
1511883907242314,-5,-5,-9,-24,15,3,1,-3
1511883907242314,0,-4,5,9,-22,-8,-6,1
1511883907255349,-2,0,-2,-6,-28,10,11,3
1511883907255349,0,2,-8,-15,20,5,5,-2
1511883907264402,-3,-2,5,4,10,-6,-5,3
1511883907264402,3,-1,-3,-2,-8,-5,0,0
1511883907279412,-4,-11,-3,6,-5,0,0,-3
1511883907279412,0,0,-1,5,-17,2,-2,0
1511883907279412,5,7,1,5,-8,0,4,0
1511883907279412,-2,-7,2,7,14,6,3,1
1511883907301575,1,-3,-3,-21,-12,-2,-1,0
1511883907301575,1,9,2,-22,-15,-1,-2,1
1511883907302474,-2,-11,-10,-7,15,4,2,-3
1511883907302474,-1,-3,8,24,-1,-3,-7,-3
1511883907316717,2,3,0,-5,-14,-7,5,0
1511883907316717,-4,-21,-7,-6,3,3,-5,-2
1511883907317517,-2,3,-5,6,-30,-10,-4,-5
1511883907317517,1,2,-2,-3,9,3,-1,0
1511883907338556,-1,4,5,16,-6,6,2,-1
1511883907338556,-1,9,1,-15,-18,-6,0,-1
1511883907339467,-4,-13,-7,13,4,-3,-1,1
1511883907339467,-2,4,11,10,-9,-3,-4,-3
1511883907361570,-1,-8,-24,-28,-3,0,-2,-1
1511883907361570,1,3,5,7,-22,-7,-1,1
1511883907362564,2,4,10,-22,6,5,2,1
1511883907362564,-1,-4,-13,-9,2,5,5,-1
1511883907376570,-3,-2,8,8,1,-4,-6,1
1511883907376570,1,-6,-5,-18,-7,-5,-3,0
1511883907377573,0,2,1,8,5,6,6,-2
1511883907377573,-1,2,2,7,0,1,-4,2
1511883907398667,-1,0,6,-3,-3,-6,2,3
1511883907398667,1,0,-9,4,10,9,-1,0
1511883907399645,-1,4,6,4,3,-5,-3,-1
1511883907399645,-4,-8,2,1,-21,4,0,-2
1511883907421716,1,0,-5,-8,8,-5,-6,-1
1511883907421716,1,6,-4,-1,-2,1,4,3
1511883907422219,-1,-2,-11,-33,-12,2,-4,-3
1511883907422219,3,1,-7,-1,35,3,1,2
1511883907435254,0,14,4,6,5,4,5,-4
1511883907435254,-5,-40,1,0,-1,-6,-6,0
1511883907443373,3,9,0,-10,-6,-2,0,-2
1511883907443373,-3,-3,0,13,6,-9,-7,-3
1511883907458390,-2,-3,-7,-18,12,8,1,-2
1511883907458390,-2,10,1,11,-13,-5,0,-2
1511883907459393,2,12,11,16,8,8,9,0
1511883907459393,0,-4,1,21,1,-4,-6,-1
1511883907481478,0,0,0,7,2,-5,-4,-1
1511883907481478,1,7,14,28,-11,-1,-2,-2
1511883907482481,-1,-9,-1,12,7,3,-2,2
1511883907482481,2,6,-8,-11,5,5,6,1
1511883907496518,-5,-8,6,7,-48,-5,-2,-3
1511883907496518,2,6,-10,17,51,3,1,0
1511883907497521,-1,-3,-3,-18,-5,1,1,-1
1511883907497521,1,7,0,-20,8,1,8,-1
1511883907518577,2,1,-5,-20,-9,-9,-12,-1
1511883907518577,-6,-1,0,-6,-18,10,1,-2
1511883907520079,-1,9,3,10,17,-28,-17,-3
1511883907520079,-1,-1,-6,-5,-14,-2,1,1
1511883907541644,0,-7,7,-4,1,3,0,2
1511883907541644,-1,-2,-6,-10,4,7,16,0
1511883907541644,-1,-10,-6,-24,14,0,-5,1
1511883907541644,2,12,3,3,-18,-7,-6,-1
1511883907555681,0,-6,3,19,23,5,4,-3
1511883907555681,-1,2,-1,1,-2,-1,-1,1
1511883907563731,-4,-8,-15,-48,-12,-2,3,0
1511883907563731,-1,-3,-5,-20,-3,-9,-5,1
1511883907578747,-3,0,5,10,-2,1,-5,-4
1511883907578747,-1,-3,-1,-2,4,-4,-4,-2
1511883907579746,2,2,0,23,-10,4,4,1
1511883907579746,-2,4,-2,-13,-14,0,5,0
1511883907600828,0,-3,1,-4,7,5,-1,0
1511883907600828,-1,11,9,-13,2,-5,-2,-3
1511883907601833,-4,-6,-8,3,-28,3,0,-1
1511883907601833,-3,2,4,7,4,-11,-11,-6
1511883907624932,3,-3,-3,-11,1,-1,6,7
1511883907624932,1,3,-4,-25,-18,1,-2,-2
1511883907625398,0,-1,-4,17,0,5,5,3
1511883907625398,-2,-6,6,-10,-14,-12,-6,-2
1511883907638499,0,6,-3,15,9,2,0,0
1511883907638499,2,-8,-9,-28,-6,-2,2,-1
1511883907639471,1,4,-1,3,5,-2,-6,3
1511883907639471,-2,-6,-2,6,13,13,15,1
1511883907661530,-2,-3,2,2,-10,-16,-19,-6
1511883907661530,1,8,-4,-4,-33,2,2,1
1511883907662533,-4,-8,8,22,27,5,4,-4
1511883907662533,1,-2,-3,-22,-1,-4,-7,-1
1511883907675590,1,1,-6,-13,0,2,7,5
1511883907675590,2,11,9,13,12,-3,-6,0
1511883907683588,-6,-19,-10,-1,-8,1,0,-2
1511883907683588,3,5,5,10,-12,9,11,5
1511883907698628,-1,-2,2,18,12,3,-5,-1
1511883907698628,-1,-5,-13,-40,8,-6,-10,-3
1511883907699631,3,3,10,-6,-20,2,4,0
1511883907699631,0,-4,-8,23,20,3,1,-3
1511883907721748,-2,2,-3,-23,-7,-1,0,-4
1511883907721748,-2,-1,1,12,2,3,4,1
1511883907722223,1,4,-6,-27,-18,-13,-4,-1
1511883907722223,-2,-2,5,3,41,8,0,0
1511883907735786,3,3,3,14,-12,6,3,2
1511883907735786,1,-2,7,23,-3,-4,-3,0
1511883907743831,3,5,5,21,7,-2,-2,1
1511883907743831,-4,4,-5,-23,-14,-1,-4,-2
1511883907758847,-3,-9,-14,-16,1,3,7,1
1511883907758847,-3,-15,2,13,5,-6,-8,-3
1511883907759850,0,6,-3,-14,3,4,0,0
1511883907759850,0,-10,8,27,-14,0,1,3
1511883907780933,0,-2,-7,-7,9,3,-3,-5
1511883907780933,2,2,-4,15,0,3,13,7
1511883907781908,-1,-2,3,6,7,-6,-8,-3
1511883907781908,3,1,4,-8,6,1,-5,-1
1511883907795946,0,2,0,-21,-2,7,12,2
1511883907795946,-4,-10,-6,7,15,-4,-8,-3
1511883907803967,-3,3,0,1,-18,-10,-5,-3
1511883907803967,-1,-2,-4,11,7,-6,-5,0
1511883907819036,0,5,16,35,-15,-6,-3,-2
1511883907819036,-1,0,-14,-49,-13,-2,-3,-3
1511883907820037,1,11,5,22,15,7,1,1
1511883907820037,-6,-30,-18,-9,-2,2,5,0
1511883907841150,-1,8,3,9,-18,-4,-8,-3
1511883907841150,-4,3,-5,-7,-4,-2,0,2
1511883907842125,1,-5,-2,18,4,5,5,1
1511883907842125,3,6,1,5,-9,-4,-1,-3
1511883907856162,-5,-15,-9,-18,-6,-5,-2,1
1511883907856162,0,3,8,21,12,-13,-17,-6
1511883907864186,-1,-5,-10,-11,-6,8,11,-1
1511883907864186,1,13,9,12,0,-5,-4,1
1511883907879224,0,0,-6,-16,7,2,6,-2
1511883907879224,0,6,5,9,-7,7,5,-3
1511883907879224,-1,-6,4,-12,-2,-10,-7,-1
1511883907879224,-3,0,3,36,4,2,-3,-5
1511883907901310,0,3,7,20,10,-14,-11,-2
1511883907901310,0,-1,-8,-20,-34,0,5,2
1511883907902285,0,-9,-6,-5,13,1,-4,-1
1511883907902285,-1,10,6,-19,-29,3,0,-3
1511883907924904,-1,-5,-4,-7,14,2,6,3
1511883907924904,-6,-24,-2,19,4,-10,-7,-1
1511883907925376,-1,10,7,6,5,-2,-2,-3
1511883907925376,1,-7,3,-4,-10,-5,-5,-1
1511883907938964,-2,-2,-10,-3,-4,-2,-3,-3
1511883907938964,4,7,9,11,-5,5,4,1
1511883907939940,2,7,-5,-28,-18,-7,-5,-1
1511883907939940,-5,-5,-5,12,21,2,-1,-4
1511883907960996,3,5,5,3,-4,5,4,1
1511883907960996,-2,1,0,-7,-4,-5,2,-3
1511883907961998,1,-4,4,8,12,1,-1,1
1511883907961998,1,2,-6,-1,2,1,3,2
1511883907984070,0,-3,3,-4,-3,4,-1,-3
1511883907984070,0,6,2,0,-20,-16,-8,4
1511883907985060,-3,-2,2,-26,-13,-1,-4,-2
1511883907985060,2,-6,-7,1,0,4,3,2
1511883907999123,-1,1,5,1,-7,-9,-5,0
1511883907999123,7,18,10,10,15,11,1,-1
1511883907999123,-3,-15,-10,-9,-3,9,5,1
1511883907999123,-2,-8,-4,-19,-19,-11,-1,-3
1511883908021686,0,6,-1,11,11,-11,-10,-1
1511883908021686,0,2,-4,-4,-15,3,3,2
1511883908022187,0,5,6,20,-17,1,3,-4
1511883908022187,-1,3,-2,-2,4,-1,-3,1
1511883908044851,1,3,7,21,13,5,3,2
1511883908044851,-3,-5,-5,-31,7,-2,-6,-4
1511883908044851,-3,-7,1,-1,-6,4,3,-3
1511883908044851,0,1,-3,6,-3,0,1,1
1511883908058888,0,-4,1,5,-17,0,0,0
1511883908058888,-1,-6,-1,1,16,6,3,0
1511883908059891,0,8,1,11,0,-2,1,0
1511883908059891,0,7,6,3,2,-2,-5,-1
1511883908080947,-3,-9,-11,-21,-3,7,5,0
1511883908080947,-1,-12,-4,-1,9,0,-2,-1
1511883908081922,2,8,1,7,4,-9,-5,-2
1511883908081922,0,1,2,-13,-7,1,0,0
1511883908104985,-3,-3,5,-2,2,3,1,2
1511883908104985,-3,-1,-5,-4,0,7,9,-2
1511883908104985,-6,-10,-6,-13,-20,-11,-10,1
1511883908104985,0,-3,-11,-32,10,-3,0,-3
1511883908119048,2,5,1,-10,-40,-2,-1,-4
1511883908119048,1,1,9,21,23,-9,-2,4
1511883908120048,2,2,-3,-10,10,5,2,0
1511883908120048,0,-1,1,9,0,-2,-4,0
1511883908141166,-1,2,1,-8,-9,6,6,-1
1511883908141166,0,-4,-9,-7,0,5,2,-1
1511883908142145,0,8,3,5,8,-7,-10,-2
1511883908142145,-3,-22,-7,-7,6,2,1,2
1511883908164206,1,0,1,5,3,1,1,-2
1511883908164206,3,4,4,11,-5,4,2,0
1511883908165206,-3,-2,0,-9,11,5,4,1
1511883908165206,-1,3,0,4,-2,1,0,-2
1511883908179276,2,4,-3,10,11,-4,-2,2
1511883908179276,-5,-11,-5,-19,-5,-2,-2,-4
1511883908179276,0,1,-8,-7,-3,0,0,-1
1511883908179276,-2,2,5,-10,-5,-4,-2,-1
1511883908201305,-4,-14,-4,1,6,-2,-2,-2
1511883908201305,0,13,-7,-1,7,0,-2,0
1511883908202306,0,-4,6,23,2,1,0,-1
1511883908202306,-1,15,4,-28,-5,0,-1,0
1511883908224888,-4,-17,-9,-13,3,-2,-1,-2
1511883908224888,1,5,2,4,2,-1,-3,-1
1511883908225387,1,-5,8,35,3,3,4,2
1511883908225387,-4,-4,-6,-34,9,-2,-2,-1
1511883908238460,1,13,5,22,2,-1,-4,-1
1511883908238460,0,-1,4,13,0,1,0,1
1511883908239459,-2,-3,-5,-9,6,4,3,-1
1511883908239459,3,7,-11,-10,-4,-3,-5,4
1511883908261530,-1,1,2,-9,22,-2,-2,-3
1511883908261530,0,1,3,10,-1,-4,0,-1
1511883908262654,0,6,-2,10,-32,0,-3,-4
1511883908262654,-4,-26,-11,2,11,3,1,-4
1511883908284685,-2,7,12,-4,-12,-1,4,1
1511883908284685,-2,-9,5,67,4,0,-3,0
1511883908285593,1,3,-3,-50,-2,-10,-4,-2
1511883908285593,-1,-1,6,36,-11,-4,-3,-1
1511883908298794,3,-1,-7,25,1,1,-2,0
1511883908298794,0,1,-6,-39,-5,13,14,0
1511883908299621,-1,1,-4,-18,9,-7,-9,-2
1511883908299621,-1,1,8,26,-24,-4,-1,-3
1511883908321944,0,-8,-5,17,14,-6,-8,0
1511883908321944,-1,9,2,17,10,4,0,1
1511883908322368,0,-3,3,-14,3,8,8,2
1511883908322368,-2,7,-1,-2,-6,3,-1,0
1511883908343573,-4,-5,-11,-6,-3,-13,-8,-2
1511883908343573,-2,1,-1,-22,2,-5,-6,-2
1511883908344573,-1,-5,-7,-21,-12,5,5,1
1511883908344573,1,17,16,46,13,-8,-8,-4
1511883908358614,-6,-12,-7,-15,-12,2,1,0
1511883908358614,0,-10,3,-20,8,-4,-4,-3
1511883908359613,-2,-5,-12,-3,4,-4,-2,-3
1511883908359613,3,4,-6,-19,5,8,8,3
1511883908381785,-1,-11,2,0,2,3,1,1
1511883908381785,-4,-11,-8,-27,-8,-6,-5,-1
1511883908382705,-3,0,-1,27,1,1,-1,0
1511883908382705,2,4,13,15,-6,-2,1,-1
1511883908404844,-1,9,-13,-38,-7,-4,-1,-1
1511883908404844,-3,-12,1,28,2,0,0,0
1511883908404844,-1,2,4,9,-3,-1,-1,-1
1511883908404844,-2,2,-3,10,5,-1,-1,-1
1511883908418797,1,9,11,-3,6,3,1,1
1511883908418797,-1,4,-4,-31,-2,0,-2,-1
1511883908419773,-2,-8,-9,16,-3,-4,-2,-1
1511883908419773,-5,-10,10,-6,-3,-1,0,-2
1511883908441835,2,13,7,11,0,3,5,1
1511883908441835,0,6,-7,-13,-2,-5,-3,-2
1511883908441835,1,-14,12,14,21,4,0,4
1511883908441835,4,2,-11,18,9,1,6,7
1511883908463921,-7,-12,-2,-50,-9,-2,-2,-8
1511883908463921,4,10,6,12,-16,-7,-5,1
1511883908464923,3,8,-8,-13,17,12,7,5
1511883908464923,-2,-17,1,10,1,2,-3,-1
1511883908478958,2,4,-18,-21,-4,12,14,1
1511883908478958,-1,0,7,13,-2,-11,-11,3
1511883908479963,-1,-2,4,4,5,-1,-4,-5
1511883908479963,1,3,-2,-6,-10,-6,-3,0
1511883908501020,2,10,2,4,-2,-8,-8,-3
1511883908501020,-1,-17,-6,-1,3,7,4,-2
1511883908501996,0,6,1,-13,-28,-6,-4,0
1511883908501996,-1,-1,-5,-7,31,8,5,0
1511883908524114,-4,-2,-10,-45,-8,-1,-1,-1
1511883908524114,-4,-1,2,15,-10,3,7,-1
1511883908524586,-1,0,12,17,-12,-6,-6,-2
1511883908524586,-3,7,-8,-32,-18,-13,-7,-6
1511883908538178,2,-8,-8,13,11,3,1,0
1511883908538178,0,4,-4,-5,0,1,1,-2
1511883908546198,-1,0,-6,11,5,7,6,-1
1511883908546198,0,7,3,-51,5,-4,-6,0
1511883908561211,-4,-9,0,17,-29,-10,-3,0
1511883908561211,-2,-3,-5,8,8,-1,-5,-3
1511883908562213,-1,7,8,-14,-11,-1,4,2
1511883908562213,2,3,-3,8,21,8,3,0
1511883908584306,0,5,24,44,-23,-9,-3,0
1511883908584306,3,2,-8,-68,-2,-5,0,0
1511883908584306,1,-4,0,25,8,-1,-4,-2
1511883908584306,2,-4,-12,-26,-35,-2,-2,-1
1511883908598336,-6,-5,-2,31,25,12,5,-1
1511883908598336,2,6,1,23,-7,3,1,1
1511883908606358,-1,-5,-2,-12,11,-1,1,-2
1511883908606358,-1,0,8,30,-4,7,8,-1
1511883908621372,1,-4,-9,-9,-1,-11,-13,-1
1511883908621372,-4,-4,-3,13,5,-3,0,2
1511883908622374,-2,8,16,-20,-9,-3,-1,-5
1511883908622374,0,-7,-3,12,10,-6,-6,1
1511883908643432,5,10,9,9,-2,4,3,1
1511883908643432,-4,-15,-11,-18,4,9,8,-2
1511883908644434,-4,-8,-8,-15,-2,-14,-12,-2
1511883908644434,-1,-4,3,16,0,5,5,2
1511883908658500,2,4,-4,-6,3,0,1,1
1511883908658500,2,9,16,27,5,1,-2,-1
1511883908666521,-2,-9,-20,-38,-22,0,2,-2
1511883908666521,2,4,2,31,18,-1,0,2
1511883908689579,0,5,11,-27,10,1,3,1
1511883908689579,3,0,0,-3,-3,-4,-10,1
1511883908690584,-1,3,-5,-4,21,4,1,-4
1511883908690584,-5,-6,4,7,-14,-5,-7,-2
1511883908703619,2,3,1,9,5,2,2,0
1511883908703619,3,8,5,12,2,5,6,1
1511883908704594,2,3,6,-7,-8,0,0,-1
1511883908704594,-1,-2,-9,-24,-4,-11,-8,0
1511883908718638,0,0,2,15,14,2,-3,-2
1511883908718638,0,5,4,15,-3,-3,4,3
1511883908726710,-2,-22,-23,-6,-22,-5,1,2
1511883908726710,-4,-1,9,-2,-6,4,1,-4
1511883908741777,-1,-9,-3,-10,9,3,-2,0
1511883908741777,-2,1,-1,-8,-6,-2,0,-5
1511883908741777,-1,-5,4,23,4,0,-1,3
1511883908741777,1,2,-4,-17,-9,-7,-7,0
1511883908763837,-1,4,-7,-11,12,1,0,-2
1511883908763837,1,1,20,23,5,3,-2,-2
1511883908764839,-2,6,-26,-50,-9,0,1,0
1511883908764839,-2,-5,4,-7,0,-2,0,-4
1511883908777873,-1,0,1,13,-7,1,1,1
1511883908777873,-1,2,2,17,-5,-2,-2,-1
1511883908785869,-3,-1,15,53,26,3,1,0
1511883908785869,4,9,-17,-72,-16,-3,-1,-1
1511883908800936,-1,-11,2,21,-1,-2,-3,-1
1511883908800936,-1,6,-8,-10,-2,-2,0,0
1511883908801910,0,-5,14,16,-10,-4,-3,-1
1511883908801910,-4,4,5,25,42,13,5,1
1511883908824025,-3,-8,-5,-6,-27,-14,-8,-4
1511883908824025,-5,-8,-9,-12,14,3,-1,-4
1511883908825028,2,7,9,-20,6,1,1,-1
1511883908825028,0,-14,-1,10,11,5,7,2
1511883908847087,-2,-2,-8,-60,-30,-11,-6,-5
1511883908847087,1,-1,-1,16,29,3,1,-1
1511883908848116,2,4,-2,58,50,8,4,2
1511883908848116,1,9,1,0,-35,-2,3,0
1511883908861124,-1,-6,6,41,25,11,4,2
1511883908861124,-4,-5,-11,-28,-21,-23,-15,-3
1511883908862127,1,14,7,-16,1,10,8,-1
1511883908862127,-3,-13,-7,9,-5,3,-3,1
1511883908884186,5,18,2,21,15,0,4,3
1511883908884186,-4,-16,-1,-20,-11,-15,-13,-3
1511883908884186,-3,2,-1,1,-13,-3,-5,-4
1511883908884186,0,2,-2,12,10,7,7,-2
1511883908907271,0,2,14,10,-26,-3,1,0
1511883908907271,-3,-17,-9,-52,-10,11,8,0
1511883908908250,0,-3,-9,-12,5,-4,-4,0
1511883908908250,-2,-2,5,20,-17,-17,-13,-3
1511883908921818,0,4,3,-10,9,7,4,1
1511883908921818,2,9,-6,30,2,2,1,2
1511883908922821,4,12,18,17,-11,-2,1,2
1511883908922821,-15,-55,-34,-36,-10,-3,-1,-7
1511883908943931,4,12,8,13,19,11,7,3
1511883908943931,-6,-7,-6,-47,-59,-37,-25,-9
1511883908944936,-4,-13,-7,-42,-39,-4,0,-1
1511883908944936,7,19,13,31,15,1,0,3
1511883908967001,-2,3,0,1,-7,-1,0,-2
1511883908967001,-1,-11,-7,5,32,14,12,2
1511883908968003,-1,-11,-4,9,-16,-4,-2,2
1511883908968003,-1,10,2,-3,-4,4,1,-3
1511883908981004,-1,0,-9,-23,-17,-10,-2,7
1511883908981004,-2,-14,7,34,15,8,-7,-2
1511883908982020,3,8,-1,-9,1,-6,-2,-1
1511883908982020,0,9,8,6,9,7,2,0
1511883909004065,-10,-38,-23,-15,-2,-1,-3,-8
1511883909004065,5,19,8,21,2,16,14,5
1511883909005094,-3,-1,1,24,6,6,4,2
1511883909005094,0,8,-3,-9,-14,-9,-3,2
1511883909027156,1,9,6,13,15,4,0,-3
1511883909027156,1,-2,-14,-29,-20,-10,-3,-2
1511883909028159,0,-3,12,46,9,12,5,1
1511883909028159,-5,0,-40,-81,1,-12,-6,-5
1511883909041806,-2,-1,0,-15,-35,-17,-11,-1
1511883909041806,1,2,13,21,9,17,15,0
1511883909041806,3,5,-17,-22,5,-12,-9,1
1511883909041806,-2,-4,11,21,13,9,7,0
1511883909064858,-1,-6,-2,18,10,-2,-4,0
1511883909064858,-3,3,-12,-78,3,7,4,2
1511883909064858,-2,-2,3,-11,-22,-13,-4,-2
1511883909064858,0,3,7,-3,-21,-5,-5,-2
1511883909086890,1,-4,-3,18,15,7,4,-2
1511883909086890,0,4,4,14,-3,5,6,3
1511883909087892,-3,-5,-6,-23,-14,-2,-6,-2
1511883909087892,-2,-8,4,8,-7,-4,-2,-1
1511883909100927,3,6,5,2,4,1,1,0
1511883909100927,-1,-1,4,15,-7,-5,-4,-1
1511883909101930,0,-3,-3,-3,-2,-3,-1,-4
1511883909101930,-1,1,5,17,-4,-1,-2,0
1511883909124546,-1,0,0,-11,-4,1,2,1
1511883909124546,-2,-1,-3,7,10,-1,-3,2
1511883909125549,-2,-4,0,-12,-3,-1,-3,-1
1511883909125549,3,3,5,22,9,2,0,1
1511883909147138,-2,-3,-14,-3,-15,-1,-5,-3
1511883909147138,-3,-4,1,-21,-8,-7,-6,-5
1511883909148136,1,0,12,30,13,4,0,0
1511883909148136,-1,-1,-20,-26,-10,-1,2,2
1511883909161175,-4,-2,17,15,1,-3,-2,-3
1511883909161175,2,4,-20,14,-18,0,0,3
1511883909162174,-2,-1,1,-51,-8,0,4,2
1511883909162174,2,0,-7,18,-2,-2,-8,-1
1511883909184207,0,2,2,-31,-6,-12,-6,-3
1511883909184207,1,-3,12,60,11,-5,-5,-1
1511883909185209,-3,-9,-14,-23,-1,2,-8,-6
1511883909185209,-4,-1,12,-6,-5,2,8,-4
1511883909207270,1,3,10,28,0,-10,-9,1
1511883909207270,1,0,-3,11,11,3,2,0
1511883909208272,-3,0,-13,1,-4,1,3,-2
1511883909208272,-1,-2,-6,-19,-5,2,-1,-2
1511883909221437,-3,-5,5,9,4,9,9,-1
1511883909221437,0,4,9,-3,2,4,3,0
1511883909222443,0,-1,2,25,6,-14,-13,-1
1511883909222443,1,2,1,-18,2,2,1,3
1511883909244710,4,2,-20,-20,2,5,6,4
1511883909244710,-8,-5,7,-29,-6,-1,-2,-7
1511883909245713,1,1,-3,0,4,5,6,-1
1511883909245713,0,0,19,28,-5,-4,-2,-1
1511883909266795,1,0,-11,27,38,10,2,1
1511883909266795,-2,-1,-23,-70,-18,-4,-2,-2
1511883909267770,0,-2,6,25,5,1,-2,0
1511883909267770,-1,-2,-2,10,11,-7,-5,0
1511883909281963,-1,-1,5,4,-3,-1,-1,-2
1511883909281963,1,6,13,51,0,2,3,1
1511883909281963,-2,1,-1,7,4,-4,-2,-3
1511883909281963,2,-3,-2,-14,-9,-1,-2,1
1511883909303950,-2,0,-9,-15,0,1,2,0
1511883909303950,-1,1,14,10,6,-2,-4,-1
1511883909304868,2,-1,-7,-6,-7,1,3,1
1511883909304868,-1,1,5,-9,2,0,-2,-3
1511883909327107,-2,1,6,6,-9,-3,-2,-2
1511883909327107,0,-1,1,4,20,3,0,1
1511883909328111,0,2,7,17,7,5,1,0
1511883909328111,-1,1,1,12,-7,-1,2,1
1511883909341149,-1,-2,0,-16,-1,-2,-2,-3
1511883909341149,-1,-1,-7,-6,-4,-2,-1,-2
1511883909342149,1,2,3,9,12,2,3,-1
1511883909342149,0,-1,3,9,14,3,0,-1
1511883909364210,-2,-2,-3,-6,-45,-4,-4,-1
1511883909364210,-2,-2,7,12,-10,-5,-4,-1
1511883909364210,-2,0,2,-1,-15,-5,-2,-2
1511883909364210,-1,0,-1,2,4,0,0,0
1511883909387312,-2,-1,2,-4,0,0,1,-1
1511883909387312,1,2,0,12,-1,1,2,1
1511883909388272,-4,-3,-2,-21,-40,-12,-4,-2
1511883909388272,1,-2,-2,3,-1,0,2,-2
1511883909401485,2,0,1,-2,5,1,0,0
1511883909401485,0,-1,-1,6,26,-3,-2,-1
1511883909402334,2,-1,-3,3,9,1,1,4
1511883909402334,-2,-1,1,16,5,2,1,1
1511883909423894,-2,-2,3,3,4,-3,-3,0
1511883909423894,0,-1,3,-8,-1,-1,0,0
1511883909424897,-2,-4,-12,-18,-4,-2,-3,-3
1511883909424897,-1,-1,6,-4,-3,-2,-2,-4
1511883909447486,3,1,-1,7,15,3,0,0
1511883909447486,-1,0,-5,-6,-11,-3,-3,-1
1511883909447486,0,0,3,4,14,9,10,1
1511883909447486,-2,-1,-2,10,-6,-8,-6,-1
1511883909460494,-4,-3,-5,-8,10,0,-4,-5
1511883909460494,1,-1,-3,0,-17,-3,-1,0
1511883909468515,0,0,1,-3,9,4,1,2
1511883909468515,0,-1,-2,-5,-4,3,3,0
1511883909483581,-2,1,-2,-7,-13,-8,2,1
1511883909483581,-2,-3,-6,-43,-22,-8,-4,-3
1511883909484558,-2,-1,0,10,15,24,0,-1
1511883909484558,1,0,-3,1,-12,-19,-3,-1
1511883909506620,-2,-2,-2,-4,4,3,-3,-3
1511883909506620,1,-1,-2,3,1,-2,2,-3
1511883909507618,-1,0,-1,-6,-5,-7,-3,0
1511883909507618,-1,1,-2,-3,21,6,2,0
1511883909520680,-2,3,2,-13,-19,-7,-2,-1
1511883909520680,-4,0,-7,-4,23,18,-3,-1
1511883909529205,0,2,0,2,11,-7,-1,-3
1511883909529205,-1,-4,1,5,0,14,2,3
1511883909543748,1,1,2,7,-3,-5,-4,0
1511883909543748,0,-7,-9,-2,11,8,3,-1
1511883909544750,4,7,9,19,-10,-7,0,3
1511883909544750,-5,-5,-5,-9,1,5,-3,-4
1511883909566808,-1,-5,-5,-4,-1,1,1,1
1511883909566808,3,2,2,6,-3,-4,1,1
1511883909567811,-2,-2,0,11,-6,-5,-6,0
1511883909567811,3,1,-1,18,0,-4,4,2
1511883909580868,-1,-1,29,-8,-4,1,-1,-2
1511883909580868,5,17,-2,-1,-26,-17,3,6
1511883909588889,-3,-9,-21,-10,22,23,1,-4
1511883909588889,-6,-21,-7,17,43,-14,-7,-6
1511883909603933,2,9,10,17,6,-7,5,1
1511883909603933,-7,-7,-5,-5,43,51,2,-6
1511883909604935,-4,-5,7,-21,-13,-39,-12,-4
1511883909604935,-10,-3,-8,-27,-28,-7,-7,-8
1511883909627016,-7,-4,-14,-35,13,6,-5,-6
1511883909627016,-5,-7,-1,-21,-10,16,0,-6
1511883909628019,6,11,17,95,32,-7,1,3
1511883909628019,2,-10,-8,-55,-5,-1,2,4
1511883909640554,5,9,7,19,18,-3,2,4
1511883909640554,3,-6,6,3,-25,4,6,5
1511883909648602,-4,-30,-8,-45,-28,-36,-12,-6
1511883909648602,38,52,44,32,51,35,17,22
1511883909663615,-3,-5,-16,-11,47,2,1,1
1511883909663615,13,34,39,8,-80,-10,9,10
1511883909664618,-14,-20,-15,34,49,12,-5,-13
1511883909664618,-12,-1,-4,4,-7,5,-10,-10
1511883909686703,17,82,20,-13,-54,-40,-10,4
1511883909686703,-10,-19,-10,-8,10,-4,-3,-8
1511883909687679,5,10,-30,-18,66,102,26,12
1511883909687679,-2,9,19,-20,-48,-90,-37,-13
1511883909700715,-4,-66,-31,25,-35,36,8,-2
1511883909700715,13,13,-28,-14,12,-29,-6,8
1511883909708762,-3,17,18,-5,-13,-3,10,-4
1511883909708762,-10,-13,-13,20,58,23,7,-4
1511883909724280,-2,-19,19,-30,-92,-5,-4,-2
1511883909724280,2,-1,-12,3,48,-38,-11,-2
1511883909724808,-8,2,6,1,-14,-17,6,-3
1511883909724808,-5,-6,-6,0,8,119,1,-4
1511883909746898,-1,-5,4,15,4,-33,-6,1
1511883909746898,2,-8,-2,9,18,42,15,3
1511883909747873,7,-4,-8,-11,4,66,-2,4
1511883909747873,1,-4,1,13,-46,-76,-3,1
1511883909760907,1,3,-6,18,21,29,10,1
1511883909760907,-12,-13,-6,-5,5,-13,-9,-9
1511883909768953,2,-2,3,-16,-34,-5,6,3
1511883909768953,12,13,-1,4,-21,-11,15,9
1511883909783969,3,-9,-33,-30,40,24,-8,-3
1511883909783969,-15,-8,22,28,7,-13,-2,-3
1511883909791014,-1,4,-3,-23,-32,-63,-19,-6
1511883909791014,-2,-10,-11,43,-23,17,8,1
1511883909807057,1,11,6,7,65,-7,-1,-3
1511883909807057,0,-8,-7,14,2,12,3,-1
1511883909808033,19,40,81,11,-22,-86,-12,10
1511883909808033,-8,-17,-19,-22,-24,-6,-3,-6
1511883909829647,1,-10,-3,10,-21,7,6,2
1511883909829647,5,9,0,10,-54,8,2,3
1511883909830649,-1,-14,3,5,26,17,-2,0
1511883909830649,3,4,1,-2,4,-10,0,4
1511883909843705,1,11,13,31,12,0,4,3
1511883909843705,2,4,10,-19,18,10,11,2
1511883909844684,-5,-3,-29,-19,-6,-13,-14,-8
1511883909844684,-5,-6,-10,-5,-27,-1,-3,-3
1511883909866743,-4,4,6,10,8,15,0,-1
1511883909866743,2,16,15,33,4,-10,-7,-4
1511883909867746,-25,-68,-52,-71,-29,7,0,-10
1511883909867746,18,64,68,79,47,12,10,8
1511883909889830,-6,-18,-46,-61,-4,-4,-3,-4
1511883909889830,-22,-39,-28,4,-41,-18,-9,-7
1511883909889830,24,88,25,31,5,3,15,13
1511883909889830,-20,-45,-36,-82,-11,-4,-10,-12
1511883909903867,11,47,81,113,29,14,6,5
1511883909903867,19,37,-17,32,57,-12,11,11
1511883909904871,-20,-65,-63,-88,-53,-9,-17,-14
1511883909904871,2,30,19,51,23,32,1,-3
1511883909927434,3,0,48,65,13,8,6,9
1511883909927434,3,-5,-68,-69,1,4,7,3
1511883909927935,5,14,42,-29,-19,-35,-10,-1
1511883909927935,6,34,27,35,25,25,-5,-4
1511883909949547,-13,-44,-41,48,-2,-15,0,-5
1511883909949547,-6,-12,59,41,0,9,-9,-4
1511883909950523,-10,-19,-59,-42,-48,-25,-14,-8
1511883909950523,16,9,3,48,43,13,19,17
1511883909963584,-8,-26,82,106,17,14,-3,-3
1511883909963584,-29,-39,-29,-8,-42,-30,-10,-19
1511883909964587,7,10,15,-8,-23,19,7,5
1511883909964587,-8,0,50,60,18,16,14,-6
1511883909986646,16,42,-8,-89,-9,-9,-10,14
1511883909986646,-6,-24,2,-128,-44,-35,-33,-17
1511883909987622,13,44,42,95,48,47,27,14
1511883909987622,-9,-51,-46,-12,-19,-10,12,-6
1511883910009708,-8,-21,-54,-22,46,8,-12,-3
1511883910009708,22,96,26,90,9,24,-26,-9
1511883910010710,-46,-100,-62,-70,-13,-10,-12,-19
1511883910010710,26,100,50,0,7,-1,20,18
1511883910024279,-12,-25,-30,-20,-14,-4,9,-7
1511883910024279,-6,-36,-55,-34,-4,-3,5,3
1511883910024779,26,71,90,75,47,18,3,8
1511883910024779,-11,-32,-47,-78,-38,-20,-11,-6
1511883910046918,2,8,-11,-18,-9,-20,-3,-7
1511883910046918,-6,-13,41,76,16,2,-3,4
1511883910047946,-1,-3,-42,-29,-22,13,16,-2
1511883910047946,-17,-62,-5,-2,-15,-16,-14,-10
1511883910068976,16,60,7,-22,-31,-2,-1,1
1511883910068976,3,13,31,43,16,9,7,7
1511883910069979,-10,-44,-38,15,16,2,0,-8
1511883910069979,-2,10,-9,26,-16,-11,-16,0
1511883910084017,-1,-25,-1,-2,-4,-8,-3,0
1511883910084017,1,-23,7,-20,7,24,31,1
1511883910085019,10,31,15,45,37,13,4,12
1511883910085019,-3,-2,-10,-5,-53,-58,-37,-4
1511883910107077,3,30,6,-37,-58,6,12,-3
1511883910107077,-7,-26,-12,-19,22,-3,-8,-2
1511883910108080,-6,-39,-11,-39,12,7,3,-6
1511883910108080,4,4,2,29,22,22,12,3
1511883910129673,-9,-9,-31,-93,2,3,7,-2
1511883910129673,1,16,-1,-97,-31,-22,-12,-4
1511883910130676,6,7,32,80,13,5,-5,0
1511883910130676,-5,-30,-28,-31,28,2,6,5
1511883910144186,0,11,-8,26,-21,-5,-3,-3
1511883910144186,1,8,15,43,6,12,10,2
1511883910144186,4,28,12,-12,14,1,2,0
1511883910144186,-1,-11,-18,-32,7,-9,-7,-3
1511883910167279,-11,-47,-19,-50,-15,0,-1,-4
1511883910167279,8,18,-5,38,17,7,-1,3
1511883910168251,2,21,4,-18,-3,1,5,-1
1511883910168251,-7,-38,-5,-7,-22,0,-2,-2
1511883910189324,-3,8,17,47,5,-14,-17,-7
1511883910189324,-1,-5,-5,28,-9,-4,4,4
1511883910190309,1,-5,11,73,25,-2,-4,4
1511883910190309,0,20,-4,-49,-18,8,5,-3
1511883910203362,-5,-13,-4,50,21,3,-1,1
1511883910203362,3,15,5,-24,-8,-2,-2,0
1511883910204352,5,14,-3,3,-5,4,4,2
1511883910204352,0,6,10,-2,-8,-1,4,1
1511883910227492,-4,-5,-3,14,3,-7,-7,-1
1511883910227492,2,-2,-2,21,-2,0,-2,-1
1511883910227983,0,8,10,2,-13,-6,-5,-1
1511883910227983,-2,-4,-4,-39,4,-2,-1,-1
1511883910249716,4,1,2,-7,-5,0,1,-2
1511883910249716,1,4,-4,-2,2,-1,2,1
1511883910250713,-2,-5,-1,-2,-10,-4,-1,0
1511883910250713,-1,-4,-5,22,46,-2,-6,-3
1511883910263751,0,8,5,12,28,3,-6,0
1511883910263751,1,-5,1,7,67,13,6,-1
1511883910271978,8,14,21,42,-1,-3,0,10
1511883910271978,-5,-10,-2,12,-48,-7,2,-2
1511883910286983,-3,-5,-13,-25,-2,7,5,1
1511883910286983,2,2,6,2,8,0,1,3
1511883910287813,-4,-3,-7,-4,-3,-7,-5,-3
1511883910287813,0,13,2,3,0,3,1,-3
1511883910309873,-4,-6,-3,-5,-10,-2,-2,-2
1511883910309873,0,-1,2,10,-21,0,9,3
1511883910309873,0,1,-4,-18,0,-3,-5,-3
1511883910309873,5,9,9,18,1,5,0,1
1511883910323917,-6,-11,-18,-36,-39,-24,-13,-6
1511883910323917,-2,4,4,-9,-16,3,3,-2
1511883910324920,-2,-5,-1,4,1,0,-2,-1
1511883910324920,-1,-2,3,3,-10,0,-4,-2
1511883910347628,2,-7,-6,-7,4,12,11,1
1511883910347628,-1,-10,-3,1,-15,-19,-18,-5
1511883910347628,-2,-5,-7,-40,15,-7,-4,-4
1511883910347628,-2,-1,-1,4,-30,0,2,2
1511883910369731,0,4,2,4,41,12,7,0
1511883910369731,1,1,6,17,-6,-5,-6,-2
1511883910370693,-1,-2,-2,8,-7,5,8,2
1511883910370693,-2,2,-5,-5,22,2,-4,-4
1511883910383724,3,1,5,-4,-23,-6,-2,0
1511883910383724,-2,-3,-9,-7,25,7,2,-1
1511883910391749,0,1,4,-10,-38,-13,-8,0
1511883910391749,-2,-3,-6,-21,8,-2,0,-4
1511883910405825,3,3,0,32,19,7,10,8
1511883910405825,-3,0,-3,-39,-33,1,1,-4
1511883910414805,5,9,5,41,41,11,11,4
1511883910414805,1,2,-1,11,1,-18,-20,-1
1511883910429875,-4,-8,-4,-16,-21,-3,0,0
1511883910429875,0,11,9,12,24,7,4,0
1511883910431379,-4,2,-10,-13,-12,4,2,-3
1511883910431379,-2,-3,-1,-3,-11,2,5,-2
1511883910442942,4,8,2,3,7,1,-2,-1
1511883910442942,-1,-1,0,0,12,2,-2,0
1511883910451939,-7,-10,-8,-12,-9,0,-1,-4
1511883910451939,0,2,-6,-12,14,2,0,-1
1511883910466003,1,6,7,14,5,-3,-10,-1
1511883910466003,0,-6,-3,-11,-39,-4,6,0
1511883910475028,4,1,8,44,22,3,-1,1
1511883910475028,-2,-7,-5,-12,-25,4,2,0
1511883910489038,-2,4,4,9,-10,-1,0,0
1511883910489038,4,6,-9,0,2,1,-3,0
1511883910491043,-3,-9,3,9,-5,1,0,-1
1511883910491043,-2,-5,-5,-21,12,5,9,4
1511883910503102,2,9,8,38,9,18,16,0
1511883910503102,0,-6,-1,-4,-3,-23,-23,-3
1511883910512115,1,1,3,-17,-35,-3,-1,-3
1511883910512115,4,14,7,17,6,7,3,1
1511883910525693,-4,-17,-14,-15,5,-3,4,-1
1511883910525693,-2,-2,1,0,-15,3,3,1
1511883910534689,-2,-2,-5,-13,0,-9,-10,-5
1511883910534689,2,-4,5,4,-5,-1,2,1
1511883910549326,1,9,2,-6,-15,-5,-2,2
1511883910549326,-2,-5,-1,4,16,9,8,1
1511883910551304,0,4,-4,-3,0,-14,-14,-3
1511883910551304,-4,-6,-8,-3,14,2,0,-2
1511883910563336,2,-2,5,-6,-8,5,-3,-1
1511883910563336,0,1,-2,0,10,9,11,2
1511883910572361,-3,5,-11,-35,-54,-25,-12,-3
1511883910572361,3,-8,2,24,30,9,5,4
1511883910585424,-1,5,-1,-12,7,-4,-10,-3
1511883910585424,-1,-6,-5,16,-6,7,5,1
1511883910594418,-2,-5,1,-9,4,6,3,-3
1511883910594418,1,0,5,23,-5,-3,3,2
1511883910609488,0,5,-2,-28,-4,-5,0,-1
1511883910609488,-2,-8,3,7,-4,-11,-9,-5
1511883910611493,0,-13,-4,11,21,-2,-1,2
1511883910611493,-2,-1,-4,-15,-26,3,4,-4
1511883910623552,0,-3,-8,-13,-1,-9,-7,-2
1511883910623552,1,5,5,-5,-12,-2,-1,-1
1511883910632554,0,-5,-1,5,13,5,3,0
1511883910632554,-2,-4,-3,-5,-1,-4,-5,-1
1511883910646113,1,13,16,16,10,0,-2,-3
1511883910646113,0,1,-10,-26,14,5,6,1
1511883910653132,-3,-3,5,10,4,-12,-12,-3
1511883910653132,-2,-3,-9,-25,-8,4,6,-3
1511883910669175,-2,-2,-5,3,-1,-15,-12,2
1511883910669175,-3,-3,0,11,-7,-2,-2,1
1511883910671181,-1,-2,-5,-12,12,17,12,-1
1511883910671181,-2,5,2,-8,-8,-13,-6,0
1511883910683212,-1,-6,1,-16,-10,1,1,-3
1511883910683212,0,2,9,0,-11,-7,-4,-1
1511883910692236,-6,-21,-27,-34,3,11,11,-1
1511883910692236,-1,-7,12,2,7,-11,-16,-2
1511883910706273,-1,-1,-3,21,-10,-1,2,3
1511883910706273,1,-2,1,-8,12,-9,-4,1
1511883910713319,4,6,5,10,-2,3,0,0
1511883910713319,3,4,0,2,-10,8,7,2
1511883910729867,-1,-9,-3,12,24,2,2,-4
1511883910729867,2,13,5,4,3,-2,-9,1
1511883910731396,0,-1,1,7,-32,1,5,0
1511883910731396,1,4,2,14,0,-9,-10,-1
1511883910751480,-1,5,6,12,1,1,0,-2
1511883910751480,-2,-5,-4,6,1,3,5,-1
1511883910753456,2,9,-1,6,11,13,5,-1
1511883910753456,-4,-4,8,3,-17,-22,-11,0
1511883910766518,-3,-6,1,2,-1,-1,-4,-2
1511883910766518,-4,1,-19,-33,-3,-2,-3,-3
1511883910773510,2,-6,3,12,2,2,3,3
1511883910773510,3,9,-5,-13,7,9,4,-1
1511883910789552,-4,-8,-6,16,8,-3,-5,-1
1511883910789552,2,1,9,3,-11,3,3,1
1511883910790555,2,10,4,6,-5,-2,-1,-1
1511883910790555,-2,-9,-10,3,17,1,-4,-2
1511883910811610,1,1,4,-5,-19,0,3,1
1511883910811610,1,1,-2,-6,1,3,1,3
1511883910813616,-2,-5,-2,-3,3,-4,-6,-3
1511883910813616,-1,-1,-1,-5,-4,3,7,0
1511883910826711,0,0,-2,-11,6,0,-5,-1
1511883910826711,0,-4,0,27,23,4,4,1
1511883910833226,-3,7,4,-16,-4,-11,-11,-1
1511883910833226,3,8,3,10,2,2,4,2
1511883910849296,-3,-28,-7,3,1,2,0,-1
1511883910849296,-2,9,3,-1,-17,1,2,-2
1511883910851274,-3,-9,0,-4,-5,-2,2,1
1511883910851274,1,3,-4,0,-1,-1,-5,-2
1511883910872331,1,18,8,-4,-18,1,2,1
1511883910872331,-4,-26,-8,-8,7,-8,-9,-5
1511883910873333,-1,0,0,8,13,4,0,2
1511883910873333,-2,4,-2,-1,5,4,5,-3
1511883910885392,0,6,-1,-10,-18,2,3,-1
1511883910885392,1,-1,-3,-17,33,-6,-6,1
1511883910902411,-1,4,6,7,-25,3,10,2
1511883910902411,-2,-7,-1,10,14,3,-7,-3
1511883910909455,2,6,3,-20,-4,-7,-1,6
1511883910909455,0,-4,1,2,-24,2,3,0
1511883910911461,1,1,2,1,11,-2,-4,0
1511883910911461,0,6,4,5,10,12,9,-1
1511883910932047,-3,-10,-6,-9,-2,5,6,-1
1511883910932047,-2,-3,-10,4,-12,-10,-11,-2
1511883910934038,-1,3,0,4,9,3,-3,-2
1511883910934038,0,7,0,-18,-26,-4,6,2
1511883910946169,-2,-15,-1,17,13,1,-3,-4
1511883910946169,-1,3,-4,-7,-5,1,3,2
1511883910953192,-1,-5,0,9,2,-1,1,-3
1511883910953192,-2,4,-3,-10,2,-4,-9,-1
1511883910969234,-2,-3,0,-1,-3,-1,0,-1
1511883910969234,4,9,5,6,0,6,5,1
1511883910971213,-3,-2,-10,-2,-6,-4,-4,-1
1511883910971213,-2,-6,-7,-27,0,-6,-5,-2
1511883910992269,2,4,-2,8,3,1,0,-2
1511883910992269,-3,-4,1,5,-4,0,-2,-2
1511883910993293,-1,8,1,1,6,4,1,1
1511883910993293,-3,-18,-10,-6,1,-2,2,2
1511883911006333,1,3,-1,-4,-14,-21,-15,-3
1511883911006333,-2,0,2,10,42,5,-4,-3
1511883911013347,-1,-8,-2,5,-5,3,3,1
1511883911013347,0,-2,6,5,-11,-3,0,2
1511883911029898,-2,-6,-9,3,36,13,9,2
1511883911029898,0,0,15,15,-30,-19,-7,-3
1511883911031402,-2,-5,-9,-20,-2,-5,-6,-2
1511883911031402,0,7,4,-3,-9,-1,4,0
1511883911052055,-4,-5,-5,-7,-15,2,1,-3
1511883911052055,-2,0,-4,-6,-7,2,4,0
1511883911054061,0,3,5,-1,6,-3,-4,-2
1511883911054061,2,4,3,10,1,-2,4,1
1511883911066066,0,0,-2,1,-4,-10,-14,-3
1511883911066066,0,3,6,-5,-4,8,7,0
1511883911073085,4,3,-4,6,-3,-2,-3,1
1511883911073085,2,3,1,7,14,4,-6,-1
1511883911089128,-4,-6,2,-6,0,6,11,2
1511883911089128,-3,-6,-7,-9,1,0,-3,-3
1511883911091132,3,7,7,5,-14,-6,-2,1
1511883911091132,-1,-3,-8,-24,10,3,-2,-3
1511883911112215,1,3,3,8,28,6,2,4
1511883911112215,-1,-3,3,-3,-3,-2,-3,-3
1511883911113219,2,-1,3,0,-8,-1,1,1
1511883911113219,-3,-12,-3,14,-2,2,1,-5
1511883911126759,1,2,0,-1,-7,-13,-12,1
1511883911126759,-1,-1,-2,-11,-10,-12,-7,0
1511883911133277,-1,-2,-2,11,40,3,-2,2
1511883911133277,-3,-4,-3,-28,-11,-4,-5,-6
1511883911149347,2,9,0,-6,0,4,6,-1
1511883911149347,3,0,-2,7,14,4,2,3
1511883911151329,-1,3,-1,-11,-17,-2,-2,-1
1511883911151329,-1,-4,2,14,-9,-7,-1,4
1511883911179421,-1,5,7,8,-7,-5,-2,-2
1511883911179421,-1,5,-7,-4,4,-1,-4,-1
1511883911181409,-1,-13,-8,-17,8,6,8,2
1511883911181409,0,12,12,12,-3,-10,-12,-6
1511883911186440,0,-5,-7,-10,-10,0,3,1
1511883911186440,1,3,7,19,18,6,2,0
1511883911193459,-2,0,-6,-11,8,5,4,0
1511883911193459,-1,-1,7,29,2,-9,1,2
1511883911209504,-2,3,-5,-11,13,4,-1,-1
1511883911209504,-2,-5,-4,-10,13,3,2,-3
1511883911211489,-2,2,1,-4,-11,4,3,0
1511883911211489,1,-4,-5,-4,5,-5,0,2
1511883911232083,-1,1,1,4,-6,1,-3,0
1511883911232083,1,-2,-1,-1,-13,-7,-2,2
1511883911234071,-3,4,3,2,-5,-1,2,-1
1511883911234071,-1,-11,-7,8,-2,3,-2,-2
1511883911245670,1,-3,-2,0,12,4,2,1
1511883911245670,1,1,-1,-10,-42,-2,3,-3
1511883911254659,0,-5,2,10,-34,-14,-5,4
1511883911254659,-1,1,-4,-6,4,6,2,-1
1511883911269752,0,0,1,8,0,1,0,2
1511883911269752,-2,0,-1,-13,-23,3,-1,-1
1511883911270701,-1,1,-2,2,5,-3,-2,-5
1511883911270701,-1,2,-1,1,2,6,3,1
1511883911291753,-1,-1,-5,-19,13,-1,0,-4
1511883911291753,0,0,1,8,-7,1,0,0
1511883911293755,-2,-4,-2,-3,-6,-2,0,-1
1511883911293755,1,-3,0,-3,8,5,4,-1
1511883911305789,-2,1,-3,-4,-18,-11,-5,-2
1511883911305789,-1,1,4,22,3,3,1,1
1511883911314812,-2,-2,-5,-33,15,0,-2,-3
1511883911314812,1,-3,-5,1,-15,-8,-10,0
1511883911329883,0,4,11,25,-9,3,4,0
1511883911329883,-1,-11,-11,-5,16,-1,0,1
1511883911331388,0,1,-1,3,-15,-2,-1,-2
1511883911331388,-2,-1,2,7,23,3,0,-1
1511883911352562,-1,-4,-9,-14,4,-1,-1,-3
1511883911352562,0,0,0,3,9,4,0,1
1511883911353500,0,-1,1,10,5,-4,-7,-1
1511883911353500,-1,-3,0,-10,-2,1,2,-1
1511883911365657,1,-1,1,11,-3,0,1,1
1511883911365657,-4,-2,0,-15,6,-1,2,-2
1511883911374555,4,2,2,12,-15,-1,0,1
1511883911374555,-6,-8,-8,-3,0,-3,-5,-3
1511883911389708,-1,0,-1,4,-3,1,2,-3
1511883911389708,2,4,0,-9,4,8,14,6
1511883911391669,-4,-1,2,3,-10,-17,-14,-6
1511883911391669,0,0,-1,-4,1,1,-2,0
1511883911411657,-1,-4,0,-6,-3,11,13,2
1511883911411657,0,0,1,14,6,-17,-18,-4
1511883911413659,-1,-2,-1,-13,-3,-3,2,2
1511883911413659,-4,0,-2,3,-10,0,0,-1
1511883911425693,-1,-5,-2,-4,0,-3,-6,-4
1511883911425693,2,3,0,-5,-20,5,5,-1
1511883911434718,0,-1,1,1,12,5,2,-2
1511883911434718,-1,-1,1,-2,3,0,0,-1
1511883911449759,0,2,1,-8,-26,-2,1,4
1511883911449759,-1,-1,-1,3,9,-1,-2,-2
1511883911450763,-3,-2,-2,5,7,0,-1,-2
1511883911450763,-2,-2,-5,-3,8,4,3,1
1511883911471844,-4,2,1,0,7,-3,-3,-2
1511883911471844,-2,-2,2,4,18,0,-2,-1
1511883911473823,0,-1,0,4,-19,1,0,0
1511883911473823,2,3,3,-5,-9,-2,2,-1
1511883911485882,-2,-4,-1,-8,4,-4,-7,-2
1511883911485882,1,1,-3,-8,-8,-2,-2,0
1511883911494879,-1,-1,1,11,24,6,4,0
1511883911494879,-3,0,1,5,13,5,0,-1
1511883911509943,0,-2,-4,-13,-17,-7,-6,-2
1511883911509943,-1,1,-1,-12,-6,-1,1,-1
1511883911510921,-1,-1,1,12,10,2,3,0
1511883911510921,-1,-3,-6,-2,-13,-3,-2,-2
1511883911532028,3,6,11,10,-1,-2,-3,1
1511883911532028,0,1,-12,-31,1,0,1,-2
1511883911534011,0,-1,0,13,11,2,-3,0
1511883911534011,-6,-16,-13,-10,5,-3,-3,-5
1511883911545610,1,1,15,71,-15,3,11,4
1511883911545610,2,22,-25,-84,-21,-8,-11,-9
1511883911554606,-13,-56,-25,64,60,-9,-7,-5
1511883911554606,4,45,8,35,20,5,-1,0
1511883911569670,-2,-10,4,60,14,4,3,3
1511883911569670,6,34,25,22,-12,0,5,6
1511883911570675,-5,-20,-3,-13,8,-11,-13,-4
1511883911570675,-4,-50,-21,-59,-34,-7,1,0
1511883911591704,3,9,3,-7,18,8,8,-1
1511883911591704,-3,-23,4,5,-27,-17,-14,-1
1511883911593709,6,30,4,-19,-42,3,5,3
1511883911593709,2,18,14,32,15,2,-1,0
1511883911605741,-5,-24,-14,-57,-22,-10,-6,-2
1511883911605741,-4,-12,0,30,31,13,9,0
1511883911614766,6,34,15,-14,-7,-4,0,0
1511883911614766,-6,-28,-14,-38,-11,-8,-8,-3
1511883911628859,-2,0,-10,-10,13,4,2,-3
1511883911628859,-1,5,6,54,14,-1,-2,-1
1511883911635880,-3,-10,-10,-47,-4,5,4,0
1511883911635880,5,16,11,25,-2,1,5,2
1511883911651945,-1,8,-10,-48,-22,2,0,-4
1511883911651945,3,-5,9,43,1,-1,2,2
1511883911653928,-3,-1,-12,-5,-10,-6,-6,-1
1511883911653928,4,41,11,6,0,4,5,3
1511883911673980,-7,-47,-12,-6,-5,-4,-7,-2
1511883911673980,-5,-15,-11,8,3,5,4,-1
1511883911675984,7,9,4,-10,-5,8,8,2
1511883911675984,1,8,2,-20,3,-17,-8,1
1511883911689019,0,8,3,-9,16,-10,-14,-4
1511883911689019,-1,-4,1,15,0,4,2,-2
1511883911696063,2,2,7,12,9,2,-1,-1
1511883911696063,2,-1,-2,-6,-16,6,11,1
1511883911712108,-7,0,0,15,9,-6,-8,-7
1511883911712108,-2,-10,-5,-4,12,-5,-2,-1
1511883911713111,-4,-5,2,-6,-32,-2,-3,-2
1511883911713111,2,2,2,11,21,5,1,1
1511883911734696,3,15,5,7,-14,2,3,3
1511883911734696,1,4,2,-20,8,1,3,1
1511883911736175,-5,-5,-10,-45,-20,-2,-3,-2
1511883911736175,3,-1,2,10,2,2,-2,-3
1511883911748637,1,16,6,12,21,1,-1,4
1511883911748637,-9,-28,-12,-16,-28,-5,-1,-4
1511883911755657,5,17,6,21,17,4,2,0
1511883911755657,-3,-3,4,11,1,-2,-2,0
1511883911771700,1,4,-8,-27,1,1,1,0
1511883911771700,1,7,6,8,-4,-2,-2,0
1511883911773679,-1,9,2,10,11,0,1,0
1511883911773679,0,-3,-5,5,1,-2,-1,-2
1511883911794763,-7,-19,-10,-14,-6,3,0,-4
1511883911794763,-2,-11,-5,-3,25,5,1,0
1511883911795765,2,5,5,16,4,-1,0,0
1511883911795765,-1,-10,-6,0,-15,-17,-13,-5
1511883911807801,1,9,7,19,-1,3,6,2
1511883911807801,2,6,1,-2,10,3,0,0
1511883911816792,-4,-6,-8,-9,3,7,3,-5
1511883911816792,-2,-2,6,35,4,8,5,2
1511883911832386,2,2,2,5,21,-7,-9,-2
1511883911832386,0,-3,2,7,-15,-3,-1,2
1511883911833866,4,14,6,-8,9,6,1,0
1511883911833866,-2,-4,2,-3,-1,4,2,1
1511883911854952,2,4,16,61,21,5,4,2
1511883911854952,2,14,-20,-78,-14,1,4,1
1511883911855927,-3,-4,-8,-21,-8,-4,-2,-2
1511883911855927,-2,-7,1,4,-7,3,1,1
1511883911867987,0,9,2,44,-4,2,2,1
1511883911867987,1,9,16,63,17,-2,-5,-1
1511883911876984,-3,-24,-3,3,1,0,0,-2
1511883911876984,-1,-8,-21,-42,-8,2,3,0
1511883911892050,-6,-13,-6,-5,-7,-10,-6,-5
1511883911892050,5,-2,5,5,8,13,11,4
1511883911894056,0,0,15,71,20,0,-3,-1
1511883911894056,3,20,17,-27,7,-17,-19,-6
1511883911914083,-3,-26,-18,-70,-41,-4,-2,-2
1511883911914083,-4,-1,-8,-11,25,11,1,-1
1511883911916088,4,5,8,-13,4,11,15,6
1511883911916088,-1,-1,8,61,-28,-11,-7,-2
1511883911928177,0,15,-1,14,-4,-17,-17,-5
1511883911928177,-1,-7,-6,-1,-20,-4,0,-5
1511883911936696,-6,-1,-7,-53,-16,-9,-11,-2
1511883911936696,-1,-1,1,7,-12,3,6,1
1511883911951737,3,0,-1,-22,-2,4,6,2
1511883911951737,-2,7,8,48,0,-4,-3,0
1511883911953743,-4,-2,-7,-40,-11,-5,-4,-4
1511883911953743,-2,0,-8,-21,-8,2,2,0
1511883911974797,2,6,9,31,1,3,7,2
1511883911974797,-3,-3,-9,-61,-11,-7,-4,-2
1511883911975813,2,6,1,33,18,1,-1,0
1511883911975813,1,1,1,-1,13,4,4,2
1511883911987832,2,7,0,1,11,7,5,3
1511883911987832,-1,-3,1,-4,-7,-5,-3,0
1511883911996856,0,-2,-5,1,-9,-3,-2,0
1511883911996856,-1,5,2,-5,3,4,2,0
1511883912011921,-4,-13,-8,-24,-11,-10,-5,-3
1511883912011921,0,3,3,-5,-8,-1,2,1
1511883912013929,1,0,2,26,2,-3,-7,0
1511883912013929,-1,-6,-6,-36,28,6,0,-2
1511883912034509,2,10,4,-5,5,5,4,1
1511883912034509,-2,-4,-6,-3,-11,-8,-2,0
1511883912036488,0,1,0,-4,7,-3,1,1
1511883912036488,0,3,0,-12,-38,6,3,-2
1511883912048615,-3,0,-10,-30,24,-1,-1,0
1511883912048615,-2,-2,5,21,1,-3,-5,-3
1511883912056622,1,2,1,31,1,2,6,2
1511883912056622,3,5,6,16,-11,-3,-1,-1
1511883912071688,-5,-19,-9,-9,4,4,0,-1
1511883912071688,-4,-12,-12,-9,0,4,3,0
1511883912073667,-2,3,-4,-13,2,-5,-4,0
1511883912073667,0,-1,-1,7,5,-1,2,0
1511883912094749,7,8,6,47,5,5,4,1
1511883912094749,0,13,4,-44,-1,-5,-5,-3
1511883912095749,-8,-26,-10,13,-9,-2,-4,-5
1511883912095749,-2,2,-6,-2,12,1,4,2
1511883912107781,1,-2,8,10,-15,-3,-1,-3
1511883912107781,0,4,3,8,5,-2,0,2
1511883912116782,0,3,0,-19,-4,-2,0,-2
1511883912116782,0,-2,0,17,5,-4,-2,0
1511883912132372,-2,-2,-4,-11,5,2,-2,-2
1511883912132372,0,-2,9,28,3,3,2,1
1511883912133853,-2,2,-5,3,-1,3,2,0
1511883912133853,-4,-11,-1,8,-19,-9,-5,-3
1511883912154961,0,10,3,-5,-24,-1,0,1
1511883912154961,-6,-1,-2,-9,4,-6,-4,-5
1511883912155936,2,10,8,11,-27,-1,1,1
1511883912155936,-2,-15,-10,-25,15,-1,-1,0
1511883912168098,0,6,-7,-22,-18,-1,3,0
1511883912168098,-1,1,1,16,-4,-4,-5,-1
1511883912176993,0,1,4,21,8,2,0,0
1511883912176993,-2,5,-4,-7,-3,1,-1,1
1511883912192033,-1,5,2,-14,6,-1,-3,0
1511883912192033,2,-4,-4,17,6,3,3,3
1511883912194041,0,8,0,-5,5,-3,-2,-1
1511883912194041,-1,-4,1,7,7,0,-3,-1
1511883912215131,-3,-7,-2,-6,3,1,1,2
1511883912215131,2,9,10,11,14,4,4,0
1511883912216098,2,-7,-7,2,3,-2,-4,-2
1511883912216098,-7,-10,-10,-48,-13,-10,-9,-6
1511883912228328,3,3,3,28,13,4,1,-2
1511883912228328,0,-4,-7,2,-15,-5,-4,-2
1511883912237415,-2,-14,0,-9,-2,1,-2,0
1511883912237415,1,6,7,27,4,1,6,4
1511883912252638,-3,-2,-16,-67,-16,-12,-9,-6
1511883912252638,5,5,5,-2,13,6,4,0
1511883912253484,-4,-14,-1,4,-7,-2,-1,0
1511883912253484,0,8,3,13,11,3,-1,-1
1511883912274516,-5,-8,-3,-1,3,-1,3,1
1511883912274516,0,1,1,2,5,-1,0,0
1511883912276522,3,4,6,19,7,-3,-1,1
1511883912276522,0,6,-3,-34,-10,1,-2,-1
1511883912288682,-1,-3,4,14,-8,-1,0,0
1511883912288682,-2,3,-3,-5,4,0,-2,-2
1511883912297576,-4,-16,-7,-30,3,0,-3,-2
1511883912297576,-3,-5,6,49,15,-3,-2,-2
1511883912311615,-2,1,-7,-42,-11,-5,-4,-1
1511883912311615,0,-3,-2,-9,-12,-2,0,0
1511883912313618,1,8,-2,4,-10,8,13,2
1511883912313618,-1,-7,2,15,19,-1,-6,0
1511883912334680,2,-5,4,18,0,0,-2,1
1511883912334680,-2,-5,-3,8,-4,-2,0,-1
1511883912336184,0,9,3,-15,-2,-1,-1,-1
1511883912336184,0,-10,3,23,0,2,3,1
1511883912348346,0,17,-3,-15,2,0,0,-4
1511883912348346,-4,-25,-3,4,-8,-2,-3,-1
1511883912357367,2,12,7,24,8,1,4,-1
1511883912357367,-1,0,-8,-38,-13,-3,-4,-1
1511883912372581,4,20,8,47,26,4,-1,1
1511883912372581,-3,-24,-10,25,11,1,0,-1
1511883912373411,0,6,-3,-37,-28,-5,-4,1
1511883912373411,1,-7,-1,7,2,4,3,1
1511883912394532,0,-4,0,-15,-4,-1,0,0
1511883912394532,1,9,0,-6,1,0,-1,1
1511883912396471,-1,-4,-2,8,10,2,-3,-1
1511883912396471,-1,3,-1,17,2,3,4,-1
1511883912408600,-2,-2,-1,5,-5,1,1,-3
1511883912408600,-2,8,2,-50,-18,-10,-7,-2
1511883912417529,0,-7,-13,-15,35,4,-1,1
1511883912417529,-2,3,1,-13,-1,3,2,-2
1511883912431594,-3,-3,-2,-20,0,-1,-2,-2
1511883912431594,1,6,6,6,-4,2,2,-2
1511883912438612,2,2,8,29,-10,-16,-11,0
1511883912438612,1,5,-5,34,3,11,10,2
1511883912454678,-5,-21,-2,-2,34,-7,-9,2
1511883912454678,-1,6,-2,-3,-7,4,-2,-3
1511883912455658,-2,-4,-1,-3,-15,-3,2,-2
1511883912455658,3,4,4,14,-2,-4,-3,0
1511883912467689,-2,-15,-4,1,-1,6,6,0
1511883912467689,0,0,0,3,-8,-9,-4,0
1511883912476746,-1,-1,4,37,12,8,6,1
1511883912476746,-1,4,-2,-55,-27,-11,-10,-5
1511883912491781,-1,-8,-8,-14,-11,-1,-1,-2
1511883912491781,-1,-1,-3,8,1,-5,-4,-2
1511883912497800,2,9,1,-11,-5,10,12,-1
1511883912497800,-4,-12,-3,-18,3,-14,-11,-1
1511883912514816,4,7,4,53,0,2,3,0
1511883912514816,-1,-4,3,29,3,2,1,0
1511883912515819,-1,1,-2,-25,-4,-1,-1,-1
1511883912515819,0,1,-2,7,6,4,3,0
1511883912528379,-3,3,7,-2,-11,-7,-5,-2
1511883912528379,-1,-6,-7,-20,8,4,5,1
1511883912536879,1,8,1,0,-4,-2,-5,-1
1511883912536879,-2,-13,-2,1,0,-1,-2,1
1511883912551942,2,7,-2,4,-2,0,2,0
1511883912551942,0,-5,-4,-11,9,8,4,3
1511883912553948,-2,-1,-2,-8,-6,-13,-10,-4
1511883912553948,0,1,2,-6,-4,-3,-3,1
1511883912573977,-1,0,-4,-1,13,10,3,1
1511883912573977,1,3,4,6,-7,-11,-6,-1
1511883912575983,-4,-5,-1,16,0,-2,-4,-1
1511883912575983,0,4,-6,-29,-12,-1,-1,-1
1511883912588015,0,0,5,7,2,4,1,-1
1511883912588015,-2,1,-3,-9,-3,5,2,-1
1511883912597039,0,-3,-1,0,-1,-11,-8,-4
1511883912597039,-1,1,1,4,15,10,9,0
1511883912611076,-1,-1,1,-5,-50,-17,-8,1
1511883912611076,-1,4,1,-13,15,2,-3,-2
1511883912618122,-2,-10,-7,-17,-4,9,12,3
1511883912618122,0,6,6,23,14,-2,-3,-1
1511883912634695,-2,5,-5,-28,-5,-18,-14,-6
1511883912634695,-1,-12,-1,1,-1,1,-2,-2
1511883912636174,1,5,2,11,0,8,4,-1
1511883912636174,0,-1,0,-9,2,-2,0,-1
1511883912657279,-2,1,-1,-14,-1,4,5,2
1511883912657279,-1,6,2,-3,-12,-9,-6,-4
1511883912658282,2,-2,1,0,7,3,2,2
1511883912658282,-4,-14,-2,-3,0,-4,-3,-4
1511883912671293,2,4,5,10,12,6,2,4
1511883912671293,0,1,-4,17,8,3,1,0
1511883912678340,1,-4,0,2,16,-5,-6,0
1511883912678340,-4,4,0,6,-21,-5,-9,-1
1511883912694378,0,-4,-1,-5,7,-3,-2,-3
1511883912694378,-3,-1,0,0,-3,8,9,2
1511883912696382,0,0,2,0,4,-4,-3,0
1511883912696382,1,0,-8,-13,-15,1,2,1
1511883912717416,-3,-4,1,2,9,2,-1,0
1511883912717416,1,10,2,8,0,-5,-4,-3
1511883912718432,-3,-8,-5,-27,-12,-11,-8,-3
1511883912718432,1,4,1,-1,-13,-4,1,-1
1511883912731481,-3,-3,1,30,-1,4,5,1
1511883912731481,1,4,-9,1,9,5,3,-1
1511883912738062,-3,0,5,4,-3,2,1,1
1511883912738062,-1,-10,-4,1,5,1,2,-1
1511883912754073,0,-2,1,6,1,-1,-1,-3
1511883912754073,4,18,3,-11,-18,-5,1,3
1511883912756085,-6,-20,-9,1,12,5,0,-4
1511883912756085,-2,2,-1,8,7,3,0,-1
1511883912777159,-4,-13,-6,-15,3,2,2,0
1511883912777159,1,-1,0,-21,3,2,1,-2
1511883912778162,1,5,0,2,-3,1,0,0
1511883912778162,0,0,-4,-9,3,-2,-3,-2
1511883912791197,1,-2,-1,-1,7,2,1,0
1511883912791197,-3,-8,-3,-2,-9,-2,-1,1
1511883912798218,-1,3,2,0,6,3,-1,-3
1511883912798218,0,0,-1,7,5,0,0,2
1511883912814261,-1,5,0,6,-2,-1,-2,-1
1511883912814261,1,-6,-2,-18,-2,-5,-2,-2
1511883912816266,-1,5,-2,-3,-11,3,2,0
1511883912816266,-1,4,1,-3,1,-2,-4,-1
1511883912836854,-1,-8,-2,7,2,8,9,1
1511883912836854,0,-3,4,19,-4,-3,-4,1
1511883912842893,3,15,1,13,-10,-16,-10,-1
1511883912842893,-7,-21,-5,-15,-3,3,3,0
1511883912850918,2,8,-1,-4,20,-2,1,1
1511883912850918,-4,-4,2,5,14,8,7,-1
1511883912857933,1,7,3,11,-16,3,5,0
1511883912857933,1,15,2,-17,-7,-15,-13,-1
1511883912874955,-4,-16,-4,7,-5,0,-1,-1
1511883912874955,1,-6,0,11,-4,-8,-4,-1
1511883912875958,1,-1,0,4,-10,2,2,3
1511883912875958,0,0,-8,-12,-3,-7,-6,-4
1511883912897040,2,4,3,-11,-35,-4,3,2
1511883912897040,-1,2,0,-9,7,-3,-8,-1
1511883912899046,-1,-5,-3,-4,-2,2,3,2
1511883912899046,0,-5,3,18,4,7,7,1
1511883912911052,0,14,3,1,-7,-3,0,-1
1511883912911052,-1,-2,-1,20,4,2,3,0
1511883912918071,-4,-13,-9,-38,-12,-7,-6,-5
1511883912918071,3,5,5,11,4,5,5,2
1511883912934616,-3,-2,-5,-12,-2,-1,0,-1
1511883912934616,0,0,3,-4,-1,4,0,1
1511883912936121,-1,-3,0,11,13,-5,0,2
1511883912936121,-1,-3,-3,-8,-2,2,1,0
1511883912957179,1,2,0,-2,6,1,-5,-1
1511883912957179,0,0,-1,-4,-6,-2,0,0
1511883912958182,-2,-7,-1,2,-4,3,-4,-3
1511883912958182,-3,-1,-5,-2,6,1,4,0
1511883912970242,-1,1,0,-6,3,-8,-8,-3
1511883912970242,-1,-4,-4,1,-11,4,3,-1
1511883912979237,2,1,4,7,7,-3,-2,-2
1511883912979237,2,-1,-2,2,3,-1,-3,2
1511883912994278,-2,0,2,-13,11,6,3,0
1511883912994278,-2,-2,-3,-2,2,-2,4,2
1511883912996283,-1,2,3,-9,-27,4,5,-2
1511883912996283,0,13,4,12,1,1,-1,0
1511883913017339,-8,-42,-17,-21,-10,-9,-6,-4
1511883913017339,-4,-2,2,-3,7,0,-3,-2
1511883913018342,1,1,-1,-2,8,5,4,-1
1511883913018342,-1,1,6,6,11,3,2,-1
1511883913030930,0,8,4,0,-3,0,2,1
1511883913030930,1,0,-2,1,-3,-3,-2,0
1511883913039956,-3,-1,-5,-14,5,0,-2,0
1511883913039956,0,-4,4,16,0,2,5,0
1511883913054020,0,8,-1,4,5,-1,-2,-2
1511883913054020,-1,-7,-3,-16,-7,-2,-6,-4
1511883913056002,2,5,-2,-6,-1,-1,2,1
1511883913056002,-2,-3,-3,5,-2,-13,-15,-5
1511883913077081,1,5,3,15,0,4,2,2
1511883913077081,1,9,0,-4,-1,0,-1,-4
1511883913079059,-2,-14,1,16,-8,2,5,7
1511883913079059,-5,-7,-15,-52,-11,-6,-8,-4
1511883913091092,3,4,2,2,10,-8,-7,0
1511883913091092,-1,2,2,-2,3,-2,0,2
1511883913100115,-2,6,3,12,-1,0,-3,-4
1511883913100115,1,-3,-2,11,-16,4,9,4
1511883913114152,0,5,-1,-2,-8,2,1,2
1511883913114152,1,-3,-4,-36,22,-1,1,4
1511883913116159,0,7,4,18,-6,1,0,-2
1511883913116159,-2,5,3,7,5,1,0,0
1511883913136770,-3,-22,-7,-10,-9,-11,-8,-3
1511883913136770,-1,2,3,12,4,2,2,1
1511883913138775,0,9,1,1,-15,-4,-3,-2
1511883913138775,-2,-18,-8,-5,0,6,5,1
1511883913150808,2,4,3,13,0,4,2,-1
1511883913150808,0,5,2,5,-10,-6,-3,1
1511883913159861,-2,-8,-5,0,13,-3,-3,-2
1511883913159861,1,3,2,16,-1,1,1,0
1511883913174982,0,4,-3,-18,-2,1,2,0
1511883913174982,1,-5,-1,8,2,-1,-1,1
1511883913175875,1,8,-3,-34,-11,-4,-4,-2
1511883913175875,1,6,6,0,3,0,0,-2
1511883913197044,-7,-22,1,34,1,2,3,-1
1511883913197044,2,5,-4,-4,-25,-5,-2,2
1511883913199048,-2,-7,-6,7,11,-5,-4,-4
1511883913199048,-2,-2,1,5,2,0,-2,0
1511883913210970,2,11,5,3,12,1,0,1
1511883913210970,-4,-7,-1,-1,-4,1,3,-4
1511883913220020,-2,-3,3,20,14,3,0,2
1511883913220020,1,0,-5,-20,-5,-1,1,-2
1511883913234649,0,8,5,12,-1,7,7,-1
1511883913234649,-1,-3,-5,-19,19,-4,-9,-1
1511883913236153,0,-6,-2,-20,-1,-10,0,4
1511883913236153,1,3,-1,12,6,-3,-6,-4
1511883913256711,-1,5,-3,-32,-2,2,-1,0
1511883913256711,0,-3,-3,16,6,10,8,0
1511883913258742,1,11,1,-7,-12,1,0,-1
1511883913258742,-1,-4,2,-5,24,6,4,2
1511883913270745,-2,-3,-5,-4,-44,-8,1,1
1511883913270745,1,3,1,18,4,-3,-7,-2
1511883913279768,-4,-1,-3,-20,-9,-6,-8,-3
1511883913279768,-2,-4,-4,11,-1,-2,-2,-1
1511883913294811,1,5,0,-4,5,2,2,0
1511883913294811,0,-2,0,9,-5,13,13,2
1511883913295811,2,-5,1,-1,-4,-20,-8,-1
1511883913295811,0,0,-3,3,-5,6,3,0
1511883913316867,-1,-6,1,10,1,-3,-3,-1
1511883913316867,-3,-1,-2,-16,-1,-2,-1,-1
1511883913318871,-3,-6,-2,3,7,9,2,1
1511883913318871,1,3,2,-1,-21,-6,0,1
1511883913330914,0,2,0,-6,3,2,3,1
1511883913330914,2,8,3,7,-6,-8,-4,-2
1511883913339566,-4,-18,-7,11,6,6,0,-3
1511883913339566,1,7,-2,-22,-1,-1,-2,0
1511883913354714,-2,-2,-4,8,7,2,-1,0
1511883913354714,-3,-5,-4,-35,-11,-10,-6,-2
1511883913356615,-2,8,2,1,6,4,1,0
1511883913356615,1,2,6,28,-9,1,2,1
1511883913376773,-2,-14,-7,6,19,2,-4,-2
1511883913376773,-1,2,5,21,7,-2,-2,1
1511883913378671,2,3,2,12,6,3,3,2
1511883913378671,-2,-12,-11,-36,-15,1,4,-1
1511883913399731,0,10,1,8,20,-2,-4,1
1511883913399731,-1,-2,1,7,-18,-5,-3,-1
1511883913400731,-3,-9,-3,-1,30,6,5,-1
1511883913400731,-4,-1,-3,-4,2,-5,-3,-1
1511883913413808,-2,-4,4,6,1,-2,0,-1
1511883913413808,-1,-4,-8,-50,-11,-1,-3,-3
1511883913420820,2,7,5,3,-8,2,3,0
1511883913420820,3,6,7,26,6,1,-2,0
1511883913436903,-4,-14,-11,-20,-3,-2,-1,-2
1511883913436903,-3,0,0,13,3,1,2,1
1511883913438913,1,1,-2,13,-5,6,5,-1
1511883913438913,0,3,2,8,3,-13,-9,-2
1511883913450939,3,12,8,4,-12,-2,-4,0
1511883913450939,1,-6,-3,7,20,8,4,-1
1511883913459963,1,5,1,-4,-30,-9,-7,-2
1511883913459963,-6,-22,-9,4,-1,3,1,1
1511883913474000,2,9,1,-6,-9,-1,-2,-1
1511883913474000,0,10,1,4,8,-1,0,1
1511883913481019,-5,-17,-1,14,26,5,-2,-2
1511883913481019,1,4,4,-11,0,5,3,-1
1511883913497089,-3,2,-2,-23,-7,-6,-4,0
1511883913497089,-3,-7,-8,-7,-15,-2,-1,-2
1511883913499071,3,13,7,-9,9,7,5,2
1511883913499071,0,-4,4,29,1,-3,-3,1
1511883913510119,-4,-6,-4,14,9,2,5,-1
1511883913510119,0,6,1,13,7,10,12,0
1511883913519147,2,5,0,-14,-23,-13,-11,2
1511883913519147,-1,-8,-3,-14,13,-1,-8,-4
1511883913534192,1,4,2,9,-17,0,2,0
1511883913534192,-3,-3,-1,9,-2,-4,-3,0
1511883913540208,0,3,-4,-6,8,7,7,0
1511883913540208,1,5,3,-8,9,-1,1,-1
1511883913557276,-2,-7,-7,-16,3,-3,-4,-3
1511883913557276,1,-2,-1,-18,3,1,-2,-1
1511883913558278,-1,-3,-4,7,-1,5,2,0
1511883913558278,2,13,-1,-34,6,-12,-10,-3
1511883913579340,-3,-1,2,29,1,0,-2,-2
1511883913579340,-1,3,1,-7,2,1,-1,2
1511883913581343,-4,-13,-5,-2,-13,-7,-3,-3
1511883913581343,1,5,2,-14,-8,1,2,2
1511883913593377,-2,-7,-16,-23,9,4,1,-1
1511883913593377,0,3,5,14,-27,-7,-3,0
1511883913600366,0,-10,-6,-6,30,-6,-12,-4
1511883913600366,-1,3,-5,-9,-9,7,6,3
1511883913617412,3,1,3,-17,-32,-2,2,2
1511883913617412,-3,-8,2,14,-8,0,-1,-2
1511883913618422,-2,-1,-5,-19,3,2,3,1
1511883913618422,-2,-4,-3,-9,-15,-3,0,-1
1511883913639500,1,4,7,11,18,5,3,1
1511883913639500,1,-7,0,3,-15,-2,0,1
1511883913641506,0,3,-1,-1,-24,-9,-3,-2
1511883913641506,-7,-7,-3,6,2,-5,-4,-4
1511883913653572,3,4,3,9,1,2,5,5
1511883913653572,0,5,0,-12,27,-7,-11,-2
1511883913660591,1,0,0,2,-19,6,7,1
1511883913660591,-3,-11,-2,15,7,-7,-5,-1
1511883913677639,1,21,3,-15,-4,4,3,-4
1511883913677639,-5,-32,-11,15,15,-3,-8,-3
1511883913678639,1,14,6,-2,-12,-2,-1,1
1511883913678639,1,-11,-1,10,14,10,5,3
1511883913699688,0,3,-1,-9,-5,-4,-2,0
1511883913699688,3,14,3,11,-2,1,3,-1
1511883913700691,-3,-15,3,3,8,-3,-4,-1
1511883913700691,1,12,-2,0,-3,7,6,1
1511883913712725,-4,-6,-6,-34,-2,-5,-6,-2
1511883913712725,-2,1,6,19,12,1,1,1
1511883913722251,2,1,-4,-24,-7,-1,-3,2
1511883913722251,0,2,5,27,7,0,0,-2
1511883913737315,0,-8,-2,7,-19,-6,-2,-2
1511883913737315,0,3,-5,-31,-10,2,3,0
1511883913738318,-1,1,3,16,9,1,-1,0
1511883913738318,-4,-2,4,1,-6,-1,-2,0
1511883913759401,-2,-6,-7,-15,9,-2,-4,-3
1511883913759401,0,0,0,12,-5,0,1,1
1511883913761403,-3,0,-2,-9,2,10,12,-3
1511883913761403,4,17,1,-22,-10,-4,-3,1
1511883913773444,-12,-61,-10,14,9,-27,-23,-5
1511883913773444,0,8,2,2,-15,3,5,2
1511883913782458,0,-1,-6,-21,4,-1,-3,0
1511883913782458,2,1,-4,4,0,9,10,-1
1511883913796496,5,20,7,-25,-1,7,3,1
1511883913796496,-3,-28,-12,-10,-10,5,8,-2
1511883913798477,-1,2,5,35,-3,-11,-10,2
1511883913798477,-1,-5,0,7,-1,-1,-3,-1
1511883913819559,0,9,5,18,-8,2,2,1
1511883913819559,1,7,3,26,14,3,2,2
1511883913821539,-2,-9,-7,-22,7,3,0,-3
1511883913821539,-3,-2,-3,-7,-8,-1,-1,-1
1511883913833095,3,4,5,44,12,6,5,3
1511883913833095,-2,5,3,-21,-4,-1,-4,0
1511883913842307,-6,-6,-3,-2,-14,-13,-10,-7
1511883913842307,3,0,0,7,2,4,8,2
1511883913857371,-6,2,-7,-50,-32,4,-2,-2
1511883913857371,0,8,5,14,-3,-18,-9,-5
1511883913858349,-1,-9,1,27,-2,2,2,1
1511883913858349,-2,-2,-2,-45,-2,-3,-3,-2
1511883913879433,2,15,9,54,6,17,14,0
1511883913879433,0,3,-1,-12,-10,-10,-9,0
1511883913881438,4,9,3,15,-2,-4,-3,1
1511883913881438,-4,-1,2,3,-2,0,-1,-2
1511883913893471,-1,-4,-3,24,4,-1,1,0
1511883913893471,-2,-1,-3,-13,4,-4,-5,-2
1511883913902466,1,4,1,-6,9,2,4,0
1511883913902466,0,5,6,13,1,0,0,0
1511883913916504,0,-8,-8,12,3,-2,-4,-2
1511883913916504,0,-1,0,0,3,8,10,-1
1511883913918509,1,2,0,-13,-4,-4,-6,1
1511883913918509,-2,-6,-6,3,-2,0,1,-1
1511883913939614,2,3,1,-18,3,-10,-9,-1
1511883913939614,-4,-4,-6,12,5,6,4,0
1511883913940641,0,-6,-2,-3,-16,0,4,0
1511883913940641,0,-2,-3,1,2,-2,0,-1
1511883913952674,-4,5,3,-8,10,-9,-9,-5
1511883913952674,-3,-8,-7,-36,-21,2,3,-2
1511883913961700,-2,2,0,-11,-8,-3,-2,2
1511883913961700,-2,-3,1,9,3,1,-2,-1
1511883913976738,5,7,0,-13,-5,4,2,2
1511883913976738,1,-12,-1,0,4,2,-1,3
1511883913978743,2,19,5,1,14,-1,-4,-3
1511883913978743,-6,-43,-13,-4,-12,-19,-8,-3
1511883913999801,-3,3,2,10,12,1,-2,-3
1511883913999801,-1,7,2,-10,-6,1,0,0
1511883914000776,-2,-3,-3,-1,-29,5,8,-1
1511883914000776,3,11,5,12,13,5,-3,0
1511883914012810,-1,-7,-2,11,3,-3,-2,-1
1511883914012810,0,1,2,6,-13,-6,0,0
1511883914022346,-1,5,2,2,11,5,4,-2
1511883914022346,-4,-4,1,10,-7,-10,-14,0
1511883914037401,1,-1,-4,-20,-2,0,2,2
1511883914037401,2,6,2,20,8,0,-5,-3
1511883914038470,1,-1,-2,7,-19,-7,-2,2
1511883914038470,-3,2,-2,-1,-6,-2,1,-4
1511883914059553,0,6,5,-1,6,5,5,-1
1511883914059553,-3,-9,-4,-13,39,7,-2,-3
1511883914061571,1,-4,-1,-2,17,5,4,2
1511883914061571,0,7,-4,-3,-2,-2,-1,-2
1511883914073582,4,13,2,15,-14,-5,-1,3
1511883914073582,-5,-20,-3,-18,-19,9,10,-2
1511883914081612,-1,-1,1,-1,3,-16,-15,-4
1511883914081612,1,-2,-1,3,-12,0,0,-1
1511883914096652,-2,-6,-4,-5,2,6,4,-1
1511883914096652,1,8,1,14,12,-2,-4,1
1511883914098630,-1,-4,1,11,-9,10,9,1
1511883914098630,1,4,1,-9,-13,-5,-10,-2
1511883914119717,0,-1,1,-2,4,-4,-4,1
1511883914119717,0,-3,-9,-25,-4,-2,-2,-2
1511883914120716,1,-3,-1,3,-1,5,4,1
1511883914120716,0,5,4,18,12,-1,1,-3
1511883914133248,-5,-8,0,-26,-8,7,5,0
1511883914133248,2,6,2,14,6,-18,-20,-3
1511883914141783,-1,11,-1,-2,18,3,4,0
1511883914141783,0,-16,-3,0,-12,-2,1,1
1511883914156839,-1,2,-1,10,9,5,2,-3
1511883914156839,1,9,1,10,-8,2,5,3
1511883914158818,-4,-2,-3,-5,7,-4,-7,-2
1511883914158818,0,3,-1,2,45,14,8,2
1511883914179961,2,5,3,7,-40,-14,-6,1
1511883914179961,-4,-11,-3,-7,-8,-4,-5,-5
1511883914180875,1,1,-7,-28,7,-1,-2,0
1511883914180875,1,5,3,-2,-3,2,2,1
1511883914192929,-1,-10,-2,1,8,4,4,1
1511883914192929,0,14,4,16,-6,-2,-4,-3
1511883914201931,-2,-11,-5,22,16,1,2,1
1511883914201931,-2,-2,-1,-22,-7,6,6,1
1511883914216972,-1,1,-2,-14,-5,-11,-9,-5
1511883914216972,1,-1,1,13,3,6,7,2
1511883914218976,-2,-6,3,5,3,-16,-16,-2
1511883914218976,-1,4,-3,-6,-6,3,1,-1
1511883914239324,0,-4,-4,-30,27,1,0,2
1511883914239324,-4,7,2,-9,-3,4,3,-2
1511883914241328,-5,-30,-11,-7,0,-2,-3,-3
1511883914241328,1,8,7,17,1,-6,-4,-1
1511883914253401,-3,-3,-2,2,24,9,4,-1
1511883914253401,2,3,-4,9,-17,8,3,2
1511883914262417,-3,-9,-4,-28,-4,-12,-2,-1
1511883914262417,-4,-7,-5,-13,-18,-7,-9,-2
1511883914277455,-1,4,-2,4,0,-3,-1,-2
1511883914277455,-1,5,4,9,-1,-1,0,0
1511883914278430,2,10,4,20,0,5,2,1
1511883914278430,0,-7,-2,-5,1,11,12,1
1511883914299523,0,-1,2,14,-8,-3,-1,2
1511883914299523,2,0,-1,-18,-6,-17,-11,2
1511883914301488,-3,-2,0,12,1,0,-3,-6
1511883914301488,2,8,5,11,30,1,2,2
1511883914313561,-4,-3,-8,-41,-20,2,2,1
1511883914313561,-3,-9,-7,-14,7,2,1,-1
1511883914322590,-1,11,0,-4,-12,4,0,-2
1511883914322590,-3,-22,-6,14,-2,-5,-2,1
1511883914336668,-2,0,0,24,17,-1,2,0
1511883914336668,-3,-8,-6,-48,-20,-2,-3,-6
1511883914343216,1,1,-1,17,6,8,5,0
1511883914343216,3,13,0,-19,-20,-14,-12,-4
1511883914359257,4,-1,-4,17,9,6,5,0
1511883914359257,-3,-7,2,7,15,-10,-10,2
1511883914361260,-4,-9,-2,14,10,1,1,-2
1511883914361260,-4,-9,-6,-2,-5,4,3,-1
1511883914373292,-1,-1,-3,-12,-11,0,-3,-2
1511883914373292,1,3,6,16,6,3,4,1
1511883914382316,-2,2,1,-3,-10,0,-3,-3
1511883914382316,0,1,-2,-31,-1,-6,-3,0
1511883914396482,0,0,5,4,0,2,1,-1
1511883914396482,-2,-3,-4,3,1,-7,-2,1
1511883914403487,2,1,-1,-10,-11,-4,-1,2
1511883914403487,-5,1,-1,-26,0,-2,-7,-5
1511883914419459,0,-4,1,14,-1,5,3,-2
1511883914419459,1,0,-2,-23,-3,0,1,-2
1511883914421426,-1,3,5,28,8,2,3,2
1511883914421426,-1,5,-3,-19,-26,-2,-2,1
1511883914433469,1,4,4,39,-27,-8,-1,3
1511883914433469,-8,-23,-13,7,-7,-4,-5,-5
1511883914442535,1,13,10,4,2,7,5,-1
1511883914442535,-4,-21,-11,0,-1,2,4,0
1511883914456569,1,5,3,2,7,-1,-4,0
1511883914456569,1,15,2,6,-21,-14,-7,-3
1511883914462603,-2,-21,-4,-1,12,3,4,0
1511883914462603,1,6,2,6,2,6,8,-1
1511883914479658,-1,-2,1,-5,12,-22,-20,-5
1511883914479658,0,-5,-5,-2,-1,11,9,2
1511883914480659,-1,2,-2,-6,-9,-12,-10,0
1511883914480659,1,8,4,7,2,3,4,3
1511883914492691,-3,-5,-3,-31,-3,-4,-4,-2
1511883914492691,0,0,2,2,-27,7,6,2
1511883914501689,-3,3,-1,-7,7,-9,-7,-2
1511883914501689,-2,2,0,13,10,2,1,1
1511883914516770,0,2,-3,3,7,2,-2,-1
1511883914516770,1,0,9,9,31,3,4,0
1511883914523274,0,-3,-8,-31,-5,4,0,-1
