timestamp,emg1,emg2,emg3,emg4,emg5,emg6,emg7,emg8
1511884698599471,1,1,-1,-4,-1,7,-2,0
1511884698599471,-1,1,2,7,3,2,3,0
1511884698600474,0,1,2,3,1,-6,0,-2
1511884698600474,-1,1,-4,-4,0,1,-4,-2
1511884698604484,-1,-3,-2,-1,-1,-4,-1,-4
1511884698604484,0,-1,0,-1,1,-1,-1,4
1511884698605488,-2,-2,1,0,1,2,0,-3
1511884698605488,-1,-1,2,2,-1,-1,-2,-1
1511884698610504,0,-2,-1,-1,-1,-1,0,-2
1511884698610504,0,1,-3,-2,-1,1,-1,-2
1511884698621535,-2,-2,3,5,1,-1,-3,-4
1511884698621535,0,0,-2,-1,-1,-1,-3,-5
1511884698633567,-2,-2,-2,-2,-2,-1,-2,-2
1511884698633567,0,-2,-1,0,1,0,-3,-2
1511884698641592,0,-1,-2,-4,1,4,1,1
1511884698641592,0,-1,6,8,2,0,1,2
1511884698648804,-2,-1,-4,-1,-2,-1,1,0
1511884698648804,-1,-4,-5,-12,-7,-6,-1,2
1511884698665653,-1,0,-5,-2,4,8,2,-1
1511884698665653,-2,-1,-2,-8,-4,-2,-2,-1
1511884698670679,0,0,6,8,6,-4,1,1
1511884698670679,1,-1,3,6,-3,-3,0,-1
1511884698716839,-1,-1,-6,-5,-1,1,1,0
1511884698716839,1,-2,-4,-3,-2,0,-1,0
1511884698717795,-2,-1,2,2,2,0,1,-1
1511884698717795,1,0,2,4,2,0,-3,1
1511884698718813,0,1,5,1,1,1,6,-1
1511884698718813,0,-2,-4,0,0,0,-2,2
1511884698719816,-1,-1,-4,-5,-4,1,2,-1
1511884698719816,-1,-2,-3,-6,-2,-4,-7,0
1511884698729827,0,-1,-1,0,-2,-1,0,-3
1511884698729827,-1,0,5,2,-1,7,6,0
1511884698738851,1,-1,-4,-2,-4,-7,-5,5
1511884698738851,2,0,4,4,0,1,5,-2
1511884698744867,0,-1,1,-2,-4,-6,-7,3
1511884698744867,-3,-1,1,-4,-1,0,1,0
1511884698761068,0,-2,-2,4,4,3,3,-1
1511884698761068,-2,0,-5,-8,-5,0,-1,-3
1511884698768061,-1,-1,-1,5,3,-1,-2,0
1511884698768061,-1,-3,-2,-6,-1,3,5,0
1511884698775072,1,3,1,-5,-3,-4,-9,-4
1511884698775072,-2,2,2,6,-2,0,4,0
1511884698790112,0,-1,-1,-6,-3,4,1,0
1511884698790112,-2,-2,-4,-4,-1,-2,-4,-6
1511884698798132,0,-3,-2,6,2,0,-5,-2
1511884698798132,-2,-2,0,-4,2,2,0,1
1511884698805151,0,-2,4,5,0,-4,-1,0
1511884698805151,-2,-2,-4,0,0,-2,2,0
1511884698821194,0,1,3,-2,0,2,-4,-2
1511884698821194,-3,-1,-5,-3,-2,-2,-3,-4
1511884698828228,-1,-1,-1,2,5,0,0,0
1511884698828228,2,-2,1,-3,-5,-5,-3,2
1511884698835231,-1,0,6,10,7,4,4,1
1511884698835231,0,-1,-7,-8,-7,-8,-4,0
1511884698850271,0,2,0,1,11,20,7,0
1511884698850271,2,-2,-6,2,-8,-12,-5,-2
1511884698858292,-2,1,-3,-9,-11,-10,-3,-1
1511884698858292,-1,0,5,10,2,1,-3,1
1511884698865311,-6,-7,-26,-36,-10,6,4,-4
1511884698865311,-2,9,12,14,15,-4,-10,-5
1511884698881354,0,-5,7,14,0,-2,9,4
1511884698881354,2,1,-2,-4,-7,-17,-15,0
1511884698887373,-1,-3,-3,-7,8,17,9,-2
1511884698887373,1,4,1,-2,-25,-5,-8,-4
1511884698895436,-3,-4,-16,-37,10,10,-1,-3
1511884698895436,1,3,15,29,13,1,5,0
1511884698910614,2,1,12,9,-19,-12,-12,2
1511884698910614,1,-1,-13,-22,13,19,23,4
1511884698917633,-3,1,8,11,-17,-12,-9,-6
1511884698917633,-3,-5,-11,-20,1,15,4,-1
1511884698926684,-2,3,0,15,10,-28,-18,-6
1511884698926684,-3,-1,1,-6,0,21,0,3
1511884698940693,2,0,-1,0,-10,-9,4,4
1511884698940693,-4,-4,-9,-12,13,28,5,-3
1511884698947712,5,3,4,5,-7,-24,-8,4
1511884698947712,0,2,10,17,-2,-16,-6,-1
1511884698954731,4,4,4,12,9,11,8,3
1511884698954731,-3,-11,-3,0,4,22,-5,-3
1511884698969770,-2,0,-5,-13,-20,2,7,-6
1511884698969770,-1,-4,-7,-5,12,-22,-14,-2
1511884698977796,-1,0,0,-2,3,23,-6,0
1511884698977796,3,3,7,6,-14,-40,-1,2
1511884698986816,2,-4,0,4,-3,4,3,-1
1511884698986816,-3,-3,-4,-2,-4,-7,-2,-3
1511884699000854,-3,0,0,-2,-4,1,-4,-4
1511884699000854,0,2,-4,-6,5,3,0,3
1511884699007872,-3,-2,1,1,2,-4,-5,-4
1511884699007872,0,-2,2,-1,-9,2,2,-2
1511884699014890,2,-1,0,4,18,1,-3,0
1511884699014890,10,2,-1,-4,-7,-2,8,4
1511884699029934,-10,-3,-2,3,9,7,-1,-5
1511884699029934,-8,2,3,5,0,5,2,-12
1511884699037955,-4,-3,-6,-9,-9,-3,-2,3
1511884699037955,-2,1,-3,-1,0,-6,0,7
1511884699046980,14,-1,2,0,-4,-6,1,12
1511884699046980,7,1,1,2,4,14,6,11
1511884699061200,-7,-8,-6,-2,-2,0,-2,-30
1511884699061200,-11,3,4,1,-2,-3,-8,-7
1511884699068179,10,4,-1,-3,-6,7,8,13
1511884699068179,2,-3,-1,5,3,-11,-16,8
1511884699075239,7,4,-2,-2,5,9,10,1
1511884699075239,-4,-3,-2,1,6,5,-8,-4
1511884699090236,-5,1,1,-2,-13,-8,-6,-9
1511884699090236,2,-4,-2,0,5,1,-1,3
1511884699098278,-3,2,4,4,-6,-3,6,2
1511884699098278,2,-2,1,-2,1,-6,-2,-2
1511884699106349,-6,-2,-1,-1,1,-2,-2,-10
1511884699106349,-1,0,0,3,-2,-4,-3,2
1511884699121393,1,-4,-5,-10,-9,-7,0,11
1511884699121393,0,0,-1,2,-2,-3,7,-6
1511884699127404,4,1,2,0,5,8,-3,-6
1511884699127404,-4,-3,-3,-2,0,-2,-9,-4
1511884699135426,11,2,0,1,1,-6,2,0
1511884699135426,-7,-3,-2,-1,-5,5,3,5
1511884699150465,-15,7,1,4,8,1,1,-25
1511884699150465,12,-4,6,2,0,6,11,9
1511884699157484,-3,1,-5,-1,-3,-5,-7,-5
1511884699157484,8,-4,-1,0,-2,-2,4,7
1511884699166508,6,1,-1,0,4,3,-1,13
1511884699166508,-11,-1,-3,-3,-6,-1,2,-14
1511884699180545,6,1,1,-1,2,-2,-8,5
1511884699180545,-1,0,0,-2,-2,-4,2,6
1511884699187564,-8,-4,-1,0,2,0,-1,-8
1511884699187564,10,1,-2,-4,-2,3,1,7
1511884699195585,-5,-2,0,2,4,-1,-5,-8
1511884699195585,-1,0,-3,-2,-4,0,-8,-11
1511884699210628,0,-3,1,3,2,-3,2,6
1511884699210628,2,2,1,4,1,3,8,1
1511884699217643,-6,-1,-3,-8,-2,-3,-1,12
1511884699217643,4,0,-1,5,4,2,3,1
1511884699226668,8,-5,-5,-5,-5,-2,-5,1
1511884699226668,-28,-6,-3,-3,-1,1,-1,-21
1511884699240706,5,-2,0,1,-1,-3,-14,2
1511884699240706,-7,-1,1,-1,-4,-4,-4,-8
1511884699247896,-2,-2,-3,-4,-1,0,0,9
1511884699247896,15,-7,-6,-4,-2,-4,-10,14
1511884699254996,1,-5,2,2,1,-2,6,-5
1511884699254996,12,5,1,-1,-2,-1,3,19
1511884699269910,-10,2,3,4,4,4,-6,-10
1511884699269910,6,4,4,1,0,3,9,-20
1511884699277932,4,-5,-8,-5,-1,-2,3,22
1511884699277932,2,-7,-4,-4,-3,1,2,-4
1511884699286979,-2,-5,-2,-1,-2,3,4,-3
1511884699286979,-7,6,2,-1,1,2,-1,-9
1511884699300997,-1,2,-1,0,-2,-3,3,1
1511884699300997,-1,2,1,2,1,0,2,-4
1511884699308013,9,-2,1,-5,-3,-1,-1,12
1511884699308013,-13,-4,-5,-4,-5,-10,-11,-9
1511884699323051,-6,1,0,5,8,9,9,-3
1511884699323051,-10,-8,-7,-2,-2,0,10,-2
1511884699330071,4,4,5,4,2,5,2,1
1511884699330071,6,5,-6,1,2,5,11,9
1511884699338223,-18,1,2,-3,-1,-2,9,-9
1511884699338223,13,-7,-1,-4,-2,0,0,4
1511884699347113,-4,-11,-5,2,2,-2,-1,-22
1511884699347113,-11,7,-5,-12,-2,-2,0,30
1511884699361207,25,14,4,8,3,6,8,0
1511884699361207,-20,-1,-9,-10,-6,-8,-6,-17
1511884699367266,11,9,0,-10,-4,-3,-8,15
1511884699367266,-6,-7,-1,5,2,7,-3,-11
1511884699383306,2,7,12,4,2,-3,-9,-8
1511884699383306,6,7,8,17,4,5,6,4
1511884699390328,3,10,15,9,7,5,5,0
1511884699390328,2,-6,-8,-3,-8,-11,-12,-10
1511884699397675,-9,-8,-13,-23,-12,-2,-5,6
1511884699397675,14,9,8,6,6,-2,-4,1
1511884699406508,-9,-3,1,10,16,4,-2,-2
1511884699406508,3,-11,-4,-3,-10,-2,0,-2
1511884699420641,-1,2,-6,-14,1,3,-5,-2
1511884699420641,-16,-12,2,8,0,-4,-13,-14
1511884699427565,-4,2,-9,-7,-12,-3,-6,8
1511884699427565,18,7,9,-3,0,5,-1,6
1511884699443608,-8,-14,0,9,5,1,1,-6
1511884699443608,3,6,-3,-10,11,11,9,9
1511884699450626,4,1,2,4,-7,-8,-5,4
1511884699450626,7,4,4,-3,-4,-6,-16,-8
1511884699457874,-10,-5,-5,-2,2,4,20,-5
1511884699457874,4,11,4,13,9,5,-4,-4
1511884699466898,2,-13,2,19,49,2,22,8
1511884699466898,11,14,5,-10,-11,10,12,9
1511884699480936,-4,-12,-3,-6,-19,1,0,11
1511884699480936,2,7,2,1,-10,-21,-17,-23
1511884699487955,-4,-2,-11,-17,9,25,12,-1
1511884699487955,-1,-2,8,18,2,-22,-12,4
1511884699502994,0,6,4,3,1,13,-6,-3
1511884699502994,-11,-8,-8,-8,-17,-13,-10,-4
1511884699510016,0,3,-5,-13,-19,-3,7,-7
1511884699510016,-6,-3,1,-3,11,6,-33,-10
1511884699518207,0,-2,0,5,-10,-16,19,-1
1511884699518207,-7,-8,-2,-1,4,9,13,14
1511884699527059,-1,-7,2,0,-8,-7,-15,4
1511884699527059,-2,6,-3,1,13,9,14,-18
1511884699541096,-10,-11,-2,0,-2,-3,-10,12
1511884699541096,0,4,5,3,5,8,0,-7
1511884699548147,-2,-2,-1,-8,-9,-11,-14,-2
1511884699548147,-5,1,-4,-1,-6,-8,1,-1
1511884699563186,0,-3,-2,2,3,-14,-17,-9
1511884699563186,4,4,2,-2,3,27,8,-3
1511884699570208,-3,11,-2,-7,-9,-15,-3,8
1511884699570208,-2,-11,0,0,0,-4,1,12
1511884699578368,5,-4,-3,-1,4,-5,-8,-3
1511884699578368,-6,-11,-2,1,-15,-8,-3,4
1511884699592388,1,-4,-1,-3,-4,-5,-21,-17
1511884699592388,0,-4,-4,-4,5,12,50,15
1511884699601406,4,0,3,1,3,1,-7,-8
1511884699601406,-4,-4,-3,-3,-3,-9,-1,-5
1511884699607308,3,3,2,4,-5,-1,-6,8
1511884699607308,0,1,-2,-1,0,-1,0,4
1511884699623347,-13,5,1,5,3,-1,-1,-38
1511884699623347,-6,-5,-4,-3,2,3,2,8
1511884699630365,2,8,4,6,-2,-1,1,4
1511884699630365,-14,-19,-9,-4,-5,1,1,-5
1511884699637384,15,7,-2,-7,-4,-11,-16,-1
1511884699637384,-3,5,3,-5,4,5,4,-6
1511884699652424,-3,-8,-4,4,3,10,9,2
1511884699652424,5,6,4,2,-1,-1,1,6
1511884699661448,-1,-7,-1,3,5,8,7,5
1511884699661448,3,-2,0,-1,2,-2,10,16
1511884699667463,12,-3,-1,2,-3,-8,-8,18
1511884699667463,-4,2,-2,-1,-1,-1,-7,-6
1511884699697544,6,6,0,-1,1,-7,-7,4
1511884699697544,0,-3,-1,-4,-5,-1,8,-3
1511884699708573,1,-5,-4,-4,2,6,-5,8
1511884699708573,-2,1,-1,1,-3,3,8,9
1511884699713586,0,2,-2,0,-2,-12,-16,4
1511884699713586,1,0,-1,0,-4,-5,-7,-9
1511884699714589,-8,0,-1,-2,-2,-6,-6,2
1511884699714589,-4,-3,-1,-1,-3,3,14,2
1511884699729629,0,1,1,-1,3,11,10,7
1511884699729629,4,3,-1,-2,-5,-1,-5,0
1511884699730632,-4,-1,-1,7,8,-4,5,-8
1511884699730632,3,3,1,-5,-1,-3,-3,-8
1511884699743810,-5,0,-1,1,-1,9,8,9
1511884699743810,5,-1,-2,-1,1,-13,-11,-5
1511884699750084,0,2,-1,-3,-8,-2,1,-1
1511884699750084,-12,3,2,4,-2,-4,-11,-1
1511884699766106,5,-9,2,1,-1,3,9,7
1511884699766106,5,17,-3,-4,2,-1,-4,-11
1511884699773026,-18,-8,-4,-3,-5,-9,-21,-26
1511884699773026,16,6,11,9,6,9,9,15
1511884699789077,14,2,1,4,2,-4,-5,10
1511884699789077,-11,-14,-2,2,-1,0,-1,-1
1511884699791081,0,0,-10,-7,-4,3,21,-15
1511884699791081,2,1,-9,-14,-4,-2,-13,2
1511884699803150,-5,3,11,8,2,3,-1,-8
1511884699803150,10,10,21,28,19,4,3,16
1511884699810132,0,6,15,25,3,2,2,-1
1511884699810132,-8,-16,-22,-16,-20,-11,-3,-12
1511884699826210,1,11,-3,-27,-5,-1,0,1
1511884699826210,-3,-10,-26,-39,-20,-4,5,1
1511884699833217,2,7,15,0,3,2,1,1
1511884699833217,3,13,26,46,21,-4,-9,-9
1511884699849419,-11,-13,-25,-27,-3,1,-5,-9
1511884699849419,3,0,-6,-10,-12,-2,-2,7
1511884699851236,0,-8,-12,-1,2,13,9,0
1511884699851236,-1,-3,-15,-58,-27,-16,-4,1
1511884699863386,0,6,4,16,6,1,3,-1
1511884699863386,0,-5,14,21,11,-6,-2,17
1511884699870393,-2,-3,-1,0,3,5,27,6
1511884699870393,3,0,5,22,21,21,9,0
1511884699886329,-1,0,2,10,0,-7,-9,-6
1511884699886329,-16,-5,-3,-9,-15,-3,-8,-30
1511884699892347,4,-1,1,1,3,3,21,18
1511884699892347,-1,0,-4,2,3,3,3,-4
1511884699909390,0,-5,-3,-1,-2,1,13,1
1511884699909390,-2,-2,-1,4,0,5,-1,-6
1511884699910392,-3,-3,-6,-12,-6,-2,-9,-6
1511884699910392,-5,-5,-6,-8,-3,-4,-5,-4
1511884699922424,-2,-4,3,11,-2,2,-8,0
1511884699922424,2,0,-1,3,8,-2,-9,1
1511884699931449,-4,-9,-9,-16,-11,-7,-12,2
1511884699931449,4,1,2,3,4,-2,-1,2
1511884699945486,-6,3,0,-2,-10,-1,-6,-9
1511884699945486,2,1,-1,-1,6,3,9,9
1511884699952504,1,2,-1,-7,6,-3,-4,-3
1511884699952504,-4,1,8,3,-16,-3,-7,-7
1511884699968548,0,-6,-5,0,-2,-3,3,1
1511884699968548,3,-4,-8,-7,9,2,-2,-2
1511884699970554,0,1,7,8,15,4,6,0
1511884699970554,0,0,-2,1,0,-10,-26,-5
1511884699982584,3,1,1,-5,-10,2,8,3
1511884699982584,4,3,3,-1,-3,-5,-4,12
1511884699991608,-1,0,-1,0,-4,4,-2,-1
1511884699991608,-3,-3,-3,0,3,-1,9,-1
1511884700005768,1,1,-1,1,4,1,-8,3
1511884700005768,-2,1,-2,-3,2,8,-2,-4
1511884700012667,3,1,-2,-1,-9,-9,0,-6
1511884700012667,-1,-2,1,0,3,0,-2,2
1511884700028748,-11,1,-3,0,7,2,-1,-16
1511884700028748,4,-4,2,-1,-6,-1,2,0
1511884700030731,-13,-24,-8,-3,1,-2,-13,6
1511884700030731,18,18,1,-1,1,-3,-1,8
1511884700042748,-11,-5,-5,-5,-4,-9,-16,-11
1511884700042748,20,8,3,2,2,1,2,31
1511884700051769,1,8,4,-2,-3,0,-1,-11
1511884700051769,-6,-14,-8,-4,-6,-8,-11,8
1511884700065809,5,1,5,0,1,-2,14,32
1511884700065809,-5,1,-4,-1,-4,3,9,-12
1511884700072868,5,2,-2,-5,-11,-8,-10,12
1511884700072868,-2,-3,0,3,7,3,9,-2
1511884700088994,5,5,-1,-6,-4,1,5,-7
1511884700088994,-9,-6,0,1,-3,-6,-14,-10
1511884700090920,-2,-3,-4,-6,-12,-9,-4,10
1511884700090920,-1,-2,2,4,12,6,5,6
1511884700102908,0,-3,1,3,1,-2,-11,5
1511884700102908,-2,-1,-2,-1,3,-2,11,-4
1511884700111928,12,5,-1,0,1,2,0,-7
1511884700111928,-5,0,2,-1,-5,0,0,-12
1511884700125970,-28,6,-1,2,0,-3,-10,-36
1511884700125970,13,7,0,-1,-3,-1,-2,21
1511884700132987,-6,9,6,4,0,4,3,-14
1511884700132987,-5,-13,-1,-1,-2,1,-7,-1
1511884700149045,15,1,-6,-2,1,1,3,-3
1511884700149045,-14,-16,-7,0,1,3,10,-16
1511884700151034,0,0,0,-2,0,-1,-5,0
1511884700151034,15,13,5,-2,-3,-4,1,19
1511884700163068,22,-15,-1,1,0,2,2,23
1511884700163068,-28,-10,-4,-2,-1,-2,-11,-25
1511884700172135,0,2,1,0,2,2,1,-8
1511884700172135,-4,-1,-4,-3,-5,-6,4,4
1511884700186129,18,4,3,0,-1,-4,-8,24
1511884700186129,2,7,0,0,0,-3,-2,5
1511884700193170,-13,-13,-3,-4,-2,-5,-1,6
1511884700193170,26,7,4,4,2,8,7,-17
1511884700209187,-13,6,3,0,1,0,1,-8
1511884700209187,-13,-2,-2,-1,-2,-6,-9,0
1511884700210190,29,19,3,-2,-4,1,6,27
1511884700210190,-40,-33,-10,1,3,4,-3,-6
1511884700223226,-3,6,-1,2,7,12,15,-11
1511884700223226,-4,2,-1,-4,-4,-3,-14,-3
1511884700232250,-1,-6,-6,-1,-1,3,1,-12
1511884700232250,7,3,2,1,0,-3,-7,0
1511884700246329,-1,-8,-1,-1,-1,5,5,-8
1511884700246329,-4,-6,-2,-1,-1,4,6,1
1511884700252309,7,19,4,2,-3,-2,-8,-9
1511884700252309,-11,-18,-12,-7,5,8,9,-4
1511884700269386,-12,-5,2,0,-1,-10,-7,-4
1511884700269386,8,5,3,3,-1,-2,4,-6
1511884700270351,-9,-25,-1,2,-3,-14,-13,6
1511884700270351,4,10,0,-1,-3,0,1,2
1511884700282576,1,2,-6,-12,-12,2,8,19
1511884700282576,6,3,6,2,-5,-4,-3,-13
1511884700291409,-14,-4,0,10,-24,-6,-11,-15
1511884700291409,-8,4,-6,-15,25,4,2,-3
1511884700305645,3,-12,1,6,-7,-17,-15,4
1511884700305645,-1,3,-15,-35,5,8,8,0
1511884700312574,1,6,5,18,8,5,15,-1
1511884700312574,-3,-2,7,11,-25,-12,-18,-14
1511884700329663,-9,3,3,-12,-1,-5,2,-12
1511884700329663,5,-6,-1,21,21,13,1,3
1511884700330523,-8,-8,-14,-24,-1,-3,0,-9
1511884700330523,6,7,2,15,37,14,22,18
1511884700342541,6,4,4,8,-7,-10,-7,-1
1511884700342541,2,-3,10,14,-7,-3,-4,0
1511884700351567,-2,7,1,-4,5,6,3,-1
1511884700351567,2,6,6,2,-17,-3,7,-1
1511884700365769,-11,-8,-8,-4,1,6,0,-3
1511884700365769,-1,-1,-10,-20,-7,-5,-10,10
1511884700372621,3,-4,-11,-12,-6,-7,1,-1
1511884700372621,0,-1,-1,-3,-4,-2,-6,-12
1511884700388667,0,6,5,13,6,1,2,-3
1511884700388667,1,-2,0,4,-8,-1,-5,-1
1511884700390670,-5,-7,7,1,16,14,20,2
1511884700390670,-5,-5,-10,-14,-23,-6,-8,-2
1511884700402882,3,5,-6,-7,-2,-2,5,-7
1511884700402882,5,4,5,10,9,12,9,3
1511884700411725,-2,0,2,3,-3,-2,-1,-6
1511884700411725,1,-2,2,0,-6,-3,-8,-2
1511884700425861,-2,1,5,7,22,10,7,-1
1511884700425861,3,2,0,3,3,-3,2,2
1511884700432782,1,4,-2,-2,4,-8,-9,10
1511884700432782,-1,1,-5,-6,-9,-2,2,0
1511884700449004,-4,-5,0,0,-4,-5,-8,-2
1511884700449004,8,4,1,-2,-4,-4,-3,9
1511884700450831,-2,-18,0,3,7,7,5,-4
1511884700450831,-3,2,2,2,-1,-7,-10,1
1511884700463086,0,4,-1,-1,-1,4,9,1
1511884700463086,2,1,-2,-3,-1,-3,-2,-20
1511884700472111,-4,-1,2,-2,-3,6,8,3
1511884700472111,2,10,-4,2,2,2,1,-7
1511884700486175,2,-10,-7,-5,-2,-5,-12,1
1511884700486175,-3,7,7,-2,-4,-2,0,-2
1511884700493166,-3,-6,-7,-3,-1,0,-6,-11
1511884700493166,-8,-11,6,3,1,-1,2,-2
1511884700509209,-1,3,-3,-2,3,15,6,-1
1511884700509209,-3,-5,-8,-4,-6,-9,2,3
1511884700510238,-1,7,7,3,0,-5,-11,0
1511884700510238,3,-1,-5,-3,1,3,3,3
1511884700522270,1,0,1,-1,-4,-4,1,1
1511884700522270,-3,-10,-7,-7,1,2,1,-3
1511884700531297,1,2,-1,-2,3,2,-1,4
1511884700531297,1,3,9,4,-1,-5,-4,-2
1511884700546328,0,4,3,1,-8,-5,-4,0
1511884700546328,-4,-3,-1,2,10,5,14,5
1511884700552350,-1,1,-5,-9,-8,-5,-5,-4
1511884700552350,2,-5,-7,2,1,-4,2,6
1511884700568399,-5,-8,-7,-9,-7,-5,-5,-9
1511884700568399,1,4,5,6,-2,-3,-1,5
1511884700575413,2,-1,2,0,-1,1,3,-1
1511884700575413,-2,-2,5,2,4,2,5,-4
1511884700582430,-1,3,-4,-2,-3,-7,-8,-1
1511884700582430,3,-18,-8,-5,-4,-4,-6,0
1511884700591428,-4,12,3,3,3,2,3,-2
1511884700591428,-2,3,-2,-4,-4,5,2,-3
1511884700605492,-1,-3,0,7,1,-6,-4,1
1511884700605492,5,5,0,-5,-2,3,3,3
1511884700612511,-4,1,0,-2,-1,-5,-4,-1
1511884700612511,-1,-2,-5,-1,-2,-4,-2,-6
1511884700628527,0,-1,-1,1,1,-4,-9,4
1511884700628527,-4,1,4,-3,-3,8,16,3
1511884700635570,2,-3,0,2,2,-4,-9,0
1511884700635570,-3,-1,-3,-2,-3,-2,-3,1
1511884700642591,0,-1,1,2,11,7,8,1
1511884700642591,-3,-2,1,2,-5,-8,-15,-3
1511884700651587,3,-3,-4,0,2,3,12,2
1511884700651587,1,-1,1,1,-1,-2,-2,3
1511884700665635,-1,-3,2,-1,-9,3,2,-11
1511884700665635,0,-1,-2,-2,0,-4,-7,0
1511884700672644,-1,0,2,8,11,4,2,3
1511884700672644,0,1,-5,-6,-4,-3,-2,3
1511884700688803,0,0,-1,3,1,3,4,-4
1511884700688803,-4,-3,-5,-8,-6,-2,-3,2
1511884700695806,2,-2,-2,-3,-7,-3,-5,1
1511884700695806,1,-1,-2,0,3,2,0,6
1511884700710984,2,1,4,-2,-9,0,1,0
1511884700710984,-1,-1,-2,1,4,1,-2,-1
1511884700711987,-3,-3,-5,-2,-3,-5,3,0
1511884700711987,-4,-1,-4,-6,-2,-6,-14,-6
1511884700727030,0,1,-1,-6,2,-3,1,5
1511884700727030,0,5,8,12,-1,-8,-7,-1
1511884700733019,0,-4,-9,-8,-3,1,1,-3
1511884700733019,-2,-1,3,-4,-2,6,0,-2
1511884700748086,0,1,-3,-2,-5,-3,-4,1
1511884700748086,-3,0,5,8,7,4,2,-3
1511884700755108,-1,-1,-5,3,-3,-2,-2,0
1511884700755108,-1,0,-7,-12,-4,1,1,-9
1511884700771121,2,1,2,-5,-1,1,-3,4
1511884700771121,0,-1,2,0,0,-2,4,1
1511884700772124,1,1,6,5,-1,-3,-4,-3
1511884700772124,-3,-3,2,9,4,1,2,-5
1511884700786161,2,-3,1,0,1,4,1,2
1511884700786161,-2,-4,-5,-2,-8,0,2,-4
1511884700792201,0,0,-3,-3,0,-3,0,-2
1511884700792201,0,2,1,-3,-4,-8,0,9
1511884700807216,-3,0,-1,0,10,10,9,-4
1511884700807216,1,-1,-2,0,-7,-1,-5,-1
1511884700815238,0,0,2,-1,3,4,-5,4
1511884700815238,-1,0,7,6,1,1,-3,-8
1511884700831280,0,1,-3,0,-1,-3,1,3
1511884700831280,0,-2,-5,-7,-4,0,3,-2
1511884700831280,-1,-5,-6,-11,-5,-7,-16,-3
1511884700831280,0,1,-7,-4,1,5,9,0
1511884700846320,0,1,1,1,-6,-2,-6,1
1511884700846320,-2,0,5,9,6,1,-4,-4
1511884700852337,1,1,4,-3,-4,0,6,-1
1511884700852337,-2,-1,2,3,1,-2,1,1
1511884700869381,-1,4,-7,-3,3,-4,1,-1
1511884700869381,-3,-9,-16,-19,-7,-6,0,3
1511884700875398,-1,3,5,4,1,6,6,-1
1511884700875398,1,3,9,10,3,6,0,0
1511884700890464,-1,0,0,-3,-4,-1,0,-4
1511884700890464,3,1,4,1,5,0,-3,-1
1511884700891440,-1,0,-2,-1,-5,2,2,0
1511884700891440,1,-2,-2,-1,1,-7,-9,2
1511884700906528,-2,-6,2,4,0,2,-2,-2
1511884700906528,-2,4,-2,0,1,1,-3,-2
1511884700912496,0,-3,-4,-5,-2,1,2,-5
1511884700912496,3,0,-1,-2,0,-2,1,10
1511884700927536,-1,-5,-5,-6,-4,-3,-1,2
1511884700927536,-1,1,1,0,4,-4,-6,-6
1511884700935672,-1,0,0,1,0,1,0,-1
1511884700935672,-3,-4,-1,0,0,-1,-5,-3
1511884700950597,0,-2,-4,-3,1,-4,-2,5
1511884700950597,0,-1,6,4,-1,4,3,2
1511884700951600,-2,-1,1,3,-3,-7,-7,-1
1511884700951600,-3,-3,-3,-3,6,-4,4,0
1511884700966641,-2,-2,-3,-1,0,9,9,0
1511884700966641,1,4,2,1,-3,-11,-11,0
1511884700972656,0,-1,-4,-2,-1,0,-7,-3
1511884700972656,2,-2,-2,-5,-6,-1,0,-1
1511884700987696,0,-1,-1,-2,0,-2,0,-2
1511884700987696,-3,-2,0,2,1,4,4,2
1511884700995718,-2,1,2,4,2,-3,-2,-1
1511884700995718,-1,1,1,3,-1,1,-1,-4
1511884701010760,2,-3,1,4,0,-2,-4,2
1511884701010760,-4,-3,-6,-9,-4,-4,1,-3
1511884701011761,-1,2,-1,-4,4,5,2,1
1511884701011761,-2,-2,-2,-4,-3,-3,-2,-1
1511884701026801,-1,-3,0,0,-2,-1,0,-1
1511884701026801,1,2,-1,3,-1,0,-2,-2
1511884701032942,-2,-3,-1,1,1,0,-5,-2
1511884701032942,0,4,1,0,-2,0,12,-3
1511884701047954,-1,-2,1,-2,0,-9,-15,-5
1511884701047954,-3,-4,-3,-6,-3,-4,-2,0
1511884701054876,1,0,-2,-3,-1,-1,-2,2
1511884701054876,0,1,2,2,0,-2,-9,-2
1511884701071095,-2,0,1,0,-5,-2,3,-1
1511884701071095,-1,3,5,1,-2,-2,-4,-1
1511884701071921,-2,-7,3,7,4,-2,2,0
1511884701071921,0,-5,-19,-16,3,2,0,0
1511884701086961,-1,-2,2,0,1,0,1,-3
1511884701086961,-1,2,-6,-8,-9,-1,-1,-1
1511884701092993,0,0,4,4,-1,1,3,1
1511884701092993,1,-1,5,5,0,1,-5,-4
1511884701108018,-1,-1,-2,-1,4,1,-1,-3
1511884701108018,1,0,0,0,-3,3,2,-1
1511884701115040,0,-4,-1,3,6,-2,1,0
1511884701115040,-2,-4,-2,-7,-2,-1,-1,0
1511884701131078,2,3,-3,-2,-1,3,1,0
1511884701131078,2,0,1,-1,-1,-5,-1,-1
1511884701132080,0,0,-1,0,-2,1,0,-3
1511884701132080,0,1,-1,1,1,-4,-4,2
1511884701147125,0,1,-3,-7,-3,-1,2,-3
1511884701147125,-1,-2,-3,-1,-1,-5,-6,-3
1511884701153138,1,-1,-3,-5,-5,-5,-5,1
1511884701153138,0,0,3,5,2,6,12,3
1511884701168245,2,4,10,13,4,5,6,0
1511884701168245,1,1,-7,-11,-2,-3,-3,3
1511884701175367,-2,-7,-11,-15,-8,-2,-1,-5
1511884701175367,-1,-1,-4,-2,-5,-4,-5,-2
1511884701190545,1,0,-1,1,2,-4,3,5
1511884701190545,-3,-4,7,12,8,0,1,-1
1511884701191545,1,2,4,5,1,13,2,-1
1511884701191545,0,-2,-8,-8,-6,-1,4,2
1511884701206586,-4,0,-2,-3,2,-2,1,0
1511884701206586,1,-3,-2,0,-1,-6,-6,0
1511884701212600,-2,2,3,-1,2,1,4,1
1511884701212600,0,1,4,3,2,0,0,0
1511884701227642,-2,0,-2,-2,0,1,0,-4
1511884701227642,1,1,1,3,0,4,2,-3
1511884701235728,-1,0,-3,-2,-3,-7,-3,8
1511884701235728,1,3,2,1,-2,-2,-8,-3
1511884701250725,-2,-5,-2,-3,-5,4,6,1
1511884701250725,0,-1,-1,0,3,6,3,5
1511884701251705,-1,2,-2,-1,-4,-8,-9,-9
1511884701251705,1,-1,-1,1,-1,-2,-2,0
1511884701266930,0,-3,4,1,-2,-7,-11,2
1511884701266930,0,-2,-6,-2,-1,8,3,-2
1511884701272945,-3,-3,-4,-7,-1,0,4,0
1511884701272945,-1,-7,-5,-5,-3,1,-3,0
1511884701287973,0,-1,-2,-1,-5,-4,-3,-2
1511884701287973,1,1,5,0,-1,-2,-4,-4
1511884701295039,0,2,5,6,6,-2,-3,0
1511884701295039,-2,1,3,4,1,1,1,-3
1511884701311128,-1,-4,-3,-3,-3,-4,-6,0
1511884701311128,-1,-4,-6,-7,-4,3,4,0
1511884701312111,1,-1,-4,-6,-7,-1,-2,0
1511884701312111,1,3,4,3,1,-1,1,-3
1511884701327125,0,0,2,2,6,3,0,1
1511884701327125,-2,2,1,0,-8,-5,-4,0
1511884701333151,-1,-3,-4,-2,5,-2,-4,-4
1511884701333151,1,0,2,2,8,5,8,7
1511884701348274,-1,-1,-3,1,-2,1,2,-2
1511884701348274,1,-2,0,-2,-1,-2,-3,-4
1511884701355255,2,2,1,-1,-6,12,10,2
1511884701355255,-2,0,-2,-2,-4,-10,-13,-1
1511884701371362,0,-4,-4,-6,3,1,2,-1
1511884701371362,1,2,4,4,4,-2,0,2
1511884701372244,3,3,1,4,2,-1,2,0
1511884701372244,-3,-4,-5,-5,-3,-1,3,-2
1511884701386481,-1,2,-1,-2,-3,-2,-4,0
1511884701386481,-2,-3,-3,-5,0,6,6,0
1511884701392476,1,1,2,6,2,-9,-12,-1
1511884701392476,-2,0,3,4,1,1,0,-4
1511884701407517,0,3,-3,-3,-4,-4,-7,-2
1511884701407517,0,-2,-2,-2,0,1,8,-1
1511884701423555,-1,0,-5,-5,-2,0,2,3
1511884701423555,-4,-5,-2,-1,-2,-1,3,-6
1511884701430660,2,-1,2,7,4,-1,-4,-2
1511884701430660,-2,0,2,0,-3,-2,0,1
1511884701431643,-3,-4,0,-2,1,0,1,-4
1511884701431643,1,1,-3,-1,-3,-2,-2,7
1511884701446699,-3,-4,2,-2,-3,1,3,-3
1511884701446699,-1,-2,-6,-4,6,3,1,3
1511884701452703,1,2,6,4,-5,-2,-2,-1
1511884701452703,0,-3,-3,-1,5,2,1,7
1511884701468891,-3,-1,-2,0,6,-4,-13,-5
1511884701468891,-1,-1,-5,-11,-9,-4,2,0
1511884701475760,1,0,-1,-1,0,1,-4,0
1511884701475760,1,1,6,1,-1,4,2,-6
1511884701489799,0,2,0,2,-3,-3,-3,-1
1511884701489799,0,2,1,5,4,9,5,2
1511884701497823,-3,-1,-2,-1,-1,5,11,-3
1511884701497823,0,2,3,-1,-5,-17,-18,0
1511884701506844,-3,0,-4,-5,-1,7,3,-21
1511884701506844,3,-3,0,0,1,-7,-8,20
1511884701512862,-3,1,-2,1,0,6,6,-13
1511884701512862,-1,-1,0,0,1,-2,-12,-5
1511884701527941,-1,0,-2,-3,-1,8,12,3
1511884701527941,0,0,1,3,0,-3,-3,-2
1511884701542942,1,-4,-3,0,-6,-5,2,6
1511884701542942,-1,-1,-1,-3,2,1,-1,0
1511884701549962,2,0,0,1,3,0,-1,5
1511884701549962,-3,-2,-1,1,-10,0,-1,-7
1511884701557983,2,-2,-1,2,9,-3,-5,6
1511884701557983,0,0,-2,-1,-3,-4,-5,-7
1511884701567194,0,0,-1,1,-4,4,6,9
1511884701567194,1,0,1,-1,-1,-2,-5,-3
1511884701572205,-1,0,0,-8,-10,-1,5,-1
1511884701572205,0,1,0,1,-5,-2,2,-2
1511884701587239,-2,-7,-6,-5,5,2,2,3
1511884701587239,-1,1,-5,-6,-4,-4,-2,2
1511884701595266,-2,-2,-3,-5,0,-8,-10,-2
1511884701595266,-1,2,1,-2,0,2,3,1
1511884701610305,0,2,3,12,5,0,1,-1
1511884701610305,0,2,4,8,1,0,-4,-10
1511884701618353,-1,2,-3,0,0,0,3,-1
1511884701618353,-2,1,-3,-3,-1,-1,-1,2
1511884701633491,-2,-1,-1,-3,-5,-3,-9,0
1511884701633491,-3,0,-2,-1,3,-2,-2,-7
1511884701634377,1,0,-2,-4,-3,-2,-3,2
1511884701634377,-2,-1,0,1,-3,4,0,-1
1511884701648412,2,1,-1,-5,-4,-6,-4,-5
1511884701648412,-2,-3,-3,-1,3,3,3,-1
1511884701655538,-2,0,1,-3,-4,-1,-4,1
1511884701655538,-1,-1,-2,-3,-5,3,2,0
1511884701670620,1,0,-1,2,7,2,4,2
1511884701670620,1,1,5,0,1,0,-3,-1
1511884701677530,1,0,-5,2,3,-2,-2,-2
1511884701677530,-1,-2,-3,-6,-5,9,4,-1
1511884701700587,-1,1,0,-5,-7,-7,4,0
1511884701700587,-3,-5,-2,2,-2,-1,-1,-3
1511884701701590,0,-1,-2,-1,-2,-4,-5,1
1511884701701590,2,0,-5,-2,7,-1,-1,0
1511884701709615,2,6,10,7,-1,-1,-2,2
1511884701709615,-1,-3,0,-1,-7,-3,-4,-5
1511884701715631,2,0,-5,-3,-1,0,5,-2
1511884701715631,1,-2,-4,-5,-3,-2,5,1
1511884701730671,-1,0,-2,-3,-4,1,-4,-1
1511884701730671,0,0,1,5,4,1,3,-1
1511884701737910,-3,-2,6,8,5,1,-5,-3
1511884701737910,1,-1,-1,-4,-3,0,0,6
1511884701753937,-3,0,-2,-6,-5,4,3,-5
1511884701753937,0,1,1,0,4,-5,-7,4
1511884701753937,1,-1,2,2,-3,1,0,1
1511884701753937,-2,-1,-1,-3,1,1,-1,-2
1511884701768993,-1,-2,1,1,1,-7,-5,4
1511884701768993,1,2,-8,-7,-2,15,6,-1
1511884701774908,-1,-4,-4,-2,-8,-5,3,0
1511884701774908,-2,1,1,7,7,-5,-5,-1
1511884701789953,1,-1,-1,-8,-8,1,1,3
1511884701789953,-1,0,3,10,14,3,3,-2
1511884701798085,0,1,1,0,0,2,2,-1
1511884701798085,-1,-1,1,-1,-7,-2,0,-1
1511884701821136,0,0,-1,4,0,-5,-7,1
1511884701821136,1,-1,-1,-2,0,-4,-2,3
1511884701822136,-3,0,0,-6,-6,-1,0,-3
1511884701822136,0,-1,2,13,4,2,1,-2
1511884701829057,-3,-5,-10,-16,-7,-4,-9,-3
1511884701829057,0,0,0,-1,-7,2,13,3
1511884701835314,-1,-3,2,4,7,4,2,-3
1511884701835314,2,2,8,8,-4,-6,-2,1
1511884701850238,0,-1,-7,-4,8,2,-4,1
1511884701850238,-4,-7,-4,0,8,-5,-7,-4
1511884701857258,0,2,2,-4,-4,0,-1,3
1511884701857258,0,0,-3,3,1,-1,-3,-8
1511884701873304,0,-2,10,11,0,0,4,2
1511884701873304,-2,-2,-5,-8,-11,-7,-2,1
1511884701874305,0,-2,-14,-17,4,3,-2,1
1511884701874305,-3,-1,-6,-17,-11,-2,0,0
1511884701889341,-2,-1,2,14,3,3,-1,-1
1511884701889341,3,3,3,-9,0,-5,0,-1
1511884701895481,1,-1,6,14,4,1,-1,3
1511884701895481,-1,1,-2,-6,0,1,2,-1
1511884701910396,1,-4,1,17,10,0,-1,0
1511884701910396,-3,-3,-5,-15,-6,-1,-1,-2
1511884701917414,1,4,6,1,-9,0,2,0
1511884701917414,0,0,-1,12,10,-1,0,-2
1511884701933765,-1,-2,-3,-17,-15,-1,2,2
1511884701933765,-1,0,3,15,25,4,-3,-1
1511884701934590,-2,-5,-8,-7,-1,-3,-1,0
1511884701934590,-3,-4,-3,8,8,3,0,0
1511884701948748,1,6,7,-1,-31,-4,3,-1
1511884701948748,2,1,3,9,1,-2,0,6
1511884701954764,-4,1,4,11,5,1,-5,-7
1511884701954764,2,0,6,-2,32,10,8,3
1511884701970816,-1,-2,4,23,28,-6,-4,-3
1511884701970816,-2,-10,-31,-17,-84,-15,3,2
1511884701977826,-4,-2,-25,-57,-15,-6,-7,-3
1511884701977826,0,2,5,6,12,-5,-13,-2
1511884701993044,2,4,10,12,16,9,1,0
1511884701993044,6,14,43,53,48,15,10,4
1511884701994039,0,-5,14,28,12,-2,-4,1
1511884701994039,-4,-10,-18,-8,-16,-13,-7,-5
1511884702009089,0,-1,-20,-29,-7,1,-3,-2
1511884702009089,-2,2,-3,-19,-6,0,-3,-8
1511884702015103,3,3,10,13,-14,0,11,5
1511884702015103,2,1,18,6,5,11,-1,4
1511884702030144,1,-1,-2,5,-16,-9,-3,0
1511884702030144,-3,-5,-25,-37,-42,-23,-6,0
1511884702038127,-1,-1,-10,-11,34,17,1,-2
1511884702038127,4,3,14,27,28,6,14,3
1511884702053333,0,-1,5,-3,-31,-6,4,-2
1511884702053333,-2,-4,-6,3,30,-4,-7,-5
1511884702054165,2,-3,-2,2,-3,-6,-2,2
1511884702054165,-3,-3,-25,-49,-56,-3,-2,-2
1511884702069204,5,4,14,16,21,-11,-3,0
1511884702069204,0,1,7,6,-2,11,-1,0
1511884702075346,-3,1,5,16,19,-1,-4,-3
1511884702075346,-4,-4,-8,-5,7,7,-8,-5
1511884702090421,1,1,-7,-20,-4,4,13,5
1511884702090421,0,-5,-1,4,11,-2,-16,-4
1511884702097282,1,0,2,4,-2,-1,0,0
1511884702097282,0,-1,7,3,-14,-13,9,0
1511884702113452,-3,-3,-5,0,-7,1,-7,-2
1511884702113452,-1,3,-1,-11,25,6,9,2
1511884702114325,-3,-6,-7,-5,-30,-11,-18,-7
1511884702114325,0,5,-3,-24,-19,-10,6,-3
1511884702129364,-1,-6,1,0,27,24,24,8
1511884702129364,-8,-10,-13,-10,-22,-16,-17,-10
1511884702135384,-1,2,4,-3,-1,12,2,-2
1511884702135384,1,2,1,8,3,-16,-16,-1
1511884702150419,-6,-1,-2,-7,3,10,3,0
1511884702150419,14,4,8,6,4,11,9,12
1511884702157438,4,-3,-1,5,-1,-17,4,2
1511884702157438,-27,-8,-4,3,1,10,-6,-28
1511884702173481,-6,-2,-8,-7,-7,-12,-10,-10
1511884702173481,7,-4,-8,-3,-6,8,0,-4
1511884702174484,-11,11,7,0,1,6,7,17
1511884702174484,16,-3,-2,-2,-7,-7,-2,-11
1511884702189524,20,8,2,-2,1,-3,-12,13
1511884702189524,-29,-10,-2,-3,-1,-3,3,-29
1511884702195543,22,4,0,-4,-2,1,8,7
1511884702195543,-23,13,-1,2,-1,10,-3,-14
1511884702210579,5,1,-6,-4,-1,-17,-5,5
1511884702210579,8,-8,5,2,-7,-7,7,18
1511884702217598,-11,-16,-3,-2,-4,-3,-11,-22
1511884702217598,1,-5,-1,2,2,-4,1,35
1511884702233641,7,6,-7,-5,-4,-1,-3,1
1511884702233641,-16,5,4,1,2,4,4,-8
1511884702233641,-10,-9,-4,-2,0,-3,6,-7
1511884702233641,21,-1,-1,1,0,-2,-4,34
1511884702249687,-6,-6,1,-1,1,4,-4,-37
1511884702249687,3,1,-3,-4,-2,-9,-6,28
1511884702254697,5,0,-4,-2,-1,4,0,-10
1511884702254697,-1,1,3,1,0,5,6,1
1511884702269761,1,-6,0,-3,-2,-8,-12,16
1511884702269761,10,1,1,3,5,9,4,-17
1511884702277758,-27,-3,-4,0,-4,-10,-21,-37
1511884702277758,15,5,2,2,-1,3,9,12
1511884702292798,-17,-8,-3,-4,-4,-2,-13,-25
1511884702292798,10,7,7,3,7,1,5,20
1511884702293800,10,5,-3,-1,-5,2,6,16
1511884702293800,18,0,1,1,1,-1,2,1
1511884702308841,-39,1,1,3,4,6,16,-11
1511884702308841,12,-15,-8,-7,-9,-6,-12,8
1511884702314860,33,18,2,1,2,2,4,24
1511884702314860,-1,1,0,1,-1,1,-3,-30
1511884702329897,-20,-11,-6,-3,-3,8,12,-15
1511884702329897,-14,8,1,-1,-1,-4,1,-16
1511884702337919,11,-7,1,1,1,-8,-9,16
1511884702337919,2,1,-1,-2,1,17,26,0
1511884702352958,13,7,1,0,-1,-7,-9,11
1511884702352958,-13,-5,0,2,2,6,10,-18
1511884702353961,-12,-1,0,-1,-4,-17,-10,2
1511884702353961,4,-1,0,2,3,5,18,11
1511884702369000,11,0,1,-1,-1,-13,-26,6
1511884702369000,-11,4,1,1,0,9,8,-13
1511884702375017,-10,-1,0,-1,-3,-1,-6,-8
1511884702375017,3,-4,-1,-1,-5,-11,-18,9
1511884702390061,0,-4,-2,0,6,10,7,3
1511884702390061,13,3,0,-1,0,-5,-7,10
1511884702398190,3,2,-1,0,0,3,1,0
1511884702398190,-17,-8,-3,1,1,-2,0,-8
1511884702413147,5,1,-7,-4,-3,-2,3,0
1511884702413147,10,2,3,-2,-1,-2,-5,11
1511884702420182,-5,-5,1,1,0,9,14,9
1511884702420182,-7,6,5,7,-5,-5,-6,-22
1511884702429161,2,-11,-6,-9,1,9,8,14
1511884702429161,4,-2,-3,3,1,-4,-9,1
1511884702435209,-4,9,3,-4,-4,-1,2,-2
1511884702435209,8,-9,-8,2,5,-1,-4,19
1511884702450249,1,4,0,4,-5,-3,1,0
1511884702450249,-10,1,3,-1,-1,1,0,-7
1511884702457267,2,-7,-8,-1,-2,-3,-3,-4
1511884702457267,13,6,4,-2,-4,7,9,2
1511884702472310,-10,-3,2,7,11,2,2,1
1511884702472310,-7,-4,0,-1,-1,-4,-10,4
1511884702480332,17,5,3,6,1,-3,-2,3
1511884702480332,-35,-6,-4,-9,-3,1,-1,-17
1511884702495368,9,-3,-7,-6,-9,-3,4,-8
1511884702495368,-1,4,-5,-3,-7,-6,-10,4
1511884702496371,-7,-15,-9,-9,-4,8,18,7
1511884702496371,-2,-1,-8,-14,-5,-5,4,-11
1511884702510409,-7,-2,0,-1,1,-4,-2,13
1511884702510409,4,12,9,2,-2,-4,-6,-12
1511884702517427,-5,-3,4,8,8,9,12,4
1511884702517427,1,-2,8,13,5,-6,-11,0
1511884702532467,-2,2,1,-2,-4,-2,-4,-3
1511884702532467,14,1,-2,-8,-4,0,0,4
1511884702540489,-4,-11,-10,-2,-3,-2,-13,-2
1511884702540489,6,10,6,1,8,8,11,13
1511884702549514,4,11,0,7,5,2,3,-6
1511884702549514,-15,-11,-1,10,1,-5,-7,-18
1511884702555528,2,5,1,-14,-15,-14,0,11
1511884702555528,2,2,-12,-9,0,0,-4,5
1511884702570569,2,-6,-5,-24,-6,1,4,0
1511884702570569,-1,-2,1,12,13,4,2,6
1511884702577607,6,13,16,13,2,-7,-23,-16
1511884702577607,-6,-11,-6,-8,-2,6,8,8
1511884702592650,-4,2,2,7,-16,-3,0,-19
1511884702592650,-5,-2,-6,11,34,2,-14,-6
1511884702600671,-3,3,-1,-22,-53,-1,5,-10
1511884702600671,0,-10,-6,-10,15,-1,-16,-1
1511884702615911,-2,3,-6,-5,8,0,-3,0
1511884702615911,5,4,4,5,4,12,3,2
1511884702616888,-7,-10,-9,-2,3,-7,3,-2
1511884702616888,4,12,12,13,-9,-6,-4,-10
1511884702629921,-2,-9,1,4,-19,-9,-9,0
1511884702629921,-3,-4,-8,-24,-4,1,10,12
1511884702637942,-6,2,-4,13,9,-10,-10,5
1511884702637942,-8,-16,-6,-14,-26,-7,-10,5
1511884702652982,12,12,14,24,18,3,-3,-2
1511884702652982,1,-15,-3,-8,-7,-4,0,6
1511884702660004,-3,5,0,1,11,18,3,-12
1511884702660004,6,-5,-2,-1,10,-4,6,25
1511884702676043,6,10,-1,-2,-7,5,4,-14
1511884702676043,5,5,-3,-5,-12,-4,-8,12
1511884702676043,7,-11,-4,-12,-6,-2,0,1
1511884702676043,-12,2,6,19,25,5,-2,-23
1511884702690081,1,2,2,1,-9,1,1,1
1511884702690081,-2,2,-1,-5,13,16,32,-11
1511884702698102,4,2,-1,1,12,3,-5,10
1511884702698102,-3,-1,0,-3,-12,-5,-10,-7
1511884702713147,-3,-4,2,8,4,-20,-22,-8
1511884702713147,-6,-11,-3,-4,-11,25,41,-5
1511884702720165,-1,0,0,-8,2,-4,-5,-11
1511884702720165,7,4,1,9,8,1,7,-10
1511884702736231,-10,-4,-3,-10,2,7,11,14
1511884702736231,1,2,6,20,-6,-15,-22,-11
1511884702736231,-7,-1,-3,-2,-6,-11,-23,-3
1511884702736231,-7,-5,-5,-5,-1,-9,-7,-18
1511884702750241,3,-6,-4,-4,2,1,17,13
1511884702750241,-7,5,0,-7,-8,17,2,-21
1511884702757259,-3,-5,-2,5,13,7,13,13
1511884702757259,6,8,2,-1,-14,-9,-4,-20
1511884702788346,-4,-4,-4,-4,1,9,1,-4
1511884702788346,-4,-2,-2,-2,-7,-15,-11,0
1511884702795360,14,21,8,3,6,7,21,-16
1511884702795360,-6,-10,1,7,2,17,4,-13
1511884702819425,4,3,-3,-8,-2,-2,2,-3
1511884702819425,-2,2,0,-6,-6,-11,-10,23
1511884702820438,-1,0,4,7,4,7,10,4
1511884702820438,-4,5,-1,-3,1,1,-4,7
1511884702841483,-1,-7,-2,-1,-7,-18,-5,13
1511884702841483,4,4,-3,-1,5,5,8,-3
1511884702843489,-4,-7,-5,-10,5,9,-8,-8
1511884702843489,-2,-2,-2,3,-8,-11,4,27
1511884702863542,2,-3,-4,-11,7,7,-5,-12
1511884702863542,-3,-2,-1,1,-14,-13,-1,6
1511884702871563,-2,-2,-2,2,5,4,6,5
1511884702871563,5,1,-1,-3,-5,-3,-4,-6
1511884702893622,-9,4,6,7,6,-2,-7,-2
1511884702893622,3,5,3,1,3,5,1,-5
1511884702895627,-2,-7,-3,-1,-4,-3,-3,2
1511884702895627,-6,-2,-4,-2,-3,-8,-6,-4
1511884702915680,17,-4,4,3,1,13,21,43
1511884702915680,25,10,3,-2,1,-2,-9,-2
1511884702923702,-22,-9,-5,-3,-4,-5,-2,-15
1511884702923702,9,9,7,2,3,1,0,-2
1511884702923702,-6,-16,-4,-3,-4,-3,-11,-10
1511884702923702,-11,-3,-5,-6,-5,-6,0,1
1511884702931723,22,7,4,5,1,-2,-4,31
1511884702931723,-2,-1,-3,-8,-5,-1,-5,-5
1511884702938745,-8,1,5,8,7,0,-4,-14
1511884702938745,-2,-6,1,-1,-11,-12,-10,-3
1511884702938745,-3,-1,-4,5,2,-5,-11,-6
1511884702938745,0,3,-7,-15,11,9,2,2
1511884702946763,-2,-1,1,8,-7,-1,5,1
1511884702946763,0,-4,0,13,17,-11,-3,21
1511884702947766,-6,-4,-7,-16,-9,-1,-4,-2
1511884702947766,1,4,-4,-6,-13,-4,4,3
1511884702952779,-1,0,-2,-3,-7,-1,-2,3
1511884702952779,-12,-6,-3,-2,4,0,-12,-21
1511884702959836,11,2,-1,-2,5,5,27,19
1511884702959836,0,2,6,5,5,-1,-5,3
1511884702975844,4,-2,0,3,2,0,0,-16
1511884702975844,-10,2,-5,10,-5,-3,-1,-14
1511884702976877,-2,-20,-27,-25,-10,-7,-6,9
1511884702976877,1,1,-10,-19,-11,-1,-4,6
1511884703022005,0,3,9,-2,0,-2,-6,-3
1511884703022005,3,8,11,9,8,10,6,-1
1511884703022967,-2,-6,2,15,-10,-10,-14,-5
1511884703022967,-5,-3,0,17,10,0,4,0
1511884703036006,6,6,13,8,-11,-3,-3,7
1511884703036006,-5,-11,-40,-50,-5,7,6,-1
1511884703043047,-4,3,0,-37,-40,0,3,-21
1511884703043047,5,3,17,34,22,12,7,16
1511884703044026,-1,1,0,0,17,4,1,-4
1511884703044026,9,0,21,19,-33,-14,7,5
1511884703052082,-11,-1,-6,13,30,13,12,-8
1511884703052082,-11,-9,-9,-18,-32,-32,-31,-11
1511884703058097,2,-4,-28,-28,9,9,-3,3
1511884703058097,0,0,2,4,5,9,24,5
1511884703059065,-10,4,21,12,-1,2,-9,-26
1511884703059065,-1,-1,8,2,-6,-14,-3,2
1511884703073102,1,-12,-13,-5,-3,-4,-10,8
1511884703073102,1,-6,-6,-5,3,-4,-11,6
1511884703080186,-6,7,11,28,19,7,11,-5
1511884703080186,-9,-11,7,5,7,6,1,-7
1511884703096164,-2,4,0,0,-8,-5,-1,-5
1511884703096164,17,8,1,-10,-9,-8,-7,9
1511884703097163,-11,-2,5,3,5,5,4,-7
1511884703097163,23,2,-3,3,8,11,2,9
1511884703110201,-19,-10,-13,-7,-2,-5,-1,-7
1511884703110201,-2,6,0,-1,-4,-10,-11,-1
1511884703117217,9,-1,-3,-4,-1,-13,-13,-1
1511884703117217,4,-6,-19,-18,1,13,19,2
1511884703133265,4,11,19,14,5,-3,-3,-7
1511884703133265,-2,-3,8,11,3,1,-3,0
1511884703140278,-2,2,-4,8,19,-4,-4,-1
1511884703140278,-10,-9,-16,-15,-11,1,-5,-7
1511884703156322,2,1,-10,-19,-9,5,22,5
1511884703156322,-6,-1,10,13,8,-11,-34,-9
1511884703156322,9,6,10,4,-1,2,7,9
1511884703156322,-3,0,3,1,-16,-4,-8,-6
1511884703170573,1,0,1,8,13,17,15,9
1511884703170573,-8,-8,-10,-11,-4,0,-5,-12
1511884703177505,3,4,3,1,1,2,6,19
1511884703177505,-6,1,-8,-4,0,-4,1,0
1511884703192545,13,20,12,5,-8,-13,-12,-5
1511884703192545,-18,-34,-11,-6,1,10,6,3
1511884703200591,3,-7,-5,-8,-10,-3,0,13
1511884703200591,-11,4,3,4,4,0,1,-16
1511884703215796,4,-1,-8,-6,-6,-5,-6,16
1511884703215796,13,7,11,4,4,-6,-6,4
1511884703216674,3,5,3,4,2,0,10,-9
1511884703216674,-4,-5,-3,-4,-8,-6,0,9
1511884703253781,-5,-10,1,3,-1,-6,-4,-8
1511884703253781,-1,5,-5,-5,3,5,10,-4
1511884703255764,-8,-7,-8,-6,-6,9,8,-19
1511884703255764,3,4,17,5,6,-2,-10,11
1511884703260780,6,1,-4,2,-5,-2,-1,-7
1511884703260780,-15,-1,-3,0,-1,-5,5,-17
1511884703261779,2,12,1,-1,-1,-2,-10,-9
1511884703261779,-5,-1,2,6,8,3,11,2
1511884703275855,-10,-1,4,-5,-9,2,-1,-7
1511884703275855,19,10,-1,-1,4,1,7,30
1511884703276823,5,-5,1,0,-3,0,7,2
1511884703276823,2,-9,0,3,0,7,7,-16
1511884703289854,-11,-3,0,-1,6,-1,-5,0
1511884703289854,7,-1,-2,-1,-1,7,3,-6
1511884703298029,-26,21,5,1,2,-2,-11,-3
1511884703298029,41,-3,1,1,-2,1,5,13
1511884703313172,-10,-1,-2,0,-3,-5,-5,-8
1511884703313172,-2,8,2,2,4,7,3,-3
1511884703320184,9,-7,-7,-4,-4,-5,-9,8
1511884703320184,-20,-5,-5,-5,-6,-7,-10,4
1511884703336355,1,-8,-4,0,-5,-10,-9,13
1511884703336355,7,-3,1,-2,-4,-4,-4,-3
1511884703336355,-1,-8,-6,-7,-8,1,6,3
1511884703336355,-5,6,0,3,8,1,-1,-9
1511884703351315,8,0,1,-4,2,6,4,1
1511884703351315,-9,0,0,-9,-16,-5,-1,-8
1511884703357311,5,-3,0,4,8,-4,-7,9
1511884703357311,-5,3,1,-4,-10,0,-1,-3
1511884703372352,2,4,0,3,-3,-6,-15,-5
1511884703372352,-3,-5,0,1,7,11,8,-6
1511884703380499,-1,-4,-2,-6,-10,-4,-3,3
1511884703380499,-18,-13,-6,3,8,4,-1,-9
1511884703395415,-7,-5,2,2,-2,0,3,2
1511884703395415,-8,-1,-4,-1,-2,-3,-3,-6
1511884703402626,7,-14,-1,-4,2,2,-2,-2
1511884703402626,4,3,-6,-8,-9,-12,-21,20
1511884703411453,-7,-29,-2,7,5,1,2,-8
1511884703411453,-3,5,1,2,-3,0,2,3
1511884703417469,6,6,3,5,2,1,1,-4
1511884703417469,4,3,-3,-2,-4,2,9,-12
1511884703432621,1,8,-2,4,9,4,-1,-8
1511884703432621,2,0,-9,-15,-8,0,-4,10
1511884703440534,-6,-3,0,-3,-4,-8,1,1
1511884703440534,-1,3,1,-2,-1,0,-5,-11
1511884703455571,4,12,16,10,-3,-6,-13,-6
1511884703455571,-8,-7,-4,5,9,0,18,5
1511884703462694,1,-3,0,2,-11,-15,-18,6
1511884703462694,1,-1,-9,-24,10,13,14,10
1511884703471613,-3,-3,-2,-2,0,-2,0,3
1511884703471613,1,6,9,13,12,3,-4,-3
1511884703477647,3,1,-1,-1,-6,2,11,-6
1511884703477647,2,4,9,14,-1,-4,-3,7
1511884703492672,-4,-4,-8,-8,-1,-1,1,-3
1511884703492672,8,4,0,-4,-4,3,3,-5
1511884703500691,-11,3,-4,-4,2,-1,-11,-26
1511884703500691,-7,-8,4,9,1,-1,2,9
1511884703537961,6,5,2,-4,-4,3,11,5
1511884703537961,1,2,5,13,4,-2,0,-2
1511884703547916,0,11,-2,3,3,2,-3,-7
1511884703547916,1,0,-16,-15,-9,-2,1,-5
1511884703560956,-3,1,-10,-18,-9,-7,-4,0
1511884703560956,2,-1,-3,-1,7,4,1,5
1511884703561956,3,0,12,5,7,-4,13,12
1511884703561956,-2,-3,14,20,0,1,5,-3
1511884703576040,4,1,-2,3,-20,-7,-1,3
1511884703576040,-2,-5,-11,-17,6,-3,-13,-7
1511884703583056,-1,-8,-17,-16,-2,-1,-13,-5
1511884703583056,4,3,1,-4,-2,5,6,-5
1511884703599088,-8,1,4,-4,-2,4,-3,-18
1511884703599088,-1,-1,0,9,-9,-3,1,11
1511884703601067,2,1,3,17,3,6,15,4
1511884703601067,-5,-8,-5,-4,-1,-6,-8,-5
1511884703614097,0,4,0,1,3,1,-3,-6
1511884703614097,-3,-5,-9,-20,-12,-4,-12,-5
1511884703616102,-4,-4,-1,-1,4,-1,-11,-4
1511884703616102,9,16,12,13,4,2,8,0
1511884703628181,-4,-4,5,17,7,4,6,3
1511884703628181,-3,-5,-12,-13,-9,-2,-4,-6
1511884703636315,-9,1,-23,-21,-10,-5,-10,-14
1511884703636315,-3,-7,4,0,-4,5,5,-5
1511884703643398,0,5,-1,-7,-8,-11,-7,1
1511884703643398,5,8,20,24,19,-2,4,5
1511884703644273,2,3,7,16,1,5,1,1
1511884703644273,-8,-4,-21,-27,-12,-3,1,-3
1511884703658361,4,2,-8,-4,12,0,3,12
1511884703658361,-6,-6,4,3,-8,-3,-6,-7
1511884703659312,-1,-6,3,-5,-4,0,5,4
1511884703659312,-1,0,5,15,5,-10,-13,1
1511884703672398,2,-4,1,-3,2,4,6,1
1511884703672398,1,2,-3,2,2,2,2,-1
1511884703680419,0,0,3,3,-3,-4,-3,1
1511884703680419,-1,2,-2,-2,2,2,4,-2
1511884703695410,-1,-1,-7,-7,-2,0,-2,-2
1511884703695410,2,1,-5,-3,0,2,0,-11
1511884703702429,-7,8,-1,2,-1,-4,-4,-9
1511884703702429,-4,-3,4,2,-6,-8,-8,-2
1511884703718468,1,-2,0,4,4,6,5,2
1511884703718468,4,10,-2,-4,-7,-4,2,9
1511884703719638,-5,-5,-1,-5,-4,5,3,-5
1511884703719638,5,9,0,-2,4,-4,-4,0
1511884703747710,-5,-9,-2,2,-3,3,1,-1
1511884703747710,-6,-8,-1,-12,-15,-4,-13,-4
1511884703756569,1,0,-2,1,12,5,6,8
1511884703756569,-1,-8,1,9,7,-3,-11,2
1511884703778631,2,-3,-6,-12,-8,1,2,2
1511884703778631,-1,0,0,-2,-2,0,-6,-2
1511884703780634,-2,-4,1,-1,-13,-1,1,3
1511884703780634,2,-3,-2,0,29,10,3,2
1511884703800690,-1,-1,-1,1,-4,-3,-1,-1
1511884703800690,-5,1,4,8,1,-2,3,-3
1511884703807708,5,3,3,6,7,2,-5,3
1511884703807708,-3,-1,-3,-2,-10,-1,8,-4
1511884703822882,2,2,3,-1,2,-7,0,-3
1511884703822882,2,5,2,2,-4,11,0,3
1511884703832968,2,-5,0,0,-1,-3,5,1
1511884703832968,-8,1,1,0,-4,-4,2,-3
1511884703838925,8,-1,2,2,2,5,11,8
1511884703838925,-18,-4,3,-6,-6,-9,-10,-24
1511884703838925,2,-1,-12,-14,-3,-3,-1,14
1511884703838925,1,6,0,1,-1,5,9,1
1511884703847069,-4,1,6,4,0,-6,-13,-1
1511884703847069,1,-1,2,4,6,3,19,-5
1511884703847069,2,1,12,8,6,4,-4,-2
1511884703847069,-3,1,-4,-8,-10,-5,-8,-8
1511884703853058,-4,-5,-9,1,4,-2,1,0
1511884703853058,3,-5,-11,-8,-5,0,-5,6
1511884703860078,-2,1,4,2,-3,-3,-4,-3
1511884703860078,2,-1,2,4,1,10,9,3
1511884703875133,1,3,-5,-11,-10,-9,-14,-5
1511884703875133,3,-2,-2,-1,12,10,12,7
1511884703883166,-1,-4,-7,-9,-13,-11,-9,-7
1511884703883166,3,5,10,12,6,4,0,3
1511884703898224,-3,0,5,6,2,0,4,0
1511884703898224,-2,-2,-1,2,1,-1,-6,-5
1511884703899179,1,0,-5,-8,-4,-1,3,5
1511884703899179,-6,-2,-5,-8,-6,-6,-10,-7
1511884703913240,1,3,8,11,7,7,4,6
1511884703913240,3,-1,1,0,-2,-7,-4,1
1511884703920283,-1,2,-2,-5,-1,1,2,-10
1511884703920283,1,-3,-6,-8,-8,-6,-8,0
1511884703935301,1,7,-6,-7,-3,2,-3,-1
1511884703935301,-7,-14,-2,1,-2,-2,6,4
1511884703942296,1,0,-3,-2,1,3,2,-3
1511884703942296,0,0,1,2,-1,-8,-12,3
1511884703958466,-5,-8,0,2,-1,-1,-7,-7
1511884703958466,3,6,3,9,7,-6,-2,6
1511884703959469,-3,-6,-8,-10,-5,1,4,-3
1511884703959469,2,-1,-3,-8,-5,-10,-10,-2
1511884703972500,-2,-2,-1,-3,-2,4,8,0
1511884703972500,1,-1,3,11,6,0,-7,4
1511884703980730,-1,-6,3,7,-1,3,8,2
1511884703980730,-1,-3,-4,-14,-5,1,2,-4
1511884703996564,-2,0,-5,-6,0,-1,-2,0
1511884703996564,-1,1,1,-3,-5,-3,-6,-5
1511884704003586,-1,2,5,6,-1,-2,-4,0
1511884704003586,0,-4,2,12,9,4,8,4
1511884704018807,-1,-2,-4,0,-3,-6,-2,-4
1511884704018807,-1,1,-1,-6,-1,-4,-2,-2
1511884704018807,-6,-5,-7,-6,-4,-5,1,1
1511884704018807,0,0,-2,-3,-3,0,2,-2
1511884704032986,0,2,6,7,3,-3,-3,-2
1511884704032986,1,0,2,2,-2,-7,-4,12
1511884704039816,0,-1,-1,-2,1,2,10,-2
1511884704039816,1,1,-6,-7,-3,-4,-9,4
1511884704054891,-8,-12,1,-3,1,0,-4,-4
1511884704054891,-1,3,1,1,-2,2,1,-5
1511884704063880,1,-1,12,10,7,3,-2,3
1511884704063880,1,0,-3,3,0,2,7,1
1511884704077927,0,0,-3,-5,-2,1,3,2
1511884704077927,1,-3,-9,-12,-3,0,2,7
1511884704078933,-1,-2,0,-1,1,-1,-1,-3
1511884704078933,-2,1,-1,2,-1,-5,-4,-3
1511884704093100,2,3,6,6,0,7,1,2
1511884704093100,-2,-2,2,3,2,0,1,-4
1511884704100118,-1,-2,-9,-8,-4,-2,-5,2
1511884704100118,-3,-3,-1,-7,-5,-1,-2,-3
1511884704115200,-1,4,-1,-3,-1,0,2,-3
1511884704115200,1,-2,1,1,-2,1,1,-1
1511884704123372,0,-1,0,1,2,-3,-6,3
1511884704123372,-1,-4,2,0,-3,0,0,-3
1511884704138216,2,0,0,-1,2,-1,1,1
1511884704138216,-1,-1,-5,4,2,1,2,-4
1511884704139216,0,-5,-7,-9,-4,-4,-5,7
1511884704139216,-3,0,-3,-5,-2,2,4,-2
1511884704152286,2,2,2,1,2,1,1,-4
1511884704152286,-2,0,7,1,-1,0,-9,-4
1511884704160308,0,-1,-2,5,-1,-7,-1,-4
1511884704160308,3,5,3,1,4,7,6,2
1511884704175351,-4,-8,-13,-10,-6,-5,-8,-4
1511884704175351,-3,-3,-3,-7,-3,0,-1,-3
1511884704190555,-1,3,3,5,1,3,-5,-7
1511884704190555,-2,-4,2,3,-2,0,2,3
1511884704198553,-1,2,6,8,4,-1,-1,-2
1511884704198553,-1,1,-9,-5,0,3,3,-1
1511884704199562,-1,0,-2,-10,-4,0,-6,-2
1511884704199562,0,-7,-3,0,-3,-8,-7,0
1511884704212794,1,2,2,-2,-1,3,5,4
1511884704212794,0,0,-2,1,-2,-7,-3,2
1511884704220818,1,3,10,16,6,3,6,3
1511884704220818,-4,-1,-4,-4,-7,1,-2,-4
1511884704234871,-2,0,-11,-11,-4,-5,-6,-4
1511884704234871,-2,-2,-2,-8,-5,-3,-1,-1
1511884704242875,2,3,8,8,3,3,0,1
1511884704242875,3,1,-1,1,1,3,5,1
1511884704257914,-4,-5,-1,4,0,-10,-7,-1
1511884704257914,0,-1,-7,-8,-1,11,13,1
1511884704258917,-1,-1,-4,-6,-4,-3,2,3
1511884704258917,1,1,2,2,0,-8,-12,8
1511884704272954,4,4,3,-1,1,3,-6,-1
1511884704272954,1,-1,2,1,2,-6,-5,-4
1511884704279973,-4,-3,-1,1,-3,7,4,-6
1511884704279973,-1,-1,-2,2,4,-4,0,-1
1511884704295016,-1,-2,1,-1,-6,-3,0,1
1511884704295016,2,-1,3,2,-1,-2,1,4
1511884704311059,-2,-2,-6,-3,-1,-6,-8,-3
1511884704311059,0,-1,-4,-6,-1,16,16,-1
1511884704317264,-1,1,0,4,-2,0,2,-1
1511884704317264,-1,0,5,1,2,0,-3,-3
1511884704326226,-2,-3,-4,-10,-4,-5,0,3
1511884704326226,-3,-2,-2,-4,-2,-1,-4,-3
1511884704333241,-1,-4,-6,-5,7,0,1,3
1511884704333241,2,0,-3,1,-2,0,1,3
1511884704340264,0,1,0,1,1,-2,-3,-3
1511884704340264,1,2,8,11,6,-1,-2,-1
1511884704355426,-2,-2,-3,1,-5,1,1,-5
1511884704355426,-2,-1,-10,-12,-3,-3,0,9
1511884704362346,-1,-3,-5,-2,-1,-1,1,-3
1511884704362346,1,5,5,-1,-2,-2,-1,-5
1511884704386427,1,1,7,7,3,-4,-4,4
1511884704386427,5,3,5,8,3,-1,6,-6
1511884704387421,1,2,1,2,2,3,1,3
1511884704387421,-2,0,2,4,0,-4,-7,-1
1511884704392428,0,0,0,-5,-1,1,-3,-3
1511884704392428,-1,4,2,4,-3,-3,0,2
1511884704400424,-3,-4,-7,-12,-4,-1,1,-2
1511884704400424,-1,-6,-12,-12,-6,-1,1,-3
1511884704415467,0,-3,-1,0,0,3,5,2
1511884704415467,-2,-1,2,3,-3,-2,-7,-3
1511884704430503,-1,1,2,8,10,0,0,-1
1511884704430503,0,1,2,-3,-4,0,-2,3
1511884704437699,-1,-1,7,7,-3,-2,6,0
1511884704437699,-1,-5,-9,-6,-1,3,-1,-2
1511884704445764,1,0,-6,-11,-5,-5,-10,-1
1511884704445764,-3,-3,-2,2,2,-6,-2,-3
1511884704452779,-1,1,-3,-1,-1,3,-4,-2
1511884704452779,-3,-1,2,3,-2,-7,-2,-2
1511884704459921,0,-1,1,2,0,10,5,4
1511884704459921,-1,-3,-1,-2,0,-4,-8,-7
1511884704474885,1,-1,-3,-3,1,-4,15,19
1511884704474885,-1,-1,9,7,2,-4,-6,-6
1511884704482905,-1,0,-3,-3,-4,-1,-2,-3
1511884704482905,-5,-8,-12,-9,-1,0,-1,-2
1511884704497946,0,-4,-13,-8,-4,-1,-4,-5
1511884704497946,0,-5,-5,-4,-4,1,6,5
1511884704506004,2,2,5,5,1,1,-2,2
1511884704506004,-3,-5,2,4,-3,-6,-5,5
1511884704521239,-3,-1,-2,-1,-1,6,3,-2
1511884704521239,-4,-2,-3,-1,2,3,-2,-7
1511884704522212,1,1,5,3,1,-1,1,-4
1511884704522212,-3,3,1,1,-1,-5,-3,-2
1511884704535195,0,0,-8,-5,0,-2,-1,-1
1511884704535195,0,0,-5,-11,-8,0,-3,-1
1511884704543244,-2,-1,6,7,2,0,3,1
1511884704543244,2,1,-1,0,0,-8,-5,2
1511884704557285,1,2,12,8,2,4,-2,-2
1511884704557285,1,6,1,9,5,2,3,1
1511884704566367,-5,-5,-5,-6,-7,-8,-15,-15
1511884704566367,3,1,-1,-4,2,7,16,16
1511884704581357,-1,0,2,1,-4,-6,-9,-5
1511884704581357,-2,-2,-3,-2,-1,0,-2,-2
1511884704581357,0,-2,5,2,3,-1,-1,-2
1511884704581357,-2,6,4,4,4,3,2,-6
1511884704595401,-4,-4,6,3,0,-1,-2,0
1511884704595401,1,1,-6,-5,-2,-6,-7,0
1511884704602516,0,-4,-10,-13,-8,-1,5,8
1511884704602516,0,-1,0,-3,-2,1,0,-5
1511884704617441,1,2,7,3,5,4,3,-1
1511884704617441,-4,-2,5,11,1,-4,-5,0
1511884704625466,-3,-1,-4,-1,-2,-1,1,1
1511884704625466,-2,-3,-9,-6,-2,9,9,-1
1511884704640504,-2,-1,-9,-9,-6,-12,-6,2
1511884704640504,-2,0,4,2,1,3,4,-2
1511884704641505,0,4,2,2,-4,-8,-6,1
1511884704641505,2,3,2,3,5,5,0,-1
1511884704655078,-3,-6,0,2,4,-1,-7,-4
1511884704655078,0,2,3,3,-1,1,3,-1
1511884704663013,1,-3,-1,-6,-6,2,5,3
1511884704663013,-1,-3,-6,-9,-4,-3,-5,-4
1511884704677959,-1,-2,-4,-2,-1,-1,-1,-3
1511884704677959,1,4,0,-5,0,-2,4,1
1511884704686196,-2,0,8,4,-2,-8,-9,-2
1511884704686196,-1,-7,-4,4,6,-3,-3,-2
1511884704701056,-3,0,-6,-6,-7,-1,-4,-6
1511884704701056,-1,-3,-7,-3,3,4,-2,-2
1511884704702144,0,-1,0,-3,1,7,11,6
1511884704702144,2,0,7,7,-3,-14,-12,-2
1511884704715276,-1,1,5,7,1,0,0,-1
1511884704715276,0,-2,1,-3,0,2,-1,6
1511884704723253,0,1,-5,-4,2,1,2,-6
1511884704723253,-1,-1,-4,-1,-5,1,-1,-3
1511884704738267,3,1,2,1,1,4,5,4
1511884704738267,1,2,-1,2,-2,-2,-4,-1
1511884704746172,-3,-2,-5,-2,-2,-5,1,-4
1511884704746172,0,-3,-11,-10,-4,16,11,14
1511884704761237,-1,-3,-3,-6,-2,-6,-9,-7
1511884704761237,0,-1,-1,-1,0,-3,-5,3
1511884704762241,-2,1,3,4,4,1,4,1
1511884704762241,-1,2,6,4,1,-5,-4,-2
1511884704775250,3,-1,2,1,-4,8,7,1
1511884704775250,0,-4,-4,-2,5,-4,-3,0
1511884704783309,1,-2,0,3,2,0,-7,-5
1511884704783309,-1,3,3,-3,-5,-4,-1,-8
1511884704797461,1,0,-6,-7,2,6,5,5
1511884704797461,-1,-2,1,-3,-5,-1,4,-5
1511884704806372,0,0,0,2,-1,-2,-7,2
1511884704806372,-2,2,6,12,5,-2,-1,-3
1511884704820446,-1,-1,0,-4,-7,-5,-3,1
1511884704820446,1,-2,3,9,4,5,9,-2
1511884704821448,0,6,1,-2,1,0,-1,1
1511884704821448,-4,-9,-12,-9,-6,-5,-3,-3
1511884704835667,-3,3,-2,-9,-5,-3,-4,1
1511884704835667,1,1,2,1,7,2,-2,-1
1511884704842677,2,-1,1,4,0,-4,-3,1
1511884704842677,0,0,0,-1,-3,0,7,-2
1511884704857785,1,2,0,0,2,2,3,-1
1511884704857785,-1,0,-1,-3,-5,1,0,0
1511884704865717,-1,-1,-1,1,3,4,-1,0
1511884704865717,-2,-1,2,3,-2,-5,-10,-2
1511884704880862,0,-1,-7,-12,-1,4,18,0
1511884704880862,-4,-5,-4,-8,-5,1,-1,-3
1511884704881757,2,1,-4,-3,-3,-6,-9,-2
1511884704881757,0,-2,6,7,11,9,6,-1
1511884704894796,0,2,3,10,-1,-8,-5,-4
1511884704894796,0,4,9,7,1,3,0,0
1511884704902964,-3,-3,-3,2,-7,-1,-3,-2
1511884704902964,-2,-2,-3,-2,4,2,0,-3
1511884704917941,-2,-5,-7,-11,-6,-3,-4,3
1511884704917941,1,-1,-2,-1,3,-4,-3,0
1511884704926058,-3,-1,-2,-6,-6,-2,1,-2
1511884704926058,1,4,9,10,1,-2,1,3
1511884704941097,-1,-5,1,1,2,-1,2,-4
1511884704941097,-1,1,-5,-6,-10,-7,-7,-1
1511884704942101,-2,-7,-7,-5,4,-2,2,-1
1511884704942101,0,1,-8,-5,-2,-1,-3,-1
1511884704955372,-1,1,2,-1,-3,-1,-1,0
1511884704955372,-1,1,3,5,2,1,3,6
1511884704962400,0,-2,3,13,8,-7,-8,-6
1511884704962400,1,0,-4,-15,-6,-1,0,4
1511884704977484,2,1,4,5,-1,2,0,0
1511884704977484,-2,0,-3,-2,2,0,-6,-1
1511884704985842,-3,0,1,0,-1,-2,3,0
1511884704985842,2,0,-1,3,-6,0,2,1
1511884705000685,0,3,0,-4,-1,-11,-8,3
1511884705000685,-1,-1,-1,-1,-8,-11,-7,-2
1511884705001688,1,2,-3,0,0,9,12,-1
1511884705001688,0,3,1,-3,0,-3,-4,2
1511884705014725,0,-5,-5,5,7,8,2,1
1511884705014725,2,-3,0,-4,-2,0,1,-1
1511884705022930,-1,1,-4,-9,-2,0,0,2
1511884705022930,-2,0,-1,-1,0,0,3,-3
1511884705037826,-3,1,1,9,4,0,-2,-3
1511884705037826,1,-3,1,0,-2,-1,-2,-4
1511884705045849,-2,-3,-4,-10,-5,0,0,-1
1511884705045849,-3,-3,-2,-1,3,-2,-4,2
1511884705060893,-2,-1,2,3,-1,-4,-4,-5
1511884705060893,-1,-3,-2,2,-3,0,0,-3
1511884705061882,-3,-1,1,-6,-2,9,5,-3
1511884705061882,0,1,-3,-2,-2,-5,0,3
1511884705074884,-1,1,3,5,3,6,2,1
1511884705074884,0,1,-1,4,1,-5,-6,2
1511884705083034,1,0,6,2,-3,0,2,0
1511884705083034,0,0,-5,2,-7,-4,-2,-5
1511884705098116,-1,0,-5,-15,5,-1,-6,-2
1511884705098116,-2,0,5,2,-3,-2,-7,-1
1511884705106282,0,-4,-7,-5,-1,2,2,1
1511884705106282,-1,-6,1,0,0,-7,-3,-3
1511884705121310,-1,-1,0,4,-3,3,6,0
1511884705121310,-2,1,-5,-5,4,-2,-3,-3
1511884705121310,1,2,0,3,1,0,5,1
1511884705121310,0,-1,4,4,-4,-1,-2,-2
1511884705135360,-1,-3,-10,-9,-4,0,-1,-2
1511884705135360,-2,-2,0,-3,-5,-1,5,4
1511884705143209,-4,0,2,11,5,-3,-2,-1
1511884705143209,3,-1,-1,-6,-1,5,4,2
1511884705157266,-3,0,5,6,3,-5,-4,-3
1511884705157266,1,0,-3,-2,-4,4,4,6
1511884705166276,1,-1,0,1,-1,3,5,2
1511884705166276,-1,1,4,4,1,-4,-4,-1
1511884705181404,0,-4,-9,-2,-8,-5,-7,-2
1511884705181404,-4,0,-3,-5,-3,3,0,-6
1511884705181404,1,-3,-2,-13,2,-7,-10,2
1511884705181404,-3,-2,2,14,7,6,5,0
1511884705195348,2,4,7,-6,-1,-1,0,2
1511884705195348,-1,-5,-2,4,-1,1,3,-3
1511884705202682,-1,-9,-5,-9,-8,-5,-4,-1
1511884705202682,-1,1,-6,-7,-6,-1,-7,-2
1511884705217552,-3,-3,6,12,4,-1,-5,3
1511884705217552,-1,-1,-1,-6,1,1,2,-3
1511884705225706,3,4,5,10,11,-2,-1,5
1511884705225706,-3,-3,-1,0,-3,3,-2,-1
1511884705239740,-2,-3,-3,0,-1,-6,-3,0
1511884705239740,0,-1,-14,-21,-3,7,5,1
1511884705248772,3,5,3,7,-3,-5,-6,-3
1511884705248772,1,4,8,6,1,0,4,2
1511884705254830,-3,-5,-2,2,-1,0,-1,-4
1511884705254830,0,1,-3,-7,-7,-8,-12,0
1511884705262862,0,-1,-4,-1,12,3,-7,-5
1511884705262862,1,-2,2,5,-1,-5,2,0
1511884705277889,0,2,-3,-11,-2,14,5,1
1511884705277889,-1,-1,2,8,-15,-1,9,-1
1511884705285906,-4,2,2,-11,2,-7,-8,-6
1511884705285906,1,-3,-3,-4,20,10,-5,8
1511884705300137,2,1,4,39,24,5,7,2
1511884705300137,-2,-2,-3,-23,-5,-2,-2,1
1511884705308144,0,-2,-4,4,-4,4,2,2
1511884705308144,2,4,4,18,-19,-18,-13,-7
1511884705315323,-4,-1,-7,-36,-23,-10,-3,-4
1511884705315323,1,6,10,22,18,2,-5,0
1511884705322480,-7,-10,-6,-5,-18,-2,4,-4
1511884705322480,-8,-8,-18,-24,5,5,2,-4
1511884705337564,1,1,0,5,-5,-10,-8,2
1511884705337564,3,6,23,38,22,14,1,-1
1511884705345576,0,-1,-7,-3,-1,2,8,3
1511884705345576,-1,-4,-14,-30,-17,-1,3,0
1511884705360646,-6,-5,-3,1,-1,-1,-5,-7
1511884705360646,-5,-12,-16,-18,-1,-5,0,-2
1511884705368544,1,5,18,22,-3,-1,-7,2
1511884705368544,1,5,-1,-20,-1,2,14,0
1511884705374812,0,0,6,12,17,1,-5,-1
1511884705374812,-1,-2,0,-8,-4,-11,-8,-2
1511884705382818,1,-2,1,10,6,16,0,-1
1511884705382818,-1,0,2,4,0,-7,3,-2
1511884705397814,0,-1,0,-6,-5,12,11,-1
1511884705397814,1,-3,-9,-3,5,-12,-17,3
1511884705406005,-1,0,-5,-8,-6,3,1,-3
1511884705406005,-4,0,2,5,-2,-3,4,-5
1511884705420052,4,1,3,10,8,5,-5,7
1511884705420052,1,-1,-3,-6,-11,-1,3,0
1511884705428967,-4,-3,-6,-10,0,-7,-1,-4
1511884705428967,1,0,2,10,4,22,7,3
1511884705443080,2,1,-4,-5,-4,-16,-2,-1
1511884705443080,-2,-1,1,0,-3,1,4,-3
1511884705444077,2,-1,-2,-5,-2,-4,1,3
1511884705444077,6,0,2,6,1,-11,-7,0
1511884705458119,-8,1,1,-3,1,10,10,-3
1511884705458119,-1,2,0,-2,-1,2,7,-3
1511884705466323,-3,-4,-3,2,5,11,-5,0
1511884705466323,-2,1,-2,2,2,1,7,4
1511884705480177,9,0,-1,-8,-12,-15,-5,5
1511884705480177,-1,0,-1,7,8,4,-4,-8
1511884705488371,0,0,-1,-15,-13,-4,-3,-2
1511884705488371,1,0,2,7,4,9,-17,-3
1511884705503415,-2,0,-2,11,19,-9,6,1
1511884705503415,0,-2,-4,-16,-27,0,0,2
1511884705504240,-1,-1,3,5,8,-8,-5,-2
1511884705504240,-3,-1,-2,-7,-8,-7,-10,0
1511884705517301,-1,-1,0,-1,-3,7,8,4
1511884705517301,-3,2,0,3,0,-7,-8,-7
1511884705526426,6,-3,2,5,7,3,6,16
1511884705526426,-4,-3,2,1,-1,-5,0,-16
1511884705540482,6,1,-4,-3,-6,13,13,-7
1511884705540482,-2,-4,-3,0,-1,-5,5,6
1511884705548825,-12,5,3,-1,-2,10,17,-20
1511884705548825,2,-2,1,0,5,1,-2,8
1511884705563683,2,-2,-2,-8,-10,-5,-11,-6
1511884705563683,3,0,2,5,5,5,-1,2
1511884705563683,2,3,-1,2,0,0,7,-7
1511884705563683,-1,-3,-2,-2,-5,-2,-1,-4
1511884705577916,-4,-4,1,-4,-1,-5,-1,-2
1511884705577916,2,-2,-2,1,2,2,1,8
1511884705585895,-1,0,-2,-1,-6,-9,-6,-2
1511884705585895,-2,-1,-1,0,2,1,4,2
1511884705600062,-2,1,1,-5,-13,-8,-12,7
1511884705600062,-3,-1,0,4,10,2,0,-13
1511884705607956,-1,-2,-3,-2,2,-4,-4,1
1511884705607956,1,2,0,1,0,2,5,-4
1511884705623049,-2,-1,-2,1,4,12,-6,-5
1511884705623049,1,0,0,3,-1,-1,12,4
1511884705624052,1,0,-1,-2,-3,-4,-2,1
1511884705624052,3,-4,-3,-4,-5,-3,0,4
1511884705638169,-13,-1,-2,-1,-2,-7,-14,-22
1511884705638169,0,0,-2,-2,-1,1,2,15
1511884705646152,3,0,-2,-3,-3,-6,-8,6
1511884705646152,13,-1,3,3,4,8,1,3
1511884705660150,-6,3,-1,0,2,-2,12,9
1511884705660150,-3,-6,-1,-1,0,-2,-9,-9
1511884705668174,-22,3,-4,-2,-4,-8,-6,-17
1511884705668174,18,-5,-2,1,-1,-2,-9,7
1511884705683249,-2,-1,6,-1,0,2,1,-15
1511884705683249,7,4,-3,-2,-5,-1,4,12
1511884705684215,5,-1,1,6,4,3,4,3
1511884705684215,-11,0,-3,-2,-1,-2,-3,-5
1511884705697294,0,-1,-4,-4,-2,1,2,-1
1511884705697294,4,0,0,1,0,-1,-2,1
1511884705706323,-5,-3,0,-1,-5,3,0,-10
1511884705706323,-7,-2,1,-2,-8,-4,6,0
1511884705720355,6,-1,0,0,7,1,0,4
1511884705720355,-8,-2,-2,2,5,1,-7,-7
1511884705728329,6,-5,-4,-3,-3,-4,-3,6
1511884705728329,-5,8,3,-1,1,1,0,-12
1511884705743505,5,-3,-3,-6,-9,-5,4,9
1511884705743505,1,-1,4,9,9,7,5,2
1511884705744508,2,-3,-1,0,0,-1,-8,3
1511884705744508,1,0,-3,2,0,-2,3,7
1511884705757682,-2,2,-1,-2,-5,-2,-4,-14
1511884705757682,-4,-1,0,0,0,-1,1,-3
1511884705765823,5,6,3,1,-1,0,0,5
1511884705765823,-11,-1,-5,-3,-2,-2,-1,-22
1511884705780776,-29,-2,-2,-8,-5,0,4,13
1511884705780776,18,-11,-2,-1,-1,-7,-6,0
1511884705788885,3,16,11,1,-2,-5,13,8
1511884705788885,-3,-10,-7,-1,1,10,4,-5
1511884705803857,2,-1,-4,1,2,-1,-11,-3
1511884705803857,-3,0,-1,-1,0,3,1,-8
1511884705803857,-4,-5,-2,-2,-2,1,-3,0
1511884705803857,4,9,3,6,3,1,5,8
1511884705817837,16,-6,-1,5,0,-1,-4,2
1511884705817837,-19,-7,-1,-11,-8,-3,-8,-7
1511884705826015,8,-1,-8,-5,0,4,-1,2
1511884705826015,5,7,8,3,8,-8,4,12
1511884705840021,2,-5,-6,-7,-7,0,-2,-9
1511884705840021,-8,-8,-7,7,6,-2,-1,4
1511884705848071,-14,-17,-7,-1,-7,-6,-10,-5
1511884705848071,12,3,-5,-27,-12,2,3,11
1511884705863082,-5,2,7,6,3,-11,-14,-13
1511884705863082,18,11,4,-1,-4,2,7,17
1511884705864084,-14,-4,3,18,11,-2,9,-6
1511884705864084,-3,-13,-5,-1,-2,13,8,5
1511884705878122,-8,2,7,1,3,3,0,5
1511884705878122,12,5,13,11,4,4,7,-4
1511884705885140,-1,-18,-16,-1,-8,-1,4,0
1511884705885140,-10,-2,-13,-21,0,-17,-26,-10
1511884705900180,3,1,3,7,-1,-1,1,3
1511884705900180,-12,1,6,18,6,2,5,-11
1511884705908201,16,7,1,-28,4,13,5,28
1511884705908201,-11,-18,-11,-4,-18,-5,7,-6
1511884705923241,5,6,6,14,-5,-11,-22,-5
1511884705923241,-8,-2,-2,0,11,21,26,0
1511884705924244,9,8,11,8,-16,-6,-10,-7
1511884705924244,-7,4,-6,-25,-11,6,13,5
1511884705937279,7,-8,-4,10,21,-8,1,10
1511884705937279,2,4,4,-18,15,3,4,-8
1511884705945301,12,13,7,25,26,6,-2,2
1511884705945301,0,3,8,23,5,-3,-1,-7
1511884705960341,-7,1,-1,-4,-15,8,-16,-21
1511884705960341,-2,-8,-7,-15,-21,-13,-23,3
1511884705968362,-6,-5,0,6,-4,-11,21,15
1511884705968362,2,13,11,9,0,-17,-24,3
1511884705983403,-9,-18,-10,-2,-1,-10,-7,-9
1511884705983403,-4,1,-8,-6,-1,14,-6,-6
1511884705984405,-6,-13,-8,-18,9,23,4,3
1511884705984405,5,1,0,6,-11,-24,-8,28
1511884705997439,7,-1,-7,-14,8,13,16,15
1511884705997439,-9,-1,-6,3,-25,-17,1,-6
1511884706005648,-6,-4,-5,-7,-1,-2,-9,-17
1511884706005648,4,2,5,0,4,10,-9,4
1511884706020501,11,1,1,0,2,-20,28,13
1511884706020501,5,-3,-7,-21,1,11,5,11
1511884706028549,-6,-7,-1,6,-9,-16,-19,-19
1511884706028549,-1,1,1,12,10,18,-4,-11
1511884706043563,5,9,3,-3,1,22,-1,3
1511884706043563,-3,3,4,7,-7,-33,-5,-9
1511884706043563,-2,-7,-8,-14,4,11,12,2
1511884706043563,-4,2,1,2,3,-2,-3,-15
1511884706057599,-5,-3,-5,-9,-14,-8,-5,6
1511884706057599,-1,0,-2,4,6,11,11,2
1511884706065620,8,2,6,2,-3,-5,-11,4
1511884706065620,-7,0,4,9,6,5,9,-8
1511884706079657,4,-2,-3,-3,0,1,9,22
1511884706079657,-10,-4,2,-1,-2,-9,-15,-14
1511884706088711,3,7,-1,-1,-4,4,16,-10
1511884706088711,-5,-1,4,2,4,5,6,12
1511884706103747,-3,-2,-1,-5,-2,5,4,7
1511884706103747,12,8,1,5,2,-2,4,7
1511884706103747,0,4,5,5,-2,-3,-3,0
1511884706103747,-6,-2,2,-1,-10,-6,-3,-12
1511884706117759,4,-2,-10,-17,-3,17,12,-7
1511884706117759,8,4,-10,-5,-8,-14,-5,15
1511884706124778,2,2,2,0,3,8,12,-1
1511884706124778,-1,-13,0,4,8,-4,-9,4
1511884706154858,-2,7,9,7,-8,0,1,-20
1511884706154858,-1,-6,0,3,8,4,0,-2
1511884706163882,-5,2,-7,-14,-12,-7,-8,14
1511884706163882,6,-4,-7,-11,-4,1,9,4
1511884706187072,-3,1,-2,3,-5,-10,-3,-8
1511884706187072,-1,3,1,1,1,-1,-9,-4
1511884706187947,-17,-8,-2,0,-3,-7,0,-21
1511884706187947,15,0,0,-1,5,21,46,38
1511884706208031,9,4,6,2,-3,-12,-14,13
1511884706208031,-11,-3,-6,-3,-4,3,0,-20
1511884706217239,3,4,2,4,8,3,-8,-14
1511884706217239,-4,-3,-5,-6,-9,-5,-9,-2
1511884706239412,-3,-1,-2,5,11,9,18,4
1511884706239412,4,1,6,2,0,-5,-17,-9
1511884706241241,0,1,2,8,0,-3,-3,0
1511884706241241,-2,0,-1,-12,1,2,-1,-11
1511884706260291,12,8,2,-1,-5,-6,-3,27
1511884706260291,-1,-10,-3,-2,0,2,-6,10
1511884706269504,2,0,-3,0,-2,-5,-16,-11
1511884706269504,2,6,3,5,-1,-8,-5,-7
1511884706270315,-7,-3,1,1,5,5,0,-11
1511884706270315,-7,-12,-7,-3,-4,1,8,7
1511884706276402,0,1,-1,-1,-1,2,6,3
1511884706276402,-2,-4,-2,0,0,-4,-20,-17
1511884706283457,-9,-6,1,4,7,8,10,-3
1511884706283457,1,6,1,-5,-5,-5,-5,1
1511884706284351,2,0,0,0,-3,-6,-7,0
1511884706284351,3,-6,-2,3,-6,-8,-20,-8
1511884706291372,-26,-6,-3,-6,3,3,10,-11
1511884706291372,10,5,1,-1,-2,-1,1,5
1511884706293389,-7,-6,-1,-4,-9,-4,3,5
1511884706293389,3,2,-9,-2,-4,0,3,18
1511884706297388,1,4,9,13,13,1,-3,-10
1511884706297388,2,-4,-8,-17,-7,6,9,23
1511884706305590,-2,2,3,0,0,-3,0,-4
1511884706305590,-4,-1,3,2,-18,-8,-4,-13
1511884706320551,12,4,1,6,19,5,-11,6
1511884706320551,-4,2,0,6,5,3,10,-11
1511884706328471,-6,-5,-7,-13,-16,-3,-7,-13
1511884706328471,-2,0,-2,2,13,-3,-1,13
1511884706342514,0,-2,-2,-6,-5,3,-4,-11
1511884706342514,1,8,11,8,1,-3,-4,-16
1511884706350646,4,-3,4,11,1,2,1,15
1511884706350646,-11,-7,-9,-3,1,0,-19,-22
1511884706365667,1,-7,-8,-6,-14,-3,-3,0
1511884706365667,3,1,-12,-3,5,-2,0,0
1511884706366568,-20,-10,-8,-9,-7,-3,-10,-5
1511884706366568,3,1,-5,5,3,-8,7,9
1511884706380791,4,3,-20,-48,-22,-3,0,-2
1511884706380791,-10,-13,22,29,-23,-2,2,3
1511884706388806,11,8,1,-9,46,14,0,2
1511884706388806,2,3,-7,7,-16,-5,5,-7
1511884706402862,2,7,8,-14,8,3,7,1
1511884706402862,-1,-8,-2,15,5,-2,5,0
1511884706410814,2,4,-11,-17,-17,0,-1,-7
1511884706410814,-14,-7,5,-6,-2,-5,11,-18
1511884706425750,0,0,-9,0,4,-1,-14,1
1511884706425750,-4,3,9,21,29,13,12,-5
1511884706426755,3,1,9,0,-7,-7,3,8
1511884706426755,0,1,-3,-3,8,14,-9,-12
1511884706440786,2,-4,0,-2,-28,-9,1,-3
1511884706440786,4,11,-3,-11,3,-6,-9,-9
1511884706448831,-3,0,-3,20,14,1,-17,-18
1511884706448831,-9,-5,7,0,6,11,20,8
1511884706462845,19,-1,-4,4,2,-4,-4,7
1511884706462845,-7,5,-2,-3,-5,-5,-5,-19
1511884706470959,-9,-9,-2,-1,-10,-13,-7,1
1511884706470959,10,10,0,-8,1,-1,-5,8
1511884706486066,-4,-2,1,4,-13,-4,3,6
1511884706486066,0,0,-3,-9,5,-7,-9,3
1511884706487043,9,3,1,2,-1,5,7,4
1511884706487043,0,9,1,-7,3,-3,-2,1
1511884706499927,-10,-16,1,2,1,-3,-2,1
1511884706499927,4,1,0,-3,-12,5,1,-3
1511884706507949,0,2,2,4,3,1,7,8
1511884706507949,3,4,4,5,9,5,-7,-2
1511884706523168,-1,4,3,0,-3,2,17,0
1511884706523168,0,-8,-7,-8,9,-18,-15,5
1511884706531011,4,2,1,3,-3,17,10,6
1511884706531011,1,-7,-1,3,6,-10,-9,-3
1511884706546046,-5,3,-3,-3,-7,0,-7,-9
1511884706546046,-4,0,3,-5,-4,6,23,7
1511884706547053,3,0,5,4,-8,-6,-4,3
1511884706547053,6,11,6,3,2,6,2,-3
1511884706560087,-20,-23,-7,4,15,-2,-8,-8
1511884706560087,0,0,-2,-4,-4,9,6,4
1511884706568282,0,-1,-4,-4,-2,-5,-2,-10
1511884706568282,-1,-3,2,-5,-8,-1,0,-4
1511884706583222,7,9,7,11,6,-1,-3,3
1511884706583222,0,-7,-8,-5,-3,-1,-9,-2
1511884706591172,-8,1,-1,-6,-8,-3,-2,-10
1511884706591172,7,-6,2,2,0,-2,3,10
1511884706606401,-7,8,-6,4,2,-2,-4,-6
1511884706606401,-5,2,-6,-15,-9,-4,-3,0
1511884706606401,0,3,0,-2,-1,0,0,5
1511884706606401,0,-3,-2,4,4,-1,5,0
1511884706620585,3,4,4,1,-1,1,6,2
1511884706620585,8,5,9,2,5,8,10,8
1511884706628420,2,0,-4,-2,-8,-7,0,8
1511884706628420,-3,-4,-2,1,0,-5,-2,6
1511884706642460,-3,-4,-1,-4,-6,1,-7,-7
1511884706642460,-1,1,2,6,-4,-4,7,-6
1511884706650645,5,-5,6,4,10,-3,3,6
1511884706650645,-4,4,1,-5,-1,-4,-3,-10
1511884706665607,5,2,7,13,3,2,8,3
1511884706665607,-4,-10,-10,-11,-10,-8,-12,-1
1511884706666521,6,9,-1,-3,3,5,3,2
1511884706666521,-1,4,10,10,-1,0,0,-4
1511884706680677,-16,-10,-8,-8,-3,-3,-14,-22
1511884706680677,3,-3,-2,0,1,0,-3,16
1511884706688772,-1,27,-3,-5,-4,-4,4,8
1511884706688772,9,-30,11,5,5,7,-5,-9
1511884706702739,-1,4,0,6,4,-3,-10,-4
1511884706702739,-5,-4,8,8,6,4,7,-8
1511884706711766,13,-8,-6,-5,-4,-5,-7,19
1511884706711766,-12,9,-4,-3,0,8,1,-14
1511884706724802,10,0,-2,-4,-9,-25,-12,38
1511884706724802,-4,-3,-2,-1,-2,6,4,3
1511884706733839,-2,-8,4,2,0,4,4,-7
1511884706733839,0,-1,-8,-1,0,-4,-5,2
1511884706739842,0,6,11,5,7,11,13,-8
1511884706739842,1,5,-2,-13,-15,-7,-10,-3
1511884706748895,-7,-10,-2,8,3,4,4,2
1511884706748895,-4,4,-3,-7,-4,-8,-4,2
1511884706762941,-6,9,0,1,2,0,-2,-12
1511884706762941,7,-4,-8,-1,6,-1,-3,6
1511884706771926,0,8,3,0,-1,2,-1,0
1511884706771926,-5,-11,-7,-2,-6,-5,-1,2
1511884706784963,-4,3,-6,0,0,1,-1,-11
1511884706784963,6,4,0,-2,-5,1,3,17
1511884706793981,-7,-17,-8,0,3,0,-3,-13
1511884706793981,16,17,10,-4,-1,-5,-4,15
1511884706799997,-38,-8,-4,3,2,7,1,-30
1511884706799997,34,2,-2,0,0,-3,-8,16
1511884706809021,0,-10,-4,-3,-2,-3,-6,-5
1511884706809021,-8,4,0,0,-3,3,12,-11
1511884706823061,17,17,6,-2,-2,0,0,13
1511884706823061,-16,-28,-4,4,4,0,1,-17
1511884706832083,3,14,0,1,0,1,-3,-5
1511884706832083,2,-8,-3,2,0,-1,3,17
1511884706861159,7,1,-1,0,-4,-2,-7,-4
1511884706861159,-6,8,3,1,5,6,16,-6
1511884706863165,8,-1,-3,-5,-5,-3,3,13
1511884706863165,2,8,-4,-3,-4,-11,-17,-9
1511884706890237,-6,-10,1,2,0,2,0,14
1511884706890237,-9,-2,-2,-4,-2,0,-7,-10
1511884706900269,-7,1,7,3,0,0,-7,-19
1511884706900269,-5,6,5,4,6,5,8,8
1511884706913403,15,-3,-4,-5,-5,-4,-11,10
1511884706913403,-4,3,2,0,-4,1,-2,-16
1511884706920408,9,-6,-2,-1,2,-1,1,30
1511884706920408,-19,-37,-13,-5,-3,1,-4,-30
1511884706927478,18,-2,1,6,4,1,3,12
1511884706927478,-1,25,5,-2,-3,0,3,2
1511884706936542,-13,-40,-11,-7,-2,-1,0,-11
1511884706936542,-5,-2,-2,1,-1,2,2,5
1511884706951661,23,17,3,2,-2,-6,-7,8
1511884706951661,-6,5,-6,-15,-8,-1,6,-17
1511884706953589,-10,0,-10,2,2,-1,-1,3
1511884706953589,-9,-2,-1,-1,-3,-2,-2,5
1511884706965623,-39,1,2,8,3,0,0,-29
1511884706965623,18,-42,-8,-8,-8,-4,-6,21
1511884706966623,24,34,10,-1,-3,-5,-1,-4
1511884706966623,21,27,7,8,5,7,4,6
1511884706988846,-8,-7,-4,-8,-2,1,6,-5
1511884706988846,-14,-2,1,11,2,-5,-8,-3
1511884706989701,-15,-1,-4,0,-9,-5,2,-14
1511884706989701,0,-12,-12,-14,-2,-2,-9,1
1511884707003907,6,5,-3,-13,3,0,1,-6
1511884707003907,4,12,1,-6,1,0,-5,-10
1511884707005728,-15,-9,8,3,-2,6,-1,-19
1511884707005728,2,11,8,16,0,-4,4,10
1511884707018875,4,2,-1,-1,4,-4,-6,-3
1511884707018875,1,7,1,9,0,6,10,2
1511884707020791,0,4,-7,-5,2,-1,4,16
1511884707020791,-13,-17,-4,-4,-4,-4,-3,-15
1511884707032829,19,16,-1,-7,-7,1,2,8
1511884707032829,-11,-14,1,9,2,-5,-10,-3
1511884707041823,4,11,5,1,-3,-1,1,-6
1511884707041823,-9,-14,-12,-16,-7,-2,3,-6
1511884707056863,-10,-53,-5,9,2,-1,-1,1
1511884707056863,-3,26,3,-3,-2,3,-3,-10
1511884707057865,1,-7,0,4,2,-1,-1,5
1511884707057865,8,5,8,7,3,4,2,8
1511884707069937,4,6,4,1,1,3,6,7
1511884707069937,-24,-14,-7,-4,-2,-4,-4,-7
1511884707078965,4,-2,-3,-1,3,0,4,1
1511884707078965,-2,3,2,2,4,1,1,-1
1511884707107998,0,5,-7,-1,-3,0,4,-4
1511884707107998,9,9,-3,-10,-4,-9,-4,2
1511884707117165,-1,6,5,2,1,5,1,-6
1511884707117165,4,6,2,4,-3,-2,4,0
1511884707131326,4,8,8,0,-3,0,7,13
1511884707131326,0,-6,3,3,3,-3,1,-2
1511884707133212,-6,-5,-3,2,-1,-2,-3,-1
1511884707133212,2,-1,-4,-9,-2,3,0,1
1511884707146254,-3,0,-3,-7,-6,-3,-5,-5
1511884707146254,3,6,1,-4,-1,0,-1,3
1511884707146254,-2,-7,1,-1,3,-2,2,0
1511884707146254,4,4,2,0,-2,-1,-7,1
1511884707168300,4,1,3,6,3,2,-3,1
1511884707168300,-2,3,-2,1,-3,0,4,6
1511884707169302,4,0,-3,-5,4,2,3,-4
1511884707169302,8,8,-5,-10,-5,-2,0,-4
1511884707183428,-8,-15,1,4,2,1,-1,-2
1511884707183428,6,10,4,7,2,-4,1,7
1511884707190360,-3,-5,-5,-10,-5,-4,-4,-3
1511884707190360,0,-4,-1,1,1,-1,0,6
1511884707199387,3,8,4,5,-2,-5,-3,-2
1511884707199387,-4,-5,2,5,-1,0,-2,-7
1511884707200385,-6,-8,-7,-6,-1,-3,-8,1
1511884707200385,-4,-4,-3,-5,-4,-1,0,-9
1511884707205433,-2,-6,1,0,-2,-1,0,2
1511884707205433,-1,-11,-11,-7,-1,-1,-2,-6
1511884707214557,3,3,3,1,-5,-1,-3,1
1511884707214557,1,5,-2,-1,-1,-4,3,-3
1511884707228593,1,-5,2,4,1,-1,-3,-3
1511884707228593,-3,-8,-6,0,3,2,-1,-6
1511884707230595,-5,-11,-9,-16,-8,-4,-4,-1
1511884707230595,7,12,4,4,2,1,2,1
1511884707242630,-9,-22,-7,-3,-4,-1,-2,-7
1511884707242630,-1,2,2,2,-1,-2,-4,-6
1511884707251651,0,4,5,7,1,1,3,3
1511884707251651,-3,-2,3,9,5,2,-1,1
1511884707265696,-1,7,-3,-7,-4,-4,-3,-4
1511884707265696,4,5,-8,-10,-3,0,-4,-2
1511884707273713,0,0,4,4,1,0,3,7
1511884707273713,-1,-1,3,2,-2,0,1,1
1511884707279728,4,7,0,1,1,0,3,1
1511884707279728,-1,2,0,-3,-2,0,0,1
1511884707288750,0,6,-3,-1,1,-2,-3,-1
1511884707288750,-6,-9,-5,-5,-2,-1,-6,-8
1511884707302813,-2,3,3,-1,-5,1,3,3
1511884707302813,1,-8,-1,6,6,1,-2,1
1511884707311836,0,-8,3,-1,-4,2,0,0
1511884707311836,-1,3,-3,0,2,2,-1,-1
1511884707324896,-3,-8,6,5,-1,1,0,-4
1511884707324896,-2,-6,-8,-7,-3,-2,0,-1
1511884707333897,-2,-1,-8,-9,-4,-3,-3,-9
1511884707333897,-2,-6,-5,-3,0,1,3,9
1511884707348910,2,-6,1,0,1,-3,-1,6
1511884707348910,0,8,14,12,7,3,3,0
1511884707350915,-1,0,3,11,3,0,2,-1
1511884707350915,-4,-5,-2,-2,-6,-2,-2,-11
1511884707372126,0,-3,-20,-32,-8,-3,-6,0
1511884707372126,0,0,5,7,2,0,-3,-2
1511884707372974,0,-2,4,4,4,0,0,3
1511884707372974,1,0,5,8,3,-2,2,-2
1511884707385009,3,-6,-5,2,1,-2,1,3
1511884707385009,-3,-2,1,-1,-2,-4,-4,-1
1511884707394171,0,2,-2,-1,-1,-1,0,2
1511884707394171,-2,-2,-6,-9,-2,0,-3,-1
1511884707409230,1,5,7,4,-1,1,4,-2
1511884707409230,1,-4,-8,-8,-7,-3,1,1
1511884707410218,-2,0,6,3,2,2,1,-4
1511884707410218,-1,-5,-2,-5,-4,-1,0,4
1511884707422246,-2,-2,-2,3,3,0,-2,0
1511884707422246,-2,3,0,3,1,1,-2,0
1511884707431270,4,6,4,2,1,0,-1,0
1511884707431270,-3,-2,-6,-3,-7,-4,0,3
1511884707445306,-3,1,-8,-13,-3,1,-1,-7
1511884707445306,-1,-4,-1,-4,0,-3,6,6
1511884707454361,1,6,1,-4,-5,-1,0,-5
1511884707454361,2,0,7,4,2,0,-3,2
1511884707469530,-2,-1,-1,8,1,1,-1,-2
1511884707469530,-1,-3,-8,-9,-3,-2,-1,3
1511884707470509,-2,-2,-6,-4,0,-2,-2,-6
1511884707470509,-1,1,5,4,2,-2,0,-6
1511884707482545,-3,-6,-2,1,2,2,1,2
1511884707482545,0,1,-2,-2,-1,0,-5,-4
1511884707491565,-1,-1,1,-1,-4,-2,-3,3
1511884707491565,-1,1,-2,0,-1,-1,-3,-1
1511884707505602,3,7,12,6,3,0,0,0
1511884707505602,1,-1,0,0,-2,-1,4,1
1511884707514632,-4,-12,-19,-13,-5,-2,-2,0
1511884707514632,-2,-1,-7,-9,-2,-5,-2,-4
1511884707528667,-2,7,0,-3,-2,1,1,-1
1511884707528667,0,0,13,8,2,1,0,2
1511884707530704,1,-1,4,10,4,0,-1,1
1511884707530704,-5,-8,-8,-5,-1,-1,1,-3
1511884707542873,0,-7,-9,-2,-3,-4,-3,1
1511884707542873,-1,1,-6,-11,-6,2,-3,-4
1511884707551917,-4,0,-1,-2,-1,1,1,-4
1511884707551917,0,3,3,3,0,2,6,5
1511884707564935,1,5,1,6,3,-2,3,2
1511884707564935,0,-1,-1,2,0,-2,0,-4
1511884707573956,1,-1,-2,-3,-2,-4,-5,-2
1511884707573956,0,7,3,1,-1,1,-3,-3
1511884707589124,-4,-1,-1,-4,-3,0,-1,-9
1511884707589124,-1,-4,-2,0,1,0,0,3
1511884707591001,4,10,2,5,3,2,4,5
1511884707591001,1,0,1,2,1,-1,0,-3
1511884707603230,-1,-2,1,4,4,3,-3,2
1511884707603230,-1,4,4,1,0,-2,-2,-2
1511884707612070,-4,-2,-3,-6,-5,-1,-2,-2
1511884707612070,-2,-5,-11,-16,-2,-1,-3,1
1511884707625094,0,-3,2,-1,0,2,2,1
1511884707625094,3,3,5,6,2,0,0,0
1511884707634115,0,2,14,9,-1,0,0,-2
1511884707634115,-2,-5,-8,9,1,-3,1,-2
1511884707649284,-4,-8,-20,-29,-4,-1,-7,-9
1511884707649284,-2,-3,-3,-5,-3,-2,-1,2
1511884707650278,1,1,-1,0,1,-3,0,1
1511884707650278,2,5,11,11,1,-2,-1,2
1511884707662193,1,1,5,8,-1,2,3,-1
1511884707662193,-4,-6,-5,2,2,0,-10,-5
1511884707671387,-2,0,-1,-6,0,-2,2,10
1511884707671387,3,8,0,2,1,4,0,-3
1511884707685489,0,-6,-7,-4,-3,-5,1,5
1511884707685489,0,-2,-1,-6,-4,-1,1,-1
1511884707694421,-3,-4,-3,1,3,2,1,0
1511884707694421,-3,-1,-1,-1,-1,2,-2,-1
1511884707708631,2,5,6,2,0,-1,-3,4
1511884707708631,-2,3,-2,-3,-3,1,-1,-6
1511884707710460,0,-1,-6,-2,-1,-3,-2,0
1511884707710460,0,-5,2,-2,-2,-1,0,-3
1511884707722677,0,-3,-1,4,2,-1,-1,0
1511884707722677,1,-5,-3,-2,1,0,0,4
1511884707731515,1,4,1,-4,-4,1,-3,-4
1511884707731515,-2,-8,2,4,-1,-1,0,1
1511884707745662,-2,2,-3,-5,-2,-1,0,0
1511884707745662,0,0,-4,-6,-5,-1,5,3
1511884707754596,-1,-10,-8,2,2,1,-1,1
1511884707754596,-2,-3,-3,-5,-1,-5,-4,3
1511884707768715,-3,-1,-2,0,-4,-4,0,-1
1511884707768715,-1,-2,3,2,3,1,0,0
1511884707770720,1,-6,5,6,-1,0,2,0
1511884707770720,-2,-7,-8,-11,-3,2,-2,-1
1511884707782947,2,4,5,1,1,1,2,-4
1511884707782947,2,1,1,-1,1,0,1,12
1511884707791783,2,7,2,5,0,-1,-3,-6
1511884707791783,1,-4,1,6,3,3,2,7
1511884707804852,-1,-3,-2,-3,-1,-3,-2,-2
1511884707804852,2,-9,1,3,2,2,2,-3
1511884707813951,-1,-2,-7,-7,-3,-1,-2,-3
1511884707813951,2,5,-1,-3,-1,-2,-2,-4
1511884707828970,-1,0,-2,-2,0,2,-1,0
1511884707828970,1,2,3,5,1,-2,1,0
1511884707830975,1,3,3,2,2,0,1,-2
1511884707830975,-1,-1,-1,2,-2,-2,-2,0
1511884707843144,-3,-4,-3,-2,-5,-3,-1,-3
1511884707843144,-1,-1,-8,-12,0,-2,2,-3
1511884707851167,-3,2,0,-9,1,0,1,3
1511884707851167,1,2,5,3,2,2,1,0
1511884707865249,1,4,4,13,6,-1,-3,-2
1511884707865249,-1,2,-2,-3,-7,-4,-4,-3
1511884707874228,-2,-2,-9,-7,-5,0,0,0
1511884707874228,-1,-4,-3,-8,-2,-2,-1,-1
1511884707889379,-2,6,4,2,3,5,3,-4
1511884707889379,0,-6,-3,3,1,-2,-4,0
1511884707890272,1,0,3,3,1,0,4,1
1511884707890272,2,2,-2,-3,-5,0,-1,-1
1511884707902411,-1,0,-3,-1,1,0,6,5
1511884707902411,-1,5,3,-4,0,1,0,0
1511884707911383,-3,-21,-10,-1,-2,-3,-5,-1
1511884707911383,-1,2,0,-2,0,1,2,1
1511884707925363,2,-1,-1,-7,0,1,-5,-3
1511884707925363,-2,-3,1,2,1,3,0,-3
1511884707934558,2,9,7,4,2,0,0,0
1511884707934558,-3,-1,-4,-1,1,0,1,-8
1511884707949598,0,-5,-1,-2,-5,0,1,4
1511884707949598,-1,5,3,4,4,0,0,-2
1511884707950573,0,2,0,-1,-4,1,-2,0
1511884707950573,-5,-1,-4,-5,-2,-4,0,-1
1511884707962797,-1,-1,-5,-7,-3,-6,2,3
1511884707962797,1,6,1,4,-1,2,3,-1
1511884707971629,-1,-2,-3,-2,-2,-2,-1,-2
1511884707971629,-1,0,2,-3,0,-1,-4,-1
1511884707985751,0,0,-2,0,-3,-1,-2,-3
1511884707985751,-1,4,-2,-3,0,-2,0,1
1511884707994689,-3,-4,-4,-5,-3,1,-1,2
1511884707994689,1,0,4,9,8,0,0,-5
1511884708008730,2,0,4,5,-1,1,1,7
1511884708008730,-1,-3,-6,-6,-4,-2,-3,-4
1511884708010731,-2,2,2,2,4,4,3,-5
1511884708010731,3,1,0,-1,-5,-1,-2,0
1511884708022908,-3,-2,-2,-2,6,2,0,-5
1511884708022908,-3,-4,-1,1,-1,-3,-7,-2
1511884708031937,1,0,1,2,-1,-3,1,1
1511884708031937,0,1,-1,-3,0,1,1,-4
1511884708045018,0,-1,-1,3,-2,0,2,1
1511884708045018,-1,4,-1,0,-5,-2,-2,0
1511884708054081,-2,1,4,5,5,-3,-4,-2
1511884708054081,-1,0,-5,-3,-3,-2,0,0
1511884708068118,-2,4,1,-2,-1,-1,-4,-1
1511884708068118,-2,-8,-8,-13,-11,0,-1,2
1511884708075137,1,-1,2,9,2,1,0,-2
1511884708075137,0,3,0,-5,-1,-4,0,-2
1511884708082156,-2,-5,-1,-2,1,-1,-3,-2
1511884708082156,1,1,2,3,2,0,2,1
1511884708091387,2,2,2,-6,-2,1,2,0
1511884708091387,-1,2,-1,3,-1,1,-4,-2
1511884708105345,-2,-4,-1,-1,-3,0,2,0
1511884708105345,-3,-6,0,4,5,-2,-2,-8
1511884708114239,-2,0,-2,-2,1,-1,-1,1
1511884708114239,-1,-8,-4,-9,-3,0,0,-1
1511884708128279,-3,1,-3,-2,-3,-3,-1,-3
1511884708128279,2,7,4,2,0,2,2,-3
1511884708135538,-1,-2,-3,-3,-1,-1,-2,1
1511884708135538,0,-3,-2,2,2,0,0,3
1511884708142376,1,3,-1,1,-1,-2,-2,-7
1511884708142376,0,4,5,7,3,2,4,5
1511884708151397,0,2,-2,1,-3,-5,2,1
1511884708151397,-3,-2,-2,-4,-4,-2,-6,-1
1511884708165563,2,2,-1,0,1,1,1,0
1511884708165563,1,-1,-4,-8,-1,-1,-1,2
1511884708174458,2,5,1,-1,-1,-1,-1,0
1511884708174458,1,-4,4,8,4,3,3,1
1511884708188674,-2,0,-1,2,0,2,-4,-5
1511884708188674,-1,-3,-3,-6,-2,-2,-1,0
1511884708195614,-4,-6,-14,-13,-7,-3,-2,-4
1511884708195614,-1,4,-1,-4,-1,-1,-3,3
1511884708202613,0,-3,0,-1,1,0,-1,-3
1511884708202613,-1,0,3,5,-1,-1,0,-1
1511884708211556,1,1,1,4,1,-2,-3,-5
1511884708211556,1,1,-7,-10,-5,-1,2,5
1511884708225597,2,0,2,2,0,1,3,1
1511884708225597,-1,1,1,3,1,0,1,-1
1511884708233618,-1,-2,3,3,3,2,0,-4
1511884708233618,0,-4,5,4,2,-1,0,4
1511884708248905,-3,-6,-7,-4,-3,-3,-1,1
1511884708248905,1,6,-1,-6,-1,-1,-4,-1
1511884708255023,-1,-4,-7,-8,-5,1,-2,-4
1511884708255023,1,3,1,0,0,-3,0,-1
1511884708271246,-1,-1,1,1,1,1,-2,-5
1511884708271246,1,0,5,9,3,0,2,2
1511884708273071,-3,0,-3,2,-1,0,0,2
1511884708273071,-1,-1,1,-7,-7,-1,1,-2
1511884708285274,1,0,6,8,6,0,0,3
1511884708285274,-4,-3,-8,-5,-4,0,0,-2
1511884708295129,0,-2,-5,-8,-3,-4,0,1
1511884708295129,-1,0,-3,-4,0,1,1,-2
1511884708308166,-3,-3,0,-5,-2,-3,0,1
1511884708308166,0,0,4,3,0,-1,-3,-3
1511884708315271,0,1,6,10,1,0,0,4
1511884708315271,-3,3,-1,2,-3,-2,-3,-3
1511884708331313,-1,-11,-6,-6,-3,1,2,1
1511884708331313,0,4,-5,-6,-1,-1,-1,-3
1511884708333354,3,9,7,3,2,2,2,4
1511884708333354,-1,0,3,5,-1,-2,-1,-4
1511884708345350,-1,2,2,5,-1,0,-3,2
1511884708345350,-1,-6,-9,-13,-5,-1,-3,-1
1511884708354371,1,3,-6,-5,-6,-3,-4,-3
1511884708354371,1,-5,-1,-3,3,0,0,-4
1511884708368410,2,3,5,7,0,-1,0,3
1511884708368410,-5,-7,-7,-6,-2,-4,-2,-1
1511884708375431,0,-6,-1,1,5,3,1,3
1511884708375431,-1,1,-2,2,-4,1,2,-4
1511884708391473,-1,-1,-1,-6,-3,-3,-4,0
1511884708391473,0,0,4,5,3,3,1,2
1511884708393479,-1,0,3,4,1,-1,-3,-4
1511884708393479,-2,-4,-5,-4,-2,-2,-1,2
1511884708405617,-2,-1,1,0,2,3,2,1
1511884708405617,-1,-1,-6,1,-4,-1,0,1
1511884708414722,-2,-5,-3,-8,-5,-3,1,-1
1511884708414722,3,2,-6,-12,-4,0,-5,0
1511884708428671,0,-1,-3,0,0,0,0,5
1511884708428671,-3,-4,5,11,7,-2,0,-3
1511884708435752,-1,-1,3,-3,-5,-1,1,-1
1511884708435752,0,-2,0,2,5,0,0,-1
1511884708451798,2,1,-4,-3,-5,-3,-1,-2
1511884708451798,1,2,0,-1,0,1,-3,-5
1511884708452816,-2,-3,-4,-3,0,-2,0,3
1511884708452816,-2,-3,3,1,1,3,0,0
1511884708464899,-1,2,2,12,7,1,-1,0
1511884708464899,-1,0,5,-4,-11,-1,-2,-3
1511884708473792,-1,-1,-10,-8,-1,6,13,10
1511884708473792,3,-2,-3,-3,-1,-3,1,9
1511884708488874,0,2,-2,4,3,0,-1,-2
1511884708488874,0,-3,-1,-4,-5,-2,5,1
1511884708494849,1,2,9,6,0,-1,-11,-6
1511884708494849,-5,-6,-11,-3,-2,-1,0,0
1511884708512047,1,7,-3,-16,1,-3,-2,-2
1511884708512047,-2,-8,-5,-4,-5,1,5,1
1511884708513051,0,-1,2,3,-2,-5,-6,-3
1511884708513051,3,2,6,11,9,3,5,0
1511884708525080,-1,0,1,6,2,-2,-4,0
1511884708525080,2,-2,1,-5,-2,1,-1,-2
1511884708534102,-3,-2,-4,-5,0,-2,-2,-3
1511884708534102,-3,-1,0,-1,-3,-7,-3,1
1511884708548248,1,-1,-1,-6,-4,7,6,-3
1511884708548248,2,2,5,10,6,-1,-9,2
1511884708555160,2,-3,3,10,5,-2,1,-3
1511884708555160,-3,0,-7,-11,-6,-6,-9,-2
1511884708571385,-2,-4,-4,-3,-4,-13,-10,-5
1511884708571385,5,1,3,3,2,12,5,9
1511884708573206,2,2,0,-1,3,1,0,-3
1511884708573206,-6,-1,0,3,-4,-9,-4,-7
1511884708585267,0,-1,-3,-13,-3,27,31,10
1511884708585267,0,2,2,6,-2,-9,-23,-3
1511884708594261,-4,-4,1,3,10,7,17,2
1511884708594261,1,-8,-8,-9,-26,-14,-17,0
1511884708607301,-5,-4,-9,-5,-1,0,5,-5
1511884708607301,-2,1,-4,-5,3,-1,0,-2
1511884708616321,1,4,4,8,0,-10,-14,0
1511884708616321,-2,0,3,-1,5,18,9,-2
1511884708631403,-5,-6,-1,4,-3,-12,-4,-2
1511884708631403,0,-2,-2,-5,-1,2,4,-2
1511884708633369,-3,-1,-2,-3,-2,-2,-5,-1
1511884708633369,-3,0,-5,-11,0,-1,-6,-2
1511884708645397,3,4,-1,-1,0,-4,5,-1
1511884708645397,-3,-2,4,6,5,2,-3,-2
1511884708654422,0,-3,-8,1,-2,-4,0,1
1511884708654422,-4,-1,4,-7,2,0,2,-2
1511884708667456,-5,-4,0,1,-1,1,-12,-5
1511884708667456,3,-1,-5,-6,3,-2,4,-2
1511884708676480,0,3,9,9,-1,5,2,0
1511884708676480,-2,-7,-12,3,-8,5,11,0
1511884708691524,0,1,-3,-14,5,-15,-17,-2
1511884708691524,-3,1,6,11,-5,-2,0,-1
1511884708697539,1,-2,-1,-2,4,-1,-10,-1
1511884708697539,3,5,7,7,0,-3,-7,1
1511884708705715,-2,-5,0,6,-5,3,11,0
1511884708705715,-5,-2,-12,-23,-28,-9,1,-3
1511884708714637,0,-2,-6,3,23,-1,-11,-3
1511884708714637,2,5,6,-1,-2,12,34,6
1511884708727619,2,0,4,9,4,-8,-16,0
1511884708727619,-1,0,0,0,5,-3,0,0
1511884708736643,-3,0,0,-4,-14,1,6,1
1511884708736643,-3,-1,0,16,15,-6,-12,-5
1511884708751779,-2,-2,-13,-23,-16,0,-1,0
1511884708751779,0,-2,3,2,4,0,11,4
1511884708752839,-3,-5,-9,-19,-11,3,-1,-2
1511884708752839,3,3,5,4,5,0,0,2
1511884708764876,4,4,11,16,1,-4,-1,3
1511884708764876,-1,-3,-4,4,5,0,1,-2
1511884708773896,-1,-2,-7,-24,-8,-1,-10,-3
1511884708773896,-1,-1,-4,-2,-21,6,11,3
1511884708787939,0,0,3,4,12,-8,-13,0
1511884708787939,-1,5,0,-6,14,16,20,-2
1511884708796993,1,0,4,12,2,-8,-6,-1
1511884708796993,-1,-4,-6,-10,-11,9,-3,1
1511884708812033,2,0,-2,-5,-13,-4,-15,-4
1511884708812033,1,3,1,5,4,-15,2,2
1511884708813004,-4,-3,0,-6,-8,-6,-13,-3
1511884708813004,1,1,4,0,9,13,21,-1
1511884708825037,0,3,4,11,13,8,-4,-1
1511884708825037,-1,-7,-10,-6,-4,-7,1,-3
1511884708834062,0,2,1,1,-10,-9,-5,2
1511884708834062,-1,3,5,4,7,2,-10,-2
1511884708848124,-2,-1,1,-1,-4,4,13,1
1511884708848124,-3,-1,0,4,11,12,-8,-5
1511884708857120,2,0,-2,-1,-13,-10,15,6
1511884708857120,1,-2,-1,-2,0,-12,-12,-1
1511884708872168,1,-1,-2,3,1,0,7,5
1511884708872168,-1,-1,0,1,3,20,0,-2
1511884708873162,-3,-1,-3,-4,-1,10,-5,-1
1511884708873162,2,3,3,7,20,1,6,6
1511884708885309,-1,-2,-1,-5,-4,-1,-3,-5
1511884708885309,-2,0,0,-2,-7,-12,-6,0
1511884708894217,-1,-2,0,1,7,22,0,2
1511884708894217,-3,-3,-2,-5,-10,-26,-2,-13
1511884708908271,2,-1,0,-2,-4,11,14,6
1511884708908271,1,-2,-1,-4,-15,-36,-13,-2
1511884708916279,-6,0,-1,0,7,23,1,-2
1511884708916279,1,-3,-2,1,5,-16,-5,10
1511884708931442,-5,-3,-5,-4,-4,-7,11,-1
1511884708931442,1,0,-1,-4,-6,1,-2,13
1511884708933359,-1,-2,-2,-3,-7,-25,-5,-3
1511884708933359,-4,3,0,2,-1,10,2,-5
1511884708945393,-6,-2,-1,-2,-3,0,-11,-13
1511884708945393,-2,-2,-4,-3,-3,-4,-14,14
1511884708954402,1,-1,1,1,3,2,11,6
1511884708954402,-3,-1,-4,0,0,-5,-9,-6
1511884708967416,2,1,0,-1,2,7,10,-10
1511884708967416,-2,1,4,2,3,7,-1,-13
1511884708976472,1,2,1,6,4,1,5,2
1511884708976472,1,-1,-2,-6,-6,-13,-8,-3
1511884708991512,2,-1,-2,-1,1,3,4,7
1511884708991512,-3,-3,-2,0,-5,5,-12,-10
1511884708993500,2,2,0,0,6,-7,5,-4
1511884708993500,3,-1,4,5,10,7,8,2
1511884709005557,-2,1,0,0,-3,-1,-7,-3
1511884709005557,0,3,2,-2,-1,1,10,8
1511884709014540,1,-2,0,-1,-5,-3,1,-4
1511884709014540,2,-3,0,1,1,3,-3,-1
1511884709027577,2,0,-4,-3,3,2,-3,2
1511884709027577,-13,-1,-2,0,-1,5,0,-13
1511884709036603,6,0,2,5,4,-7,0,15
1511884709036603,-1,1,1,-1,-1,1,-8,-5
1511884709050706,1,-1,1,-1,-4,-7,-2,8
1511884709050706,3,-6,-7,-6,-3,-2,-2,-12
1511884709057878,-13,-1,-2,-5,-4,1,1,-8
1511884709057878,0,3,-3,3,1,1,-2,1
1511884709064897,3,2,5,4,1,-4,1,2
1511884709064897,3,-15,-5,2,3,-4,0,4
1511884709073917,1,6,-3,-4,-1,5,-1,-5
1511884709073917,2,-8,5,1,-3,-1,0,-11
1511884709088078,4,0,-1,0,-1,-6,-8,5
1511884709088078,8,7,1,2,4,7,8,5
1511884709096983,0,1,-1,-3,-3,1,4,-3
1511884709096983,-25,0,-1,-1,-2,-2,-11,-18
1511884709111066,12,-8,-5,-4,-4,0,0,17
1511884709111066,-11,5,1,0,0,-2,-1,-2
1511884709118034,23,10,3,3,-2,-3,-4,3
1511884709118034,-5,2,0,-2,-1,3,1,0
1511884709125197,-7,-7,0,4,9,11,7,-18
1511884709125197,6,-2,-2,-2,2,-1,10,10
1511884709134227,-8,2,1,1,2,0,0,-3
1511884709134227,8,4,2,-2,2,0,-5,4
1511884709147302,-7,-1,-2,4,-4,-8,-13,-5
1511884709147302,5,-1,2,-3,-1,-1,4,-14
1511884709156371,-1,-2,-7,-13,-9,10,19,8
1511884709156371,20,-16,-14,-4,1,-3,8,6
1511884709171414,-12,9,0,-3,-1,-6,-11,1
1511884709171414,3,5,1,-1,0,-4,-13,2
1511884709177425,-11,-2,6,10,2,4,0,-8
1511884709177425,2,7,-2,-5,-7,-2,-10,-5
1511884709185479,6,2,-4,-9,-6,-4,6,1
1511884709185479,-1,-3,1,0,-1,-3,-13,4
1511884709194500,1,-2,9,14,8,-2,-4,1
1511884709194500,-3,-10,-1,4,1,0,-4,6
1511884709207584,1,-1,-3,-7,-5,-19,-22,-3
1511884709207584,-5,-3,-2,-8,-2,6,-9,-2
1511884709216606,-1,-7,-2,-4,-6,-11,4,-4
1511884709216606,-10,5,-1,5,4,5,-10,2
1511884709230646,5,3,11,-1,-5,5,15,8
1511884709230646,0,-13,-17,5,9,-2,4,-4
1511884709237966,-21,-10,-24,-27,-6,-8,-15,-21
1511884709237966,6,-4,-2,-15,-4,-8,9,9
1511884709253825,-7,-4,9,6,10,17,1,-6
1511884709253825,0,11,24,31,1,-7,-6,11
1511884709255827,9,0,-1,3,-12,-3,5,-11
1511884709255827,-4,-6,-13,-14,-9,-7,-3,-5
1511884709268117,0,5,-12,-36,-7,-11,-21,-9
1511884709268117,2,0,6,13,10,26,50,6
1511884709277025,4,3,5,17,9,-16,-24,15
1511884709277025,-1,6,3,-2,-7,6,2,0
1511884709291069,0,-9,1,11,6,9,-1,16
1511884709291069,-1,8,-1,-2,-2,-8,11,-10
1511884709298157,-4,-6,-5,-13,-5,-4,-26,-10
1511884709298157,15,3,2,1,17,4,3,13
1511884709314168,-11,4,-1,19,0,2,9,-13
1511884709314168,1,-1,-9,-45,-49,-34,-34,-12
1511884709316134,2,2,14,24,30,30,21,6
1511884709316134,-4,2,10,12,9,6,-17,-7
1511884709328166,-1,-9,-12,3,-10,6,1,0
1511884709328166,-5,-5,-10,-14,-4,1,3,-7
1511884709336232,4,9,8,-17,-33,-20,10,7
1511884709336232,4,2,9,24,30,14,15,8
1511884709351227,-9,-4,-2,1,4,8,4,-12
1511884709351227,-5,-5,-11,-2,23,1,-7,23
1511884709357243,0,-8,-2,2,11,10,5,0
1511884709357243,2,13,11,2,-11,-5,3,13
1511884709374288,7,-21,-7,4,-11,-6,-1,-5
1511884709374288,-10,2,-3,-3,4,-3,-15,-12
1511884709375291,-3,-4,-2,3,-1,0,3,-2
1511884709375291,-2,-5,-7,-7,-11,-4,3,6
1511884709387448,-22,3,1,-4,-2,0,9,-18
1511884709387448,21,5,9,3,-4,-2,6,17
1511884709396374,8,-2,-7,-4,0,-5,7,7
1511884709396374,-6,4,-1,-5,-10,6,-14,-7
1511884709410414,5,-16,-9,-8,7,-12,5,4
1511884709410414,-12,-4,2,9,13,31,10,-3
1511884709417447,-6,6,2,0,-3,-5,-14,-11
1511884709417447,4,1,-3,-2,1,-4,22,2
1511884709434475,7,1,3,4,3,-2,-10,3
1511884709434475,-4,3,-1,-1,-1,8,23,-7
1511884709435478,-3,-4,-2,-8,-9,-10,-16,-5
1511884709435478,-4,0,-4,1,0,3,8,-5
1511884709447513,2,7,5,-4,-2,1,1,5
1511884709447513,3,5,1,4,-6,1,-8,-9
1511884709456534,-8,1,-2,-2,8,1,-7,-14
1511884709456534,-3,-10,-2,4,1,-3,7,19
1511884709470748,4,9,1,1,-4,3,2,2
1511884709470748,4,-6,-3,-4,-1,-9,-16,0
1511884709477593,-3,-14,-6,1,6,10,10,1
1511884709477593,-17,-1,-2,-1,-6,-9,-9,-33
1511884709493636,-3,7,1,0,3,8,19,26
1511884709493636,10,-1,0,0,-4,-4,6,15
1511884709495638,20,11,4,4,0,4,12,31
1511884709495638,-20,-18,-7,-8,-3,5,7,-21
1511884709507797,7,5,-2,-4,-5,-5,-4,-8
1511884709507797,-8,-1,2,3,4,3,4,-6
1511884709516858,0,-1,-1,-3,-5,-9,-15,-14
1511884709516858,0,1,-1,-1,0,-7,-10,5
1511884709530899,3,1,0,-3,1,1,12,-17
1511884709530899,-2,1,1,2,0,3,-7,-5
1511884709537919,3,0,-2,6,5,4,7,5
1511884709537919,2,-3,-2,-5,-6,-5,-7,3
1511884709553962,-2,-3,-2,-4,-3,-3,-4,-1
1511884709553962,-11,-3,-3,-2,1,-3,-2,-23
1511884709555929,18,3,1,1,1,3,7,16
1511884709555929,-4,2,4,5,-1,2,-3,-12
1511884709567986,-2,0,-3,-1,0,1,-6,-4
1511884709567986,-2,-3,-2,3,2,1,1,9
1511884709577005,1,-3,-4,-6,-10,-2,-3,8
1511884709577005,10,1,-2,-3,-3,-3,-3,10
1511884709591017,0,2,0,5,5,3,10,-5
1511884709591017,-4,0,1,-2,-4,-3,-7,1
1511884709598056,-11,-8,-3,-1,0,1,5,-9
1511884709598056,7,9,11,5,1,4,3,5
1511884709614121,-8,-5,0,4,1,-1,-7,-6
1511884709614121,4,-4,2,7,-2,-7,-15,7
1511884709616089,-1,-1,-4,-5,8,5,8,13
1511884709616089,6,4,0,0,-1,0,3,-12
1511884709628116,1,1,-9,-19,-16,-9,-9,11
1511884709628116,-2,3,1,5,1,3,2,-17
1511884709636184,-14,-6,-6,-20,4,-7,-6,-10
1511884709636184,2,-2,6,15,12,7,-2,3
1511884709651177,4,6,10,16,6,-5,-4,5
1511884709651177,-3,-5,-4,-9,-33,-6,-8,-8
1511884709657197,-8,6,8,7,6,-5,-9,-18
1511884709657197,2,1,-7,-1,6,2,14,19
1511884709674239,4,-7,9,2,7,3,3,-13
1511884709674239,11,16,14,19,7,-2,-8,1
1511884709675242,-2,-38,-21,-8,-15,4,10,1
1511884709675242,-4,5,-23,-38,-18,-8,-8,-14
1511884709687491,-5,-12,-11,-15,-6,-3,-7,13
1511884709687491,-3,1,15,5,12,2,5,7
1511884709696414,7,6,32,61,16,1,0,11
1511884709696414,-4,-10,-17,-20,-4,-5,-1,-6
1511884709710455,-12,-18,-15,-10,-5,5,0,-2
1511884709710455,0,-7,-27,-30,-25,-5,-4,-5
1511884709717614,-4,4,-8,-47,0,-4,-16,-2
1511884709717614,4,-2,26,47,35,4,-3,7
1511884709733759,0,8,12,15,-10,-6,0,-3
1511884709733759,0,-7,-5,-2,30,3,5,18
1511884709735660,-7,3,-3,10,-16,2,-5,-18
1511884709735660,1,0,0,-4,-13,-7,6,3
1511884709747695,5,8,2,-3,12,19,0,2
1511884709747695,-2,-2,1,8,-3,-3,10,-1
1511884709756716,-5,3,-10,-13,-7,-3,-6,-5
1511884709756716,-1,-1,2,1,14,2,-5,-2
1511884709770850,4,5,4,10,-4,-7,5,7
1511884709770850,-3,-4,-5,-9,2,-1,-8,-1
1511884709777774,7,5,0,-6,-8,-2,7,17
1511884709777774,-6,-7,-2,-2,-9,-3,-8,-4
1511884709793920,1,3,0,-1,2,-5,-5,3
1511884709793920,-4,-8,1,5,0,3,-2,-2
1511884709795820,0,6,0,6,4,0,1,-3
1511884709795820,3,-7,-12,-13,-14,-5,3,4
1511884709807860,-9,-3,-13,-16,-2,-1,-1,-9
1511884709807860,-1,1,6,0,4,3,-3,6
1511884709816914,2,1,1,9,3,-5,7,-6
1511884709816914,0,0,4,3,-21,-1,-5,-4
1511884709830957,3,4,5,-8,2,-4,-4,8
1511884709830957,3,-2,3,10,17,6,7,5
1511884709837975,-4,2,-2,4,1,-9,-6,-4
1511884709837975,0,3,-7,-10,-4,-4,-7,1
1511884709853976,-1,-3,-1,-6,-16,-15,-7,-7
1511884709853976,-1,2,-2,-9,5,9,3,-1
1511884709855980,2,-2,7,13,4,0,-3,-1
1511884709855980,1,0,-4,-7,1,-3,1,-2
1511884709868015,-7,-4,-4,2,0,1,-3,-5
1511884709868015,2,5,5,0,-10,-8,1,-3
1511884709877036,-5,-2,-5,-6,1,4,5,1
1511884709877036,1,-1,3,6,1,0,0,6
1511884709891260,-4,3,3,6,2,3,12,-11
1511884709891260,14,10,1,-2,-1,-3,-2,25
1511884709898136,-17,-13,-15,-15,-7,-5,-4,-22
1511884709898136,7,7,2,3,3,2,2,18
1511884709914244,-5,-6,-3,1,4,-4,-8,5
1511884709914244,1,-2,-8,-6,-3,5,14,-13
1511884709916145,-4,-1,1,-3,-4,-7,-8,-3
1511884709916145,1,0,-1,-1,-2,1,4,-10
1511884709927262,0,-2,-7,-1,-1,9,5,9
1511884709927262,-4,-2,-1,2,0,-3,-3,-7
1511884709936397,5,-4,1,1,3,2,1,11
1511884709936397,-5,-1,-2,-4,-2,6,5,-12
1511884709950534,5,6,2,-1,-1,-7,-4,2
1511884709950534,-3,-2,-2,3,4,11,-2,-6
1511884709957456,3,2,1,-3,-4,-1,2,2
1511884709957456,-3,-3,1,2,0,-3,-8,-2
1511884709973496,-1,0,-1,-1,0,2,1,-1
1511884709973496,1,1,-1,-3,-5,-5,-2,17
1511884709980660,0,4,-1,0,-2,-2,0,0
1511884709980660,1,-5,1,2,4,3,-3,2
1511884709987681,-3,-1,0,1,5,-1,-3,-15
1511884709987681,-3,-6,-10,-11,-9,-12,-2,1
1511884709996705,-2,4,5,4,1,1,-5,5
1511884709996705,5,-3,3,0,-4,-5,1,47
1511884710010774,5,-1,-5,-2,1,-6,8,2
1511884710010774,-3,0,3,2,-1,2,-7,-17
1511884710017795,-7,5,-2,-4,0,7,7,8
1511884710017795,-4,-11,-4,0,-2,-4,-3,-8
1511884710033898,-1,7,4,5,3,0,-2,0
1511884710033898,5,-1,1,-3,-3,-4,-1,13
1511884710039819,6,1,-4,-7,-5,-8,-2,2
1511884710039819,2,9,5,4,4,10,6,-15
1511884710048034,-4,-12,-2,5,2,1,-3,1
1511884710048034,-5,-3,-2,0,0,-2,-3,-15
1511884710056866,0,0,0,-3,-2,-5,-1,-3
1511884710056866,-2,1,-2,-2,1,-1,1,-7
1511884710070933,1,1,3,9,-2,-2,-5,0
1511884710070933,-4,-2,-7,-19,-3,-3,1,2
1511884710077924,-1,-4,-9,-12,-8,-1,3,6
1511884710077924,1,-4,-1,2,0,-5,-5,-2
1511884710093083,2,1,5,3,3,-1,1,-7
1511884710093083,-4,-3,2,9,1,-2,-4,-14
1511884710099982,0,-3,-4,2,5,7,7,-1
1511884710099982,13,12,7,2,-1,-2,-8,-2
1511884710108003,-4,8,0,-4,-5,-3,-1,-2
1511884710108003,15,16,0,0,-1,0,0,1
1511884710117027,-7,-10,-3,-1,1,6,8,-6
1511884710117027,-44,-7,-1,-1,-5,-14,-19,-25
1511884710131105,64,6,-2,-2,0,0,2,47
1511884710131105,-11,-3,3,1,0,-4,-6,-18
1511884710138115,7,1,1,-1,-4,1,1,18
1511884710138115,-2,-6,-6,-6,-6,-9,0,5
1511884710153164,-11,0,-4,-5,-1,1,5,-18
1511884710153164,-5,-6,-5,-1,0,3,8,4
1511884710160142,6,0,3,1,-2,-6,-5,0
1511884710160142,-1,-10,-4,-3,-3,-3,-2,2
1511884710176185,-7,2,1,-3,-1,0,1,0
1511884710176185,3,-4,1,6,4,4,6,3
1511884710178187,-13,-5,2,1,-5,-10,-23,-22
1511884710178187,9,7,-3,0,10,6,11,10
1511884710190220,-23,-6,-1,-5,-4,1,-8,-31
1511884710190220,13,0,2,3,-1,1,4,8
1511884710199244,-17,9,1,1,2,4,-3,-23
1511884710199244,4,-17,-13,-7,-9,-6,0,2
1511884710213472,-11,-5,4,5,0,-6,-1,22
1511884710213472,-8,-7,-11,-11,-3,-1,-4,-11
1511884710220470,-2,3,11,4,3,4,8,-11
1511884710220470,1,-6,-7,-3,-2,2,0,-7
1511884710236517,3,7,-3,-3,5,4,3,-5
1511884710236517,2,-11,5,11,-6,-3,-4,9
1511884710238349,5,-3,-6,-9,2,-1,6,20
1511884710238349,6,9,4,3,9,5,-2,-6
1511884710250563,-8,-12,-7,-6,1,-2,3,-1
1511884710250563,-1,8,3,-6,-6,-4,-5,1
1511884710259406,5,-2,2,21,32,13,5,-5
1511884710259406,2,3,12,11,-4,-1,2,2
1511884710273441,-2,6,12,14,16,2,-2,-6
1511884710273441,-7,-7,-13,-17,-26,1,5,-4
1511884710280462,3,-1,-12,-22,-16,4,3,-1
1511884710280462,3,2,-4,-8,6,-11,-17,2
1511884710296631,3,0,8,21,12,9,21,12
1511884710296631,-1,4,-1,-12,3,8,9,-2
1511884710298512,-5,-10,0,-7,-16,-6,-5,-10
1511884710298512,2,12,6,2,-11,2,4,-4
1511884710310543,-3,3,11,7,-4,0,-11,-15
1511884710310543,-3,-3,-7,7,2,-1,-13,-3
1511884710319595,3,0,-3,-5,-1,-6,1,3
1511884710319595,1,2,7,7,16,17,14,1
1511884710333817,4,7,3,10,2,-3,-8,0
1511884710333817,-2,2,-25,-35,-14,-6,-3,-6
1511884710339907,2,1,-3,-14,-13,-8,-1,9
1511884710339907,-5,-3,0,3,-3,-1,-9,-3
1511884710356952,0,-3,1,-5,-2,1,-3,4
1511884710356952,-2,-8,15,24,12,-2,-1,-6
1511884710357955,6,10,6,5,-4,2,2,4
1511884710357955,-4,-9,-8,-7,2,-4,-2,0
1511884710370088,-4,-7,-8,-4,-7,-2,1,-1
1511884710370088,6,10,9,12,13,5,10,9
1511884710379017,-3,-10,-2,0,-2,-5,-10,-6
1511884710379017,-4,-3,-3,-8,-8,4,5,-6
1511884710393169,-4,4,-4,-14,-7,-5,-3,-2
1511884710393169,4,-2,-2,4,0,-4,-7,8
1511884710400189,1,0,9,14,11,2,1,-10
1511884710400189,-7,4,-1,-2,-2,-5,-4,10
1511884710417121,5,-7,-15,-14,-10,0,-8,-15
1511884710417121,-2,-1,-1,-5,-6,-6,0,-2
1511884710418118,-2,6,0,5,6,2,-2,11
1511884710418118,-1,3,6,3,-2,-2,-2,-10
1511884710430192,0,0,1,-2,4,8,8,2
1511884710430192,-1,0,7,11,4,-4,-6,4
1511884710439175,-2,2,2,1,-11,-5,-5,-1
1511884710439175,3,1,-6,-11,2,4,6,-9
1511884710453325,0,-1,-5,-4,4,0,1,20
1511884710453325,6,-2,-3,-4,-4,-3,0,-13
1511884710460227,-11,-4,0,5,8,-3,-1,-9
1511884710460227,1,1,1,-1,-11,-6,-1,-10
1511884710476380,1,0,-9,-8,-3,-6,2,1
1511884710476380,-10,-14,-3,5,8,5,0,4
1511884710478275,5,4,0,-5,-8,-5,4,1
1511884710478275,-1,-1,3,3,-1,3,1,0
1511884710490437,-6,-12,0,-3,-1,-10,-13,-13
1511884710490437,-6,-1,1,0,-9,6,3,-11
1511884710499397,1,-3,-6,-1,3,0,-1,2
1511884710499397,-2,2,-4,-15,-10,-12,-13,4
1511884710513424,2,0,-7,-4,-8,-2,3,4
1511884710513424,-4,1,8,4,0,-4,-9,-3
1511884710520443,4,-2,2,8,10,8,11,2
1511884710520443,1,5,-1,-2,-7,1,6,-2
1511884710536486,-4,-3,-5,1,4,-1,-11,-1
1511884710536486,1,-1,0,-2,10,-2,1,4
1511884710538464,5,3,-1,3,2,2,-2,4
1511884710538464,1,-2,3,9,2,-2,0,5
1511884710550624,-7,-3,-2,-12,-9,0,-1,-7
1511884710550624,2,8,3,-1,-3,-2,3,8
1511884710559640,-9,-19,-5,0,-3,-1,-5,-9
1511884710559640,8,-7,-11,-7,1,-1,4,5
1511884710588705,-11,6,3,3,-3,3,-1,-12
1511884710588705,0,6,5,-1,2,-8,-4,0
1511884710596620,2,7,2,-2,1,2,-11,-3
1511884710596620,3,4,-1,6,1,-4,4,-4
1511884710618783,4,-3,0,-5,-2,4,3,8
1511884710618783,-1,2,0,-2,1,3,5,-1
1511884710620683,0,-2,1,-3,-7,-2,-5,2
1511884710620683,-8,0,-5,-6,-5,-2,-12,-18
1511884710625699,2,-3,-5,2,3,-11,-4,3
1511884710625699,-7,-7,-4,-7,-9,0,-9,-10
1511884710626699,4,4,5,5,5,14,27,9
1511884710626699,-3,-8,3,0,-9,-2,-6,3
1511884710633718,1,1,4,7,11,5,6,-1
1511884710633718,0,2,3,7,-4,-3,-2,-2
1511884710639734,-2,-4,-13,-11,1,-2,0,-2
1511884710639734,-3,0,-2,-6,-4,1,5,5
1511884710656780,3,0,2,-3,-5,0,-2,-1
1511884710656780,1,-2,2,2,3,-1,2,2
1511884710657782,1,3,7,7,-1,-3,-5,1
1511884710657782,2,1,1,0,1,1,7,2
1511884710669913,4,-6,-4,2,3,-7,-9,1
1511884710669913,0,7,-3,-4,2,4,2,-4
1511884710678852,1,-2,-3,-4,-6,-5,-5,0
1511884710678852,-4,-2,-4,-5,0,-4,-3,0
1511884710693156,2,9,5,-1,-4,-1,4,3
1511884710693156,-6,-14,-2,2,-1,-6,-5,0
1511884710700085,0,-3,-4,-4,-6,-1,5,1
1511884710700085,0,-2,0,3,12,0,-5,-3
1511884710717065,3,2,6,10,1,2,-5,1
1511884710717065,0,0,-4,-9,2,1,1,2
1511884710718066,-1,-3,-6,-7,-4,-6,-4,0
1511884710718066,1,-3,2,4,5,5,-1,1
1511884710730100,-2,1,0,-4,-7,-3,-1,-2
1511884710730100,-1,-1,1,2,4,1,2,-2
1511884710739128,3,8,8,5,3,8,6,0
1511884710739128,0,4,4,5,-5,-14,-17,0
1511884710753163,-4,-2,-3,-2,-1,2,8,-5
1511884710753163,0,-3,-6,-1,-5,-2,-3,6
1511884710760182,-2,0,-5,-9,-2,-3,-5,-2
1511884710760182,-3,-1,-4,-1,-1,2,3,-2
1511884710776261,2,2,3,1,-1,-2,0,3
1511884710776261,-3,-7,1,5,4,2,6,-3
1511884710778251,0,-2,3,4,0,2,-5,-2
1511884710778251,4,6,-2,0,1,2,5,1
1511884710790260,-2,-9,-7,-7,-5,0,2,5
1511884710790260,-3,-4,-1,-2,0,1,1,-2
1511884710799282,-2,-4,1,7,2,-3,-8,-3
1511884710799282,-1,9,-3,-6,-1,6,9,-7
1511884710814323,2,-2,-5,-5,-3,-1,-2,1
1511884710814323,2,5,5,2,2,-5,-9,3
1511884710820464,-1,-3,-2,-4,-7,-3,-1,-2
1511884710820464,-3,-2,2,2,4,2,0,-2
1511884710836433,-3,-3,-2,2,7,6,3,-3
1511884710836433,4,1,-4,-1,5,2,-2,1
1511884710838402,2,0,2,2,2,-2,-1,3
1511884710838402,0,-2,-1,-2,-6,-4,0,4
1511884710850469,-2,1,0,-2,-6,-1,-5,-1
1511884710850469,-1,-1,-10,-7,-2,-1,4,-1
1511884710859444,1,-1,-3,-2,-2,-3,-1,1
1511884710859444,0,-4,1,-1,-4,1,3,2
1511884710873483,-6,-4,-2,-3,0,-4,-3,-5
1511884710873483,-1,-1,-1,-1,-1,5,11,-1
1511884710880684,-4,0,-2,0,1,-2,-4,3
1511884710880684,3,1,2,3,2,-3,-2,4
1511884710896700,1,4,3,2,-3,-1,3,-3
1511884710896700,3,-2,0,0,0,-4,-4,2
1511884710897704,-7,-3,-2,-4,0,-2,-8,-8
1511884710897704,-3,-6,-2,1,-2,-5,-6,0
1511884710909733,-1,-1,-6,-8,-3,-7,-9,-5
1511884710909733,1,2,-5,-11,-3,1,4,1
1511884710918762,2,3,0,3,3,0,1,-2
1511884710918762,-1,-5,-2,-2,-6,0,2,-2
1511884710933815,1,6,7,4,-6,-2,0,-1
1511884710933815,-1,-4,-2,6,9,1,-2,-1
1511884710939853,2,3,-6,-8,0,1,3,2
1511884710939853,-4,-2,0,6,3,2,-2,-2
1511884710955898,4,4,5,-3,-5,0,8,2
1511884710955898,-1,4,4,-1,-7,-3,-1,0
1511884710962916,1,1,3,3,1,0,3,3
1511884710962916,-4,-8,-11,-9,-4,-2,0,-4
1511884710969935,2,-3,-2,0,6,6,-3,3
1511884710969935,0,3,4,3,0,0,1,-9
1511884710978935,1,-3,1,1,-2,-2,-2,9
1511884710978935,-3,0,7,3,-1,0,1,-5
1511884710993104,1,3,-1,1,0,-1,-1,2
1511884710993104,-5,-5,-10,-9,-5,-7,3,-5
1511884711000122,0,-2,-3,-2,-5,-6,-14,-5
1511884711000122,2,5,1,0,3,7,9,2
1511884711016165,-2,-9,-4,1,0,-6,-5,3
1511884711016165,-1,-1,2,8,5,0,-6,0
1511884711022256,-1,-2,-1,1,-6,1,13,4
1511884711022256,1,1,0,-5,4,0,0,2
1511884711030206,-1,0,1,-1,1,2,2,-3
1511884711030206,3,-1,-4,-5,-5,3,3,4
1511884711039176,-2,-2,0,-5,-7,-2,-4,-4
1511884711039176,-2,-3,3,6,1,0,-2,-2
1511884711053338,-3,-2,-6,-14,-10,-5,-4,-5
1511884711053338,-1,-3,0,-1,3,-3,-4,1
1511884711060232,1,3,3,4,6,5,1,-3
1511884711060232,0,0,1,3,1,-4,-1,-1
1511884711076275,-4,-4,-2,-3,-2,1,1,-7
1511884711076275,3,4,5,0,-3,0,4,13
1511884711090470,-4,-1,-3,-1,-1,-7,-3,-2
1511884711090470,-1,0,4,7,4,15,5,2
1511884711099474,0,-2,-4,-6,-1,0,1,-3
1511884711099474,5,3,-3,-5,-6,-8,-8,-3
1511884711100477,-2,-7,-5,-3,2,-1,7,1
1511884711100477,1,1,3,2,1,1,6,0
1511884711113717,1,4,5,8,4,2,6,11
1511884711113717,-7,-6,-3,-4,-8,-1,-4,-2
1511884711119684,2,1,-1,-2,2,0,0,-1
1511884711119684,-2,-4,-6,-6,-4,-6,-10,-5
1511884711135748,0,0,3,0,-1,-1,1,-1
1511884711135748,1,2,4,3,1,5,4,-1
1511884711142747,1,7,3,3,-3,-1,-1,3
1511884711142747,-2,-5,-2,0,1,0,2,4
1511884711158789,-2,-1,-1,4,0,0,-8,-2
1511884711158789,-3,-2,-3,-1,6,2,2,0
1511884711160791,0,-4,2,-4,-5,0,-4,-5
1511884711160791,0,0,0,0,-1,6,9,6
1511884711173156,1,3,3,5,-2,-10,-10,-1
1511884711173156,-2,-6,-13,-12,-6,-4,-6,-7
1511884711180031,-1,2,2,-1,1,3,0,2
1511884711180031,0,-3,-2,-5,6,4,0,-1
1511884711196069,0,-1,5,10,-1,-4,1,0
1511884711196069,-2,-5,7,10,6,-1,-2,-3
1511884711203045,-1,-1,1,3,-2,2,5,1
1511884711203045,1,5,-2,2,-2,-7,-9,-3
1511884711219130,-1,-6,-2,0,1,7,9,0
1511884711219130,-2,0,-4,-3,-5,-7,-6,-4
1511884711221095,0,1,-6,-5,0,0,6,7
1511884711221095,-2,-10,-1,-6,-3,-3,-6,-3
1511884711233129,2,3,1,0,2,0,-1,0
1511884711233129,3,3,6,5,-3,-1,-3,-1
1511884711240147,-7,-6,-5,-7,-2,3,0,-9
1511884711240147,-1,1,-1,0,0,-4,-3,0
1511884711256187,-1,3,-1,0,1,1,1,-2
1511884711256187,-3,-5,0,1,-3,6,8,1
1511884711262299,4,3,-1,3,2,-6,-6,-2
1511884711262299,-3,-5,-2,2,-1,-1,-1,-2
1511884711279382,-2,-5,-12,-18,-4,10,8,3
1511884711279382,-1,6,0,-9,2,-8,-11,0
1511884711280381,0,-2,5,10,4,1,-1,-3
1511884711280381,-2,1,2,1,-7,-4,1,1
1511884711293417,1,-2,1,3,0,2,1,2
1511884711293417,3,-3,-3,-3,2,-5,-5,0
1511884711300563,-2,-3,-4,-2,-1,-3,-2,3
1511884711300563,1,0,2,2,3,-3,-2,0
1511884711315682,-2,-1,8,7,-1,-4,-5,-3
1511884711315682,-1,-2,0,4,0,8,6,2
1511884711322602,-3,-9,-10,-9,1,-6,-9,-6
1511884711322602,-2,-1,-7,-10,-10,-6,0,-1
1511884711338618,2,3,-5,-11,-5,-1,-1,-2
1511884711338618,0,0,12,13,10,-1,-1,1
1511884711340542,-1,4,6,5,-6,1,3,0
1511884711340542,-2,-3,-8,-9,-7,-5,-10,-1
1511884711353746,0,1,1,-1,9,6,7,-1
1511884711353746,0,0,3,2,-6,-8,-6,-4
1511884711367615,1,1,3,4,7,-1,-2,-6
1511884711367615,2,2,-1,-3,-5,6,12,12
1511884711375638,-1,-2,-2,0,2,-7,-6,-3
1511884711375638,0,4,5,10,-2,0,-2,2
1511884711382657,-1,-4,2,3,-2,-5,1,1
1511884711382657,-1,-3,-19,-22,-15,-5,-6,-4
1511884711398888,0,-3,-1,3,10,6,3,1
1511884711398888,1,1,5,12,-3,3,6,2
1511884711400703,2,4,-2,-4,-1,0,-1,0
1511884711400703,-3,-8,2,-7,2,0,-4,-5
1511884711412736,-2,-3,-9,-12,-13,-6,-4,0
1511884711412736,-2,-7,-2,5,11,3,2,-2
1511884711421768,1,1,1,-2,-10,-2,1,0
1511884711421768,0,2,0,3,21,4,8,2
1511884711435833,-1,-4,4,5,-7,-3,-3,1
1511884711435833,-3,1,-2,-6,-9,-1,3,-4
1511884711442817,1,-2,4,2,1,-3,-12,-6
1511884711442817,2,3,9,18,3,1,5,5
1511884711458860,-4,-5,-9,-8,-1,-9,-12,-7
1511884711458860,4,1,-6,-5,-2,9,14,7
1511884711460869,-1,-2,-9,-4,3,2,3,-1
1511884711460869,-1,2,2,-6,-7,-7,-5,-10
1511884711473086,2,2,6,3,-6,5,5,4
1511884711473086,-1,0,-3,0,1,-6,-8,-2
1511884711481917,0,-1,-9,-9,-1,-2,0,2
1511884711481917,2,-1,0,6,14,8,7,3
1511884711496082,0,3,7,16,3,-5,-4,0
1511884711496082,1,2,-7,-19,-9,-8,-4,-1
1511884711503182,2,3,12,20,13,2,-4,-1
1511884711503182,-2,-2,4,15,9,1,-2,-1
1511884711519208,-1,-3,-6,-11,-5,3,0,-3
1511884711519208,-3,-2,-4,5,2,-2,-11,-2
1511884711520165,-1,-2,-7,-20,-7,0,1,-4
1511884711520165,1,-1,0,5,13,3,5,2
1511884711533229,-1,1,5,14,-20,-12,-3,0
1511884711533229,0,-1,-2,-16,19,11,6,1
1511884711542081,-1,-5,-5,12,6,-3,1,5
1511884711542081,-1,-1,-8,-26,-39,-11,-13,-8
1511884711556327,-3,-5,-5,2,18,4,1,-2
1511884711556327,0,5,9,8,4,-3,0,-1
1511884711570395,1,4,9,14,-2,4,3,0
1511884711570395,3,1,0,12,21,6,0,1
1511884711579317,-5,-5,-4,-22,-17,-9,-7,-2
1511884711579317,1,-1,-2,-10,-22,-3,-10,-3
1511884711580320,1,-2,-10,-29,-22,-5,15,6
1511884711580320,0,4,11,24,22,14,-4,0
1511884711592476,3,1,6,13,20,4,3,1
1511884711592476,-4,-1,0,5,9,6,9,-3
1511884711601372,1,2,2,-7,-12,-13,-5,0
1511884711601372,-2,-2,3,-4,-32,-21,-10,-6
1511884711615524,-2,-1,-8,-10,1,-6,0,-1
1511884711615524,-1,1,-1,-8,12,18,7,1
1511884711622522,-1,-4,-1,18,4,5,-7,-1
1511884711622522,-2,-1,-7,-18,5,8,3,-4
1511884711638658,-4,0,2,-7,-23,-13,-5,-5
1511884711638658,1,-2,-1,-1,-14,-14,6,4
1511884711640558,-1,2,6,5,-1,11,-2,-1
1511884711640558,-3,-8,-6,-7,18,9,-1,1
1511884711652789,2,-2,1,12,17,5,0,2
1511884711652789,-2,0,-6,-4,-18,-2,2,-3
1511884711661616,-2,0,1,-6,10,1,-1,-5
1511884711661616,1,1,4,10,5,4,-6,3
1511884711675860,-2,-4,-8,-16,-20,-11,3,-2
1511884711675860,-2,-4,-6,-3,-4,-10,-17,-5
1511884711683005,-6,-3,-3,-8,-2,20,14,-1
1511884711683005,1,2,2,2,-4,-6,-5,2
1511884711698852,-1,1,3,2,-2,-9,6,0
1511884711698852,0,-1,2,7,10,31,3,0
1511884711700855,-3,-3,-8,-10,-7,-27,-14,-2
1511884711700855,2,0,-3,-2,-1,13,31,4
1511884711712889,1,4,0,3,12,20,-2,1
1511884711712889,-2,-3,0,0,-17,-22,-14,1
1511884711721939,0,-1,-2,-1,2,2,12,1
1511884711721939,0,0,0,-4,-6,-9,-4,3
1511884711736132,0,0,1,3,6,-5,-4,0
1511884711736132,-2,-1,-5,-1,7,11,-5,-3
1511884711742969,-3,-3,-2,-3,-1,-9,-11,-4
1511884711742969,-6,-3,-1,-1,-4,6,10,-5
1511884711759012,2,1,0,-1,-3,-11,-16,7
1511884711759012,2,-2,0,2,5,-1,-11,4
1511884711761018,-2,4,6,1,-2,-2,-18,-27
1511884711761018,-10,-5,-6,-8,-10,-11,-5,11
1511884711773047,1,-1,-2,1,4,10,37,-1
1511884711773047,1,3,6,8,8,6,10,-8
1511884711782185,4,-1,1,-1,-2,-2,5,-11
1511884711782185,1,-3,-4,-5,-8,-11,-10,21
1511884711796315,-11,-2,-4,-2,-3,-6,-29,-21
1511884711796315,15,-2,-3,-3,-1,-12,1,21
1511884711803170,-18,-3,-1,1,2,9,9,-19
1511884711803170,27,-1,-1,1,-1,-4,-5,5
1511884711819372,-6,2,0,1,2,12,13,-9
1511884711819372,-7,-3,-1,-3,-5,-4,-3,-7
1511884711820173,0,1,-2,1,3,-3,-6,12
1511884711820173,-7,2,1,-1,-2,-5,-8,-7
1511884711833235,10,0,1,3,0,2,4,6
1511884711833235,-12,-3,-1,1,4,9,12,-12
1511884711841232,10,-1,-2,1,0,3,6,24
1511884711841232,0,4,2,0,-1,-1,1,-20
1511884711855512,-6,-4,-1,0,3,1,-1,2
1511884711855512,-7,1,-2,-7,-5,-3,3,-6
1511884711862516,2,0,-2,1,-8,0,4,16
1511884711862516,-2,1,1,1,2,-2,-2,-5
1511884711878468,0,-1,1,-1,4,0,-5,3
1511884711878468,-1,-1,-2,-7,-8,-2,1,-1
1511884711885668,3,1,1,1,2,0,-2,12
1511884711885668,-1,0,1,0,-6,-5,-7,0
1511884711892501,1,-1,-1,0,-2,2,-2,0
1511884711892501,2,1,2,3,2,-3,1,5
1511884711901525,-4,-1,0,-1,-3,0,0,-12
1511884711901525,-2,-4,-5,-6,-3,-2,-2,7
1511884711915765,1,4,-1,-4,-1,1,1,-3
1511884711915765,-9,-9,-5,-1,-2,-6,-6,-10
1511884711922582,3,2,2,2,3,1,-3,-1
1511884711922582,-5,2,5,10,5,3,2,0
1511884711938720,-1,-4,-3,-7,-4,-1,-3,7
1511884711938720,-1,-3,2,4,-2,-6,-5,-7
1511884711944643,3,-4,-7,-3,0,1,2,5
1511884711944643,5,-6,-3,-2,-1,-2,0,-6
1511884711952854,1,1,1,-1,-2,1,-1,-1
1511884711952854,-11,-1,-3,-4,1,-2,2,-1
1511884711961685,-3,2,4,1,1,-2,-6,0
1511884711961685,-2,1,9,15,5,2,-3,4
1511884711975801,1,0,-4,2,2,0,2,-6
1511884711975801,14,0,-15,-28,-14,-5,0,6
1511884711982741,-2,-1,-5,-6,-1,4,-3,-6
1511884711982741,-5,-2,2,2,7,3,8,3
1511884711998809,-1,5,12,19,4,7,2,-7
1511884711998809,12,2,9,13,5,-7,-15,7
1511884712004842,-12,-14,-12,-6,-4,3,2,-11
1511884712004842,-11,-3,-6,-9,-9,-2,-10,4
1511884712012863,24,7,-4,-7,-1,-2,0,3
1511884712012863,1,-2,-9,-13,-6,-3,-5,3
1511884712021850,-10,3,8,4,4,-3,-12,-3
1511884712021850,-18,4,-2,-3,0,4,-11,-40
1511884712036070,8,-8,4,3,-4,-10,-10,18
1511884712036070,9,12,0,6,3,8,7,-8
1511884712042904,10,5,5,4,1,-3,3,5
1511884712042904,-2,4,0,-5,-1,-4,2,4
1511884712058995,-7,2,-1,-9,-6,3,11,0
1511884712058995,0,-6,4,7,0,-10,-10,3
1511884712064959,1,-6,-3,2,4,1,-4,4
1511884712064959,7,0,-2,3,1,11,30,2
1511884712081172,-7,-8,-16,-19,-16,-17,-22,-7
1511884712081172,-4,7,17,8,-2,0,-3,9
1511884712083139,-3,-8,-10,-12,5,6,20,0
1511884712083139,8,6,-3,0,2,-9,-10,1
1511884712096173,-6,0,-5,-4,-7,13,7,0
1511884712096173,-7,-13,-5,-18,-9,3,4,-11
1511884712102189,-3,2,4,-4,-8,-6,2,5
1511884712102189,7,10,17,27,4,-7,-10,-8
1511884712118348,-7,-5,-7,-7,13,19,15,0
1511884712118348,-12,-2,-1,5,-6,-9,-2,-12
1511884712125251,23,19,10,2,-2,23,63,19
1511884712125251,2,-15,-4,-8,7,-5,-24,2
1511884712141314,-14,-5,-1,15,1,-4,13,-7
1511884712141314,2,2,-2,-6,-1,-4,13,18
1511884712143295,7,9,5,21,11,-9,-32,-13
1511884712143295,-16,-1,0,-8,-37,-6,29,15
1511884712155332,4,4,4,-4,28,33,-7,-5
1511884712155332,2,-9,-17,-7,14,4,6,0
1511884712162723,2,3,0,-8,10,6,0,-3
1511884712162723,3,-4,2,1,-10,-8,6,-6
1511884712178776,-2,-2,-2,2,-14,-14,-27,13
1511884712178776,-1,2,4,5,-6,-10,-9,10
1511884712184669,0,6,0,0,-5,-2,-20,-3
1511884712184669,-7,-10,-6,0,2,2,-8,-23
1511884712201788,-1,2,0,-7,7,2,9,1
1511884712201788,0,-4,-4,6,6,0,-3,-11
1511884712202858,-1,-12,-8,-12,-20,-15,-15,24
1511884712202858,16,7,0,2,13,-13,-8,18
1511884712215967,-11,-6,0,-4,-5,6,4,-10
1511884712215967,12,2,-3,-2,1,-4,11,14
1511884712222916,-3,7,6,-1,-3,-8,1,1
1511884712222916,14,-21,-12,-13,-8,7,4,-4
1511884712238004,-9,2,2,6,1,-18,-14,5
1511884712238004,-1,4,3,1,1,13,1,-5
1511884712245024,4,-4,2,-1,-5,0,17,-4
1511884712245024,-8,2,-5,-5,6,1,-15,3
1511884712262036,12,3,5,1,0,-18,1,3
1511884712262036,-3,-1,-3,-4,-13,-1,6,-4
1511884712263022,-2,-5,-4,-5,10,16,-4,-13
1511884712263022,-1,8,1,0,-2,-6,-12,2
1511884712275056,3,-7,0,3,5,14,13,0
1511884712275056,-8,5,4,10,4,-10,-11,-8
1511884712284158,0,4,5,4,-11,-5,2,-4
1511884712284158,-8,-1,-6,-7,0,-2,-6,-23
1511884712313357,-11,-8,-10,-17,-3,0,1,-1
1511884712313357,3,1,2,-2,-10,-5,-14,-18
1511884712321356,-1,3,1,11,12,5,16,8
1511884712321356,-6,0,5,-10,-19,1,-4,0
1511884712344311,3,1,2,10,9,-2,1,-1
1511884712344311,-3,-1,5,6,-2,5,-4,-11
1511884712345334,-10,-8,-6,-7,3,-1,-15,-9
1511884712345334,11,2,-4,-1,-2,-8,9,36
1511884712365407,5,7,2,1,-2,2,12,-10
1511884712365407,-5,-4,-2,0,8,7,8,0
1511884712374407,5,-6,-4,-2,-7,-10,-1,11
1511884712374407,8,3,3,2,9,10,-8,5
1511884712397492,12,0,-1,3,-3,0,1,-2
1511884712397492,-6,5,1,-2,-3,3,4,3
1511884712399461,-5,-10,-8,-3,-7,-7,-4,4
1511884712399461,-5,-1,-1,-1,7,2,-4,-2
1511884712417537,2,3,1,2,-3,-1,2,-1
1511884712417537,-1,1,0,-1,-2,1,-6,-2
1511884712426530,-1,5,0,-1,1,-1,6,0
1511884712426530,-3,-1,-5,-1,6,6,20,-17
1511884712448639,-6,-7,-6,-3,-3,-2,-16,-2
1511884712448639,0,1,2,-3,-1,-16,-16,-9
1511884712450595,13,-5,-2,-2,1,18,16,6
1511884712450595,6,6,5,5,2,4,13,18
1511884712470845,-9,1,0,1,-3,-3,4,-22
1511884712470845,3,-1,-1,0,6,2,4,-4
1511884712478809,-5,1,5,6,0,-2,-7,0
1511884712478809,-4,-5,5,2,-4,-5,-5,-8
1511884712501869,-3,-5,-3,-4,-2,-2,-12,7
1511884712501869,5,-2,-16,-15,-6,7,16,6
1511884712502869,-15,-4,-14,-13,-10,-12,-23,-10
1511884712502869,-2,-1,-11,-10,3,5,22,-9
1511884712523047,4,1,3,-6,-12,-14,-11,5
1511884712523047,-6,-1,13,13,5,3,-6,7
1511884712531950,7,1,8,12,5,0,-1,9
1511884712531950,-2,-1,5,7,0,-3,-8,1
1511884712555056,2,0,1,8,0,-1,0,1
1511884712555056,0,0,-4,-2,-1,3,5,6
1511884712557014,-3,-2,-6,-7,-1,-4,3,-13
1511884712557014,-2,1,1,1,2,-5,-13,-2
1511884712575271,2,1,5,8,2,-4,1,5
1511884712575271,-1,-8,-14,-23,-17,-8,-4,0
1511884712584170,1,-3,-3,0,11,-3,-14,2
1511884712584170,0,-3,-2,-5,-4,-3,-2,4
1511884712606228,-3,1,4,1,1,-1,-2,-2
1511884712606228,-4,2,7,7,4,1,1,-9
1511884712608233,-1,-3,-3,0,-4,0,-2,3
1511884712608233,-2,2,-4,-4,-2,3,2,-4
1511884712627320,-1,-7,-2,-1,-11,-5,-3,-3
1511884712627320,-6,-1,4,4,22,13,7,2
1511884712636401,4,6,2,-11,-7,-5,0,-13
1511884712636401,1,3,6,17,2,-2,-4,2
1511884712659406,-5,0,6,13,14,1,0,-13
1511884712659406,2,-8,-11,5,-4,-1,5,18
1511884712662528,3,6,-20,-39,-20,-6,-6,-3
1511884712662528,-22,-26,-15,-22,-3,7,6,-19
1511884712665602,6,10,19,15,4,0,-1,7
1511884712665602,4,12,37,53,22,3,0,-1
1511884712666422,-2,-2,-4,1,10,-1,-1,-5
1511884712666422,-1,-7,-30,-43,-18,-10,-6,-1
1511884712674444,0,-1,-1,-8,-2,3,2,4
1511884712674444,3,-1,-3,1,9,1,14,10
1511884712674444,1,1,19,27,10,6,6,-2
1511884712674444,-2,6,13,29,12,-3,-7,-6
1511884712680462,-1,-1,-12,5,10,-5,-2,2
1511884712680462,-1,-5,-24,-37,-14,-4,-9,-6
1511884712681461,-8,-5,-9,-35,-26,-7,-8,-9
1511884712681461,1,3,0,7,6,5,3,2
1511884712688680,16,3,5,7,5,4,7,27
1511884712688680,-1,2,6,5,-1,-3,0,-5
1511884712689639,-3,-7,-4,4,6,-5,5,3
1511884712689639,3,6,14,10,-3,-2,4,1
1511884712696504,-6,-1,-2,0,-4,12,-7,-8
1511884712696504,-6,-4,-4,-5,-1,-1,3,-14
1511884712698510,6,2,6,14,8,16,4,27
1511884712698510,6,7,1,3,1,-1,-6,-4
1511884712703874,-3,-6,-12,-22,-19,-17,11,-12
1511884712703874,1,-3,-10,-16,-13,-4,-17,4
1511884712703874,-1,3,10,16,13,0,-1,-11
1511884712703874,2,4,1,3,-1,7,1,2
1511884712710799,-1,-2,-4,-7,1,-4,-3,-1
1511884712710799,2,-2,2,-5,-7,-4,-6,-1
1511884712711683,0,5,3,7,-1,-4,1,-2
1511884712711683,2,0,-4,-7,0,3,0,0
1511884712718803,-5,-4,1,1,-4,-7,-4,-2
1511884712718803,-3,-3,-4,-2,-7,-2,-1,-5
1511884712724721,-2,-3,-9,-10,-7,0,-1,-6
1511884712724721,0,-1,0,-6,-4,-4,3,2
1511884712740765,-2,-3,-1,1,8,3,0,1
1511884712740765,2,3,6,-2,-24,-5,2,3
1511884712741764,-5,-2,0,15,26,4,-2,-8
1511884712741764,2,1,2,3,-1,-8,-5,2
1511884712763856,1,1,1,-2,-7,13,9,-12
1511884712763856,-1,1,-6,-2,9,2,-4,-6
1511884712763856,0,0,-2,-6,-9,-6,-15,4
1511884712763856,-3,-4,1,3,-1,-9,-7,-2
1511884712778895,-5,2,-7,-6,-2,0,-5,-16
1511884712778895,-4,-1,-3,-5,-2,-4,-1,5
1511884712784889,-5,-5,-3,-5,-8,-2,1,-8
1511884712784889,-3,-4,-2,-2,4,0,-3,3
1511884712799959,9,4,0,-5,-7,-4,-6,4
1511884712799959,5,6,0,-2,1,-1,-1,10
1511884712807946,-18,-7,-5,4,1,-1,3,-16
1511884712807946,-5,-1,-1,-1,-3,-1,2,-3
1511884712823993,-5,-11,-9,-6,-1,-7,-5,2
1511884712823993,1,2,6,3,2,0,2,2
1511884712823993,8,5,3,6,1,0,3,-4
1511884712823993,-2,-7,-4,-5,-1,-5,-13,2
1511884712839058,-10,0,-4,-5,-4,-6,-10,-7
1511884712839058,-1,-11,-4,-1,3,1,1,7
1511884712845094,-2,0,2,1,-2,4,9,-12
1511884712845094,0,3,0,-2,1,5,4,-5
1511884712860203,1,0,0,0,1,0,8,6
1511884712860203,-2,1,2,7,6,5,6,-14
1511884712868107,0,1,7,1,0,3,25,4
1511884712868107,2,1,-1,-3,-1,2,0,0
1511884712883202,15,0,-4,-5,-3,0,4,8
1511884712883202,-6,-11,-4,1,1,5,0,-19
1511884712884146,-4,10,5,-4,-4,-3,-6,20
1511884712884146,-3,-5,-3,-1,1,0,4,-10
1511884712899184,-1,9,5,1,-6,-3,-3,5
1511884712899184,-2,-5,-10,-4,2,-1,-4,0
1511884712905251,5,-3,-2,0,-2,-6,-5,8
1511884712905251,0,0,-2,-6,-6,1,5,7
1511884712920355,-7,-5,0,0,4,7,-3,4
1511884712920355,7,8,4,3,-4,-5,-5,3
1511884712927382,-6,-5,-3,-4,2,-2,-10,-6
1511884712927382,3,5,1,3,2,5,8,-1
1511884712943302,-7,-4,0,1,-2,-2,3,-1
1511884712943302,7,-2,-2,-1,6,3,1,15
1511884712944305,-2,-2,-5,-5,-9,-6,-8,-7
1511884712944305,11,-2,2,-2,-1,3,2,5
1511884712959341,3,2,1,2,0,-8,-1,3
1511884712959341,-4,6,5,5,-4,0,-2,-3
1511884712965596,-7,-7,-2,0,-3,-1,-1,-5
1511884712965596,-2,-3,-1,0,11,1,-7,-1
1511884712980596,-2,3,-2,5,-1,1,-5,-8
1511884712980596,2,6,6,0,-4,-2,32,-1
1511884712987622,5,1,-3,-1,3,1,-8,7
1511884712987622,-2,0,-7,-10,-16,-3,-1,-2
1511884713003778,-4,-5,-14,-19,2,2,3,1
1511884713003778,0,2,0,-5,-4,-2,-1,-4
1511884713003778,0,0,6,10,3,1,0,-1
1511884713003778,-1,3,10,16,9,-1,-1,-1
1511884713018923,6,1,12,15,7,-1,4,7
1511884713018923,-11,-10,-6,-3,-8,-5,-15,0
1511884713024751,1,-3,-14,-22,-8,-4,-5,-2
1511884713024751,6,13,-7,-9,-3,-1,-3,-9
1511884713039931,12,-10,-2,-8,-4,3,2,23
1511884713039931,-12,-1,4,9,6,0,-15,-11
1511884713048044,5,1,10,14,7,2,4,0
1511884713048044,-7,7,4,5,1,-1,10,-11
1511884713063066,9,3,1,1,-2,1,-4,-14
1511884713063066,2,-9,-8,-4,-1,4,2,-1
1511884713063993,2,1,-8,-1,-2,-8,0,21
1511884713063993,-9,-2,4,-2,-3,-6,-7,-8
1511884713079034,-3,10,4,2,3,3,0,-6
1511884713079034,4,-1,-1,5,-7,-8,-12,6
1511884713085183,-8,-7,5,-10,-7,-6,-4,-14
1511884713085183,6,-9,-16,4,24,8,11,5
1511884713108216,-11,-10,-3,11,2,-15,-21,-1
1511884713108216,7,9,3,-22,-7,5,12,13
1511884713109220,-2,-6,6,30,15,5,1,0
1511884713109220,-5,-6,-9,-17,-10,-3,-8,1
1511884713123350,-7,-6,-24,-39,-13,0,5,-5
1511884713123350,1,1,-2,-9,1,-1,-8,-7
1511884713124354,6,0,9,6,-7,-3,-1,1
1511884713124354,1,3,20,21,2,5,9,13
1511884713139388,0,2,4,15,10,-1,4,-2
1511884713139388,3,1,5,12,11,3,10,2
1511884713145536,-7,-2,-1,-3,-7,2,3,-3
1511884713145536,7,1,-2,-3,-3,-5,-6,5
1511884713160570,-10,-15,-9,-9,-14,-2,-2,-6
1511884713160570,-1,2,-9,-16,-9,-13,-15,-3
1511884713167648,-1,-8,-6,-3,18,3,-3,1
1511884713167648,0,-6,-2,-1,-11,-6,-4,0
1511884713183736,-7,3,3,7,-1,0,6,-6
1511884713183736,10,2,1,5,15,3,1,25
1511884713183736,2,5,5,11,4,3,-1,-1
1511884713183736,-4,-4,-5,-11,-2,1,4,-6
1511884713198815,2,3,-2,-9,-3,0,-3,6
1511884713198815,-5,-5,-1,4,-2,-6,-6,-12
1511884713204717,5,3,0,-6,-5,0,1,3
1511884713204717,2,5,11,21,6,7,-2,1
1511884713219859,-3,-1,2,-4,0,-3,-5,-1
1511884713219859,-3,0,-10,-11,-1,0,0,-14
1511884713227822,0,-2,-11,-15,-7,3,-4,-6
1511884713227822,2,-8,-5,-5,-6,-4,4,15
1511884713242822,-12,0,11,14,5,3,1,-18
1511884713242822,12,0,6,13,6,3,2,28
1511884713243821,-4,1,-2,-6,-5,2,0,-29
1511884713243821,4,6,-3,-3,-2,-5,-12,15
1511884713258903,-13,-19,-11,-2,-1,-1,-7,-3
1511884713258903,4,1,2,-4,-5,3,3,-4
1511884713264880,-3,4,0,-5,-6,-3,-2,-2
1511884713264880,-5,8,5,4,3,5,7,-20
1511884713294975,13,5,1,-3,1,-2,-3,20
1511884713294975,1,2,-1,2,-3,2,1,-5
1511884713303981,-3,-6,-6,3,0,-10,-15,9
1511884713303981,-11,-6,-8,-12,-12,-7,3,11
1511884713326043,4,1,2,-4,1,0,0,2
1511884713326043,-6,-1,5,4,6,-5,-6,-10
1511884713328046,-1,-2,-6,-4,-15,-1,-1,3
1511884713328046,3,-3,-4,-7,14,0,1,0
1511884713349391,2,3,3,1,-8,5,4,-5
1511884713349391,0,-1,6,8,3,-3,1,6
1511884713350304,2,-1,4,9,4,3,2,4
1511884713350304,-2,-2,-4,-13,-12,-6,-11,-11
1511884713370519,1,6,-1,-2,0,3,-2,-5
1511884713370519,-7,-8,-12,-9,-2,1,1,-5
1511884713380361,-4,-6,7,-1,0,1,4,0
1511884713380361,0,5,-3,4,0,-2,-6,-4
1511884713401418,16,12,8,8,3,-4,1,5
1511884713401418,-25,-21,-8,-2,-6,0,1,-21
1511884713403425,-6,-9,-2,-8,2,-1,-4,-13
1511884713403425,2,5,-1,1,0,-3,-3,5
1511884713422570,5,3,4,8,2,2,3,1
1511884713422570,3,7,-2,3,-4,-2,-3,-2
1511884713431496,-2,-3,-17,-22,-4,-6,1,-2
1511884713431496,-4,-5,4,2,1,4,4,-7
1511884713453656,-6,-2,3,5,-2,3,-7,-11
1511884713453656,3,2,4,2,1,0,-1,1
1511884713455561,4,6,3,9,10,3,5,5
1511884713455561,0,1,8,-8,-12,-3,-3,-2
1511884713476620,-2,-7,-5,-4,-1,1,4,1
1511884713476620,4,4,0,-1,7,0,3,5
1511884713482791,6,5,4,6,6,-2,-2,8
1511884713482791,0,-5,-3,-2,-9,-4,-3,-5
1511884713506824,-1,3,2,2,1,0,-4,0
1511884713506824,-2,-1,1,-8,-20,-4,-7,-5
1511884713507827,2,2,4,9,16,4,10,2
1511884713507827,-2,1,1,0,-2,-3,-8,-3
1511884713528929,-4,-4,-10,-12,-4,8,-1,-3
1511884713528929,3,2,5,4,2,-1,0,7
1511884713530892,-1,0,4,7,-6,-5,0,3
1511884713530892,0,-1,-3,1,4,4,6,0
1511884713549941,-2,-5,-15,-16,-8,-6,-2,1
1511884713549941,1,2,-5,-3,0,-2,0,1
1511884713560971,-2,1,3,-2,-8,3,3,3
1511884713560971,1,-4,-1,4,5,-5,-10,1
1511884713567008,-1,2,9,13,1,-1,6,5
1511884713567008,2,1,-9,-4,8,4,2,-2
1511884713567008,-4,-19,-6,-4,-4,-1,-5,-3
1511884713567008,-1,-3,-1,0,2,-2,-1,-12
1511884713567987,-1,-3,5,4,0,-2,3,7
1511884713567987,3,7,-1,-3,-2,5,0,-10
1511884713574002,-6,-3,-7,-11,-1,-7,-8,-2
1511884713574002,-3,-7,-7,-3,-2,4,13,-3
1511884713575009,-1,-2,-3,-3,1,-5,11,10
1511884713575009,-3,-2,7,12,9,7,4,1
1511884713582025,4,6,0,-4,-11,-1,-9,-3
1511884713582025,0,-5,-1,3,2,0,-1,2
1511884713582025,-3,-1,0,-7,-10,-5,-4,-7
1511884713582025,1,1,0,11,13,4,2,5
1511884713583031,1,5,3,-4,-2,3,3,-4
1511884713583031,0,-3,-1,4,1,3,2,0
1511884713588160,2,2,-3,-6,-2,1,-2,-1
1511884713588160,-3,-2,5,-3,-8,-11,-13,-2
1511884713589045,-3,-2,-4,0,-1,3,1,-2
1511884713589045,-4,1,0,-1,2,-2,3,-1
1511884713603182,-1,-2,-1,-2,1,0,-4,-6
1511884713603182,0,-4,3,1,-1,2,0,-3
1511884713604084,-2,3,4,10,4,-2,-4,0
1511884713604084,6,8,-1,-5,-4,-1,-5,6
1511884713619123,-1,-3,-12,-9,0,0,-2,-6
1511884713619123,-4,-7,-9,-10,-7,2,1,-4
1511884713625141,0,-2,-6,0,1,0,3,0
1511884713625141,-1,0,1,-1,0,-6,-12,-5
1511884713640241,2,3,11,12,5,2,-2,3
1511884713640241,0,-1,-5,1,-2,1,-4,7
1511884713647240,1,2,-1,-3,2,0,13,4
1511884713647240,0,-1,0,-4,-3,-1,-6,-1
1511884713663284,-1,-2,0,8,0,-2,-1,0
1511884713663284,0,-2,0,-5,-2,-4,1,-7
1511884713664273,3,4,-2,-4,-2,-2,-3,2
1511884713664273,-3,-7,-2,-1,2,4,1,2
1511884713679306,1,0,0,-2,4,-6,1,-3
1511884713679306,-1,2,5,5,-4,-3,-8,-4
1511884713685322,1,0,1,-2,-3,4,0,1
1511884713685322,-3,-4,-3,-1,3,-1,2,-3
1511884713700488,-2,1,-2,-3,-6,-1,-2,-1
1511884713700488,-2,-1,-2,-2,-2,-1,-3,-2
1511884713707579,1,0,-2,-5,0,-5,-5,-3
1511884713707579,0,-4,-5,0,1,2,9,1
1511884713723495,1,1,1,5,1,-6,-6,1
1511884713723495,0,0,1,-3,-1,0,3,4
1511884713724498,-1,-4,-3,-2,-5,-4,-5,-3
1511884713724498,-2,-1,-1,-1,-7,0,-1,-5
1511884713738726,-1,-3,-4,-8,11,5,-1,-3
1511884713738726,-1,0,6,7,1,-5,4,2
1511884713745550,2,2,6,7,-1,-1,-2,-1
1511884713745550,2,2,-6,-8,-3,-1,-1,1
1511884713760600,-2,-2,-6,-9,-4,-2,-3,2
1511884713760600,-2,-3,-9,-1,0,-1,0,-2
1511884713767780,-4,1,-4,2,4,12,1,-10
1511884713767780,-1,1,5,3,0,-1,-3,0
1511884713782888,-1,-3,-1,3,1,1,-3,-2
1511884713782888,3,1,3,0,-1,0,-1,2
1511884713789812,-2,-2,0,-1,0,-5,-2,-1
1511884713789812,0,-1,0,-3,-2,0,2,0
1511884713798833,0,1,5,7,2,3,9,1
1511884713798833,1,1,5,4,3,-2,1,-3
1511884713805041,-1,-2,-12,-14,-8,0,2,1
1511884713805041,0,-1,-6,-6,-4,-9,-7,-1
1511884713819991,0,-1,-3,-8,-4,-5,-2,1
1511884713819991,0,4,1,2,-2,1,-1,1
1511884713827913,0,-2,3,7,2,-2,10,2
1511884713827913,2,0,3,8,5,-5,-12,3
1511884713843005,2,-2,0,-1,-1,7,1,-2
1511884713843005,-3,-5,-13,-12,-6,-4,3,-1
1511884713850093,0,0,-6,-7,0,1,-2,-2
1511884713850093,-2,0,4,4,4,2,-2,-1
1511884713858995,-2,-5,6,8,-1,-4,0,3
1511884713858995,0,0,1,-1,3,6,4,1
1511884713865451,1,2,2,3,0,-4,-3,0
1511884713865451,-3,-5,-5,0,0,-2,-4,1
1511884713880398,3,3,-2,-6,-4,6,17,1
1511884713880398,-1,-1,-1,2,4,-1,-3,0
1511884713887417,-2,-5,-6,-6,-5,-2,-2,-1
1511884713887417,1,6,7,4,0,1,0,-1
1511884713902619,-2,2,6,7,5,-3,-4,-4
1511884713902619,-1,-2,-10,-5,-6,0,4,-1
1511884713910607,-1,-1,-5,-14,0,-8,-11,-3
1511884713910607,-1,-8,-12,-9,-5,-4,3,0
1511884713925707,1,0,1,3,4,3,-2,0
1511884713925707,-2,0,3,5,-2,-2,0,-2
1511884713926706,0,-3,6,6,-1,-2,-3,3
1511884713926706,1,2,-5,-6,-1,6,12,-2
1511884713939742,-3,0,-3,-7,-6,-9,-18,-8
1511884713939742,0,-3,-1,2,-1,-1,-2,7
1511884713947766,1,-2,1,0,0,0,2,-3
1511884713947766,-4,-5,-3,-1,0,1,3,-5
1511884713962806,1,7,2,8,1,2,3,1
1511884713962806,-2,-1,-3,-8,-4,-7,-7,-2
1511884713970013,-1,3,3,2,0,2,-4,-2
1511884713970013,2,-3,2,0,-1,3,7,2
1511884713986023,0,0,-3,-4,-1,-13,-16,-4
1511884713986023,-1,-3,1,-3,-4,6,6,-2
1511884713987020,-2,-1,3,7,1,-1,-1,-1
1511884713987020,0,5,-2,-2,0,6,2,-1
1511884713999904,-1,-5,-1,-2,1,-3,3,2
1511884713999904,1,-3,7,6,2,0,-6,-3
1511884714007931,-1,-8,-13,-7,-6,-4,4,4
1511884714007931,-2,1,-2,-10,-3,-1,-4,0
1511884714023052,-2,-2,-7,-11,-9,1,3,2
1511884714023052,2,1,0,-2,0,-1,2,-1
1511884714030069,0,2,7,8,6,1,1,-1
1511884714030069,1,0,4,8,4,-1,-2,3
1511884714046162,-2,-2,0,1,1,1,0,-2
1511884714046162,-1,-3,-2,3,2,-5,-3,0
1511884714047111,0,-1,-1,-3,-4,1,1,2
1511884714047111,-5,-4,-7,-9,-6,-3,-5,-2
1511884714060148,-2,-3,0,2,0,2,0,-1
1511884714060148,-1,-3,-4,-5,-5,0,2,2
1511884714067207,0,1,4,6,1,-2,3,1
1511884714067207,0,0,3,0,-1,-5,-5,1
1511884714082419,0,-1,-1,1,3,3,0,-2
1511884714082419,0,0,1,1,0,-1,-6,-3
1511884714090436,-1,-4,-13,-5,-6,-4,0,0
1511884714090436,-1,-2,-3,-5,-2,1,0,-2
1511884714105394,-2,-1,-3,-6,-6,-3,-2,0
1511884714105394,1,2,2,-3,0,-2,3,-3
1511884714106356,1,1,8,12,8,1,-8,-2
1511884714106356,2,5,9,9,3,2,3,0
1511884714120683,-2,-6,2,2,-2,2,3,1
1511884714120683,-4,-3,-8,-13,-9,-4,-7,-4
1511884714127535,-1,-2,1,2,5,2,-1,-1
1511884714127535,0,1,-1,5,0,-2,-7,2
1511884714142575,-1,-3,-1,1,2,2,14,4
1511884714142575,2,2,3,1,-6,3,3,-2
1511884714149591,-1,-1,-2,-3,-4,-3,-7,-1
1511884714149591,-2,1,2,-5,3,1,-3,-3
1511884714165747,1,0,-3,-6,-3,-2,-3,-1
1511884714165747,0,-2,-1,0,3,0,1,-2
1511884714166636,1,4,6,-1,-1,1,-2,2
1511884714166636,3,3,6,10,4,3,1,-1
1511884714179760,-1,-1,-6,-8,-5,-1,-6,-5
1511884714179760,-1,-4,-7,-8,-5,-5,3,5
1511884714187756,-2,-2,-7,-10,-3,-1,0,-4
1511884714187756,3,2,6,6,1,2,2,3
1511884714202877,-1,6,8,4,0,-1,-4,-2
1511884714202877,-1,0,4,7,3,3,-1,-3
1511884714209904,-3,-6,-6,-2,-3,-1,9,5
1511884714209904,-3,-3,-12,-17,-10,-5,-4,-2
1511884714225981,-1,-3,-3,1,3,-2,-1,0
1511884714225981,-2,2,1,2,1,-4,-14,0
1511884714226940,3,2,6,8,4,-1,7,1
1511884714226940,-1,-3,-3,0,-1,9,5,0
1511884714239980,1,-1,-1,-3,-5,-2,1,1
1511884714239980,-3,0,-1,1,2,-1,-7,-5
1511884714248031,-3,-2,-6,-6,1,-1,-7,-6
1511884714248031,0,-4,1,0,-3,-6,7,6
1511884714263059,1,7,7,4,1,-1,-5,-2
1511884714263059,-2,-10,-17,-8,-2,0,6,2
1511884714270104,2,3,-6,-2,-1,3,-1,-3
1511884714270104,0,-5,-9,-16,-7,0,-3,-1
1511884714286244,-4,0,1,3,5,3,2,-2
1511884714286244,2,2,13,8,4,-1,5,1
1511884714286244,-2,-3,3,4,-3,-2,-1,-1
1511884714286244,-4,-2,-7,-2,2,-6,-8,-2
1511884714301430,-2,-3,-11,-15,-5,0,0,-3
1511884714301430,1,2,4,2,-2,1,3,6
1511884714307446,2,2,6,2,3,-1,-1,2
1511884714307446,-1,-2,6,14,4,-1,-5,-4
1511884714322608,-1,-2,-5,-3,-4,1,-7,-8
1511884714322608,-4,-2,0,-2,3,1,2,0
1511884714330654,-1,-1,-1,-5,-6,5,0,-1
1511884714330654,2,0,4,7,0,-10,7,2
1511884714345762,0,2,-1,1,0,-2,-3,1
1511884714345762,1,3,-1,0,-1,3,-1,0
1511884714346927,-2,-4,-7,-10,-11,-7,0,1
1511884714346927,-4,-2,-3,-8,2,-1,-1,-2
