timestamp,emg1,emg2,emg3,emg4,emg5,emg6,emg7,emg8
1511885699732725,-1,-1,-2,-1,0,1,-1,-2
1511885699732725,-1,1,-1,-1,0,3,0,-1
1511885699733728,0,-1,1,-2,-1,0,0,0
1511885699733728,0,2,1,0,-2,0,1,1
1511885699734731,-1,-1,-2,-2,-3,1,1,0
1511885699734731,-1,-2,-1,0,-2,0,-2,-1
1511885699735821,-2,-2,-3,-1,-2,-2,-1,-2
1511885699735821,-1,-1,-1,-1,1,3,-1,-2
1511885699746402,-1,-2,1,-1,-1,-1,-2,-2
1511885699746402,0,0,-1,-2,-1,-1,0,0
1511885699755424,0,-1,-2,0,1,-2,-1,-1
1511885699755424,0,-1,-1,-1,-2,-1,-1,-2
1511885699761439,1,-2,0,-2,-2,-3,0,-1
1511885699761439,0,-1,2,1,1,-3,0,0
1511885699776479,-2,0,3,0,-1,1,-1,-2
1511885699776479,-2,-1,-3,-3,-2,-5,0,0
1511885699784533,-1,1,2,9,2,2,1,-1
1511885699784533,-1,-3,-1,0,-1,-4,1,-1
1511885699791594,2,-2,-1,-2,0,0,0,0
1511885699791594,-2,0,0,0,1,0,1,0
1511885699806561,1,-1,0,-4,-2,-4,0,0
1511885699806561,1,1,1,-2,-2,0,1,-2
1511885699814584,1,-1,0,0,-2,-1,-1,1
1511885699814584,0,-1,-1,1,-1,-4,-2,-3
1511885699854694,1,2,-1,0,0,0,0,-1
1511885699854694,0,1,0,0,3,0,0,-1
1511885699854694,-1,-2,-2,0,-1,3,1,0
1511885699854694,1,-1,-1,-1,-1,2,0,1
1511885699855692,-3,-1,0,0,-1,-1,-3,0
1511885699855692,-1,0,0,0,0,-2,0,-1
1511885699858733,1,1,-1,-1,-3,1,0,-1
1511885699858733,0,-1,1,-3,1,-1,0,-2
1511885699865742,-1,0,-2,-1,-1,4,-1,0
1511885699865742,0,-1,-3,-2,-2,0,-1,0
1511885699873919,-2,0,-2,0,-1,-1,0,0
1511885699873919,-1,0,-2,-1,-1,-3,-1,1
1511885699880801,0,-1,1,7,0,1,2,1
1511885699880801,-2,0,-3,-2,1,1,0,0
1511885699896823,-2,0,-1,-1,-2,-3,0,-1
1511885699896823,0,-2,-1,-3,0,-1,-2,-2
1511885699903842,-1,-2,-3,0,0,1,-1,0
1511885699903842,-1,0,0,-1,-4,-1,1,-2
1511885699910838,1,-1,-4,-1,-1,-1,-2,-1
1511885699910838,-1,1,-2,-1,0,-2,1,-2
1511885699925969,1,1,-2,-3,-1,2,0,0
1511885699925969,-1,-1,0,0,0,2,0,0
1511885699934111,-1,1,-2,-2,1,-4,-1,1
1511885699934111,-2,-2,-1,2,-4,-2,-2,0
1511885699941043,0,-1,-1,-3,0,-2,-1,-1
1511885699941043,-1,0,1,1,-1,0,-2,-1
1511885699957036,-1,0,1,-2,-2,1,-1,0
1511885699957036,-2,-1,-3,-3,-1,-2,-2,0
1511885699963011,-2,0,1,0,0,-3,-1,-2
1511885699963011,-1,-1,-1,-1,-1,-2,-2,-1
1511885699971030,-1,-2,3,2,1,-2,0,-3
1511885699971030,0,-2,1,-3,-1,2,-1,2
1511885699986072,0,1,-2,-3,-3,-2,0,-1
1511885699986072,-3,-3,-2,0,-1,-4,0,0
1511885699994091,0,-2,-1,-1,-1,0,-2,0
1511885699994091,-2,-2,-3,0,0,0,1,-1
1511885700001110,0,-1,-2,0,1,-2,0,-1
1511885700001110,-1,-1,1,2,2,1,0,0
1511885700016252,-1,-2,-1,-1,-1,-4,0,0
1511885700016252,-1,1,0,0,0,-1,-1,-2
1511885700023172,-1,-1,0,-1,-2,-4,-1,2
1511885700023172,1,-1,-1,-2,-1,-4,-1,0
1511885700039211,-1,-1,-2,1,1,1,-1,0
1511885700039211,0,0,1,4,1,0,0,-1
1511885700046232,0,-1,-3,-2,-3,-1,-1,-1
1511885700046232,-2,0,0,4,2,-2,-1,1
1511885700054277,-1,1,-3,-3,-2,-2,-1,1
1511885700054277,-2,0,0,-1,-1,-1,0,0
1511885700061282,-1,0,0,1,2,-2,1,-1
1511885700061282,0,-3,-1,-2,-1,1,-1,0
1511885700076315,1,1,2,0,-2,-3,-1,1
1511885700076315,0,-2,0,-3,0,-1,0,-1
1511885700083333,-1,0,-1,-4,-3,1,-1,-3
1511885700083333,-1,2,1,-1,1,-3,0,-1
1511885700091359,-1,-1,-1,1,1,0,0,0
1511885700091359,-2,-1,0,3,1,0,1,-1
1511885700105387,0,-2,0,0,0,-2,-1,1
1511885700105387,0,-2,0,-2,-2,0,-1,-1
1511885700114413,-1,0,0,0,-1,-2,-1,-1
1511885700114413,0,-1,-2,-3,-2,-1,0,-1
1511885700120430,0,-1,2,4,0,-1,2,2
1511885700120430,3,-1,-2,-3,1,1,0,0
1511885700136473,1,-1,0,-3,-2,0,-1,-1
1511885700136473,0,-1,0,3,0,-1,-1,1
1511885700143610,-4,-3,-1,-1,0,-3,-3,-2
1511885700143610,1,1,-2,-2,-2,-3,-1,-1
1511885700150743,0,-2,0,-2,1,-3,0,-1
1511885700150743,-2,1,-1,-3,0,-2,0,1
1511885700165671,-2,-1,-1,0,0,-3,-1,1
1511885700165671,-1,1,-1,-1,-1,-1,0,1
1511885700174724,-1,0,-3,-1,-2,-2,-3,-2
1511885700174724,2,-2,1,2,1,-2,-1,0
1511885700180711,-1,-1,-3,-3,0,1,1,-3
1511885700180711,-1,0,-1,2,-2,0,0,-2
1511885700197018,-4,0,0,-2,1,0,0,-1
1511885700197018,0,-1,-2,-2,-2,-1,0,1
1511885700204033,-1,-1,-2,-3,-3,1,-1,-2
1511885700204033,0,-2,-2,-2,-1,-2,1,0
1511885700211054,0,-1,-1,0,-1,-2,0,0
1511885700211054,0,1,-1,-1,-1,-3,-2,-1
1511885700226214,0,1,1,-2,1,2,-1,0
1511885700226214,-1,-2,-1,1,-1,-1,-2,-2
1511885700234239,2,-2,0,3,1,1,0,-1
1511885700234239,-1,1,-1,-3,-2,-2,0,1
1511885700241257,1,-2,0,1,-1,0,1,-1
1511885700241257,0,1,1,0,-2,2,-3,0
1511885700256383,0,-1,-1,0,0,0,-1,0
1511885700256383,-2,-2,-2,0,-1,-1,1,-3
1511885700263318,-1,0,2,-1,-1,-5,-1,1
1511885700263318,-1,0,0,3,0,-2,-2,0
1511885700279361,0,-1,-1,-3,-3,-1,-1,0
1511885700279361,0,0,1,1,1,-2,-3,-2
1511885700286376,0,-2,-2,-2,1,-4,1,0
1511885700286376,-2,0,-1,-1,-1,-2,1,1
1511885700294400,-2,0,-1,2,1,-1,0,-1
1511885700294400,-1,0,-2,-2,-3,-1,0,-1
1511885700301418,2,0,-2,-1,0,-3,0,-2
1511885700301418,2,0,-1,0,-1,0,0,-1
1511885700316496,-2,-1,1,0,2,-1,0,0
1511885700316496,0,0,0,0,0,-1,1,-1
1511885700323509,0,-1,0,-1,-2,-1,1,0
1511885700323509,-1,-1,-2,-2,2,-1,0,-2
1511885700339517,2,-1,-1,1,-3,-3,0,-1
1511885700339517,0,-1,0,-1,1,0,-2,1
1511885700346541,0,1,1,2,-1,-3,-2,0
1511885700346541,-2,0,0,-3,-2,-3,0,0
1511885700354557,-2,-1,-1,-2,-2,0,-1,-2
1511885700354557,-1,0,1,-2,0,-3,0,-4
1511885700361581,-3,-1,1,4,1,1,-1,0
1511885700361581,-1,0,-1,-4,-3,-1,-1,-1
1511885700376658,1,2,-2,-2,-3,-2,-2,0
1511885700376658,0,0,-3,0,-1,1,-3,0
1511885700383638,-3,-2,-1,-1,-1,-2,-1,0
1511885700383638,0,-2,0,-1,-1,0,0,-1
1511885700398675,0,-1,-1,0,0,-3,0,-2
1511885700398675,-1,-1,-1,-1,0,-3,0,-1
1511885700405693,2,1,0,-2,-1,-2,1,0
1511885700405693,-2,0,-1,2,-1,1,1,-2
1511885700413713,0,1,-1,-2,1,-2,1,1
1511885700413713,-2,0,1,1,-1,-1,0,0
1511885700420759,1,0,0,0,0,-3,-1,-2
1511885700420759,-2,0,-1,-1,-2,-2,1,0
1511885700436895,1,-1,0,3,1,-2,0,-2
1511885700436895,0,-1,-4,-3,-4,0,-2,0
1511885700443893,0,-1,0,4,1,-1,0,0
1511885700443893,-2,-2,-2,-1,-3,-1,-1,0
1511885700458962,-3,-1,-1,-1,-3,0,0,0
1511885700458962,-1,-1,-1,-1,-2,-1,0,1
1511885700465910,1,0,-1,-1,-1,2,-1,-3
1511885700465910,2,-1,-1,0,0,-1,-2,0
1511885700473878,0,-1,1,0,1,1,-2,-1
1511885700473878,-1,-1,0,-1,-1,-1,1,-2
1511885700480895,-2,0,0,3,0,0,1,1
1511885700480895,-1,-4,-3,1,4,-2,-2,-1
1511885700496937,-3,-1,0,1,-2,-3,1,0
1511885700496937,0,0,-2,1,2,-2,-2,-1
1511885700503153,-1,1,-1,2,1,-5,1,-4
1511885700503153,0,0,1,-2,-1,0,-2,-2
1511885700519178,0,-2,0,1,3,2,-2,-1
1511885700519178,0,0,2,-1,1,-2,2,0
1511885700526050,-1,0,6,-1,-2,-1,-1,0
1511885700526050,1,-2,-8,-2,-2,-3,-1,0
1511885700534146,-1,0,-1,-2,-2,-4,2,0
1511885700534146,1,1,9,4,-1,4,-1,0
1511885700548070,1,0,-9,-21,-1,-6,-2,-1
1511885700548070,-3,-3,3,17,2,-2,-1,-1
1511885700557140,1,-2,2,8,3,-1,2,-3
1511885700557140,-2,-1,-5,-4,0,-1,-1,0
1511885700563113,-1,2,-1,0,-4,1,-4,1
1511885700563113,2,2,3,-7,-1,0,-1,0
1511885700579152,-2,-2,-8,-5,-2,-2,-1,-2
1511885700579152,0,-1,4,3,-2,2,0,-1
1511885700586171,-2,-1,-1,-2,0,2,0,-1
1511885700586171,-2,-1,-4,-2,-2,-2,0,0
1511885700593191,-1,0,-7,-3,-2,2,-2,1
1511885700593191,0,1,14,-3,0,0,-1,-1
1511885700608413,-2,-2,-13,6,0,0,-3,-1
1511885700608413,-2,-6,2,2,0,-4,0,-2
1511885700616429,0,5,13,4,-3,6,-1,-1
1511885700616429,-4,-12,-45,-10,0,-8,0,-3
1511885700623382,0,1,10,-15,1,-3,-2,0
1511885700623382,2,3,2,7,9,2,-4,-1
1511885700639495,1,3,10,-7,-6,-5,0,0
1511885700639495,-2,0,10,10,-1,-4,-1,0
1511885700645570,-3,-2,0,2,0,-2,1,-2
1511885700645570,-2,-2,-10,-4,-3,-2,3,0
1511885700653808,-1,1,7,-4,2,-1,4,-2
1511885700653808,2,2,4,5,0,0,1,1
1511885700668759,1,-3,-13,2,0,-4,-4,-2
1511885700668759,1,-1,9,-2,-2,-2,0,1
1511885700676773,-3,-4,-9,0,2,-1,-1,-1
1511885700676773,-1,1,0,-4,0,-2,-3,-2
1511885700683750,-1,0,4,-2,2,1,2,1
1511885700683750,3,2,3,8,-3,-3,-1,0
1511885700698750,-2,-2,-2,-2,2,-8,1,-1
1511885700698750,0,-2,-10,-8,-8,0,1,-1
1511885700705889,2,3,30,2,1,4,1,2
1511885700705889,-3,-3,-34,-2,0,-1,3,-2
1511885700713946,1,-1,-3,-2,1,-5,0,0
1511885700713946,1,2,13,3,2,-4,-4,0
1511885700728101,0,-2,4,7,-6,-7,-4,0
1511885700728101,0,3,8,-4,4,5,-1,1
1511885700736005,-1,-1,-10,0,0,-1,10,1
1511885700736005,-2,0,-1,-6,0,-6,1,-2
1511885700743021,0,2,5,1,-1,-6,-13,-1
1511885700743021,-3,-1,15,0,-3,-2,1,0
1511885700759067,-1,-6,-21,3,-2,-3,-5,0
1511885700759067,1,2,5,0,2,1,4,0
1511885700766085,1,-2,-7,4,-1,-1,2,-1
1511885700766085,-1,-1,-1,-6,0,-2,-2,0
1511885700773104,1,2,14,-3,-6,1,-2,-1
1511885700773104,0,-2,-14,-5,-4,-2,0,0
1511885700788142,-3,-3,-7,4,5,-10,3,1
1511885700788142,0,0,1,-7,-6,-14,-1,-3
1511885700796288,-2,-4,3,-2,2,15,1,-3
1511885700796288,1,3,10,12,4,10,-2,0
1511885700803218,-1,3,5,-2,-2,2,5,1
1511885700803218,0,-2,-17,-3,1,-5,1,0
1511885700819274,0,0,9,2,-2,-12,-3,1
1511885700819274,-4,-3,-1,-3,1,-5,-4,-1
1511885700826365,-1,-1,4,5,-4,8,-7,-2
1511885700826365,0,1,13,3,-4,2,9,2
1511885700842291,1,0,-12,0,-1,-5,-4,1
1511885700842291,-1,0,9,6,0,-4,1,0
1511885700848306,-2,-4,-10,-12,-2,-6,4,-3
1511885700848306,1,1,2,1,0,1,-9,-3
1511885700864386,0,-1,-5,-5,-2,-2,-2,-2
1511885700864386,-2,1,1,-3,0,-1,0,2
1511885700866355,-1,0,3,0,-2,2,-2,-1
1511885700866355,-1,-4,-18,0,0,-13,-1,0
1511885700879388,-3,-1,5,-2,1,11,1,-1
1511885700879388,0,0,2,-3,-4,-14,-1,-2
1511885700886401,-2,-4,-12,1,0,-4,6,0
1511885700886401,1,1,9,-1,-2,-9,-2,1
1511885700901562,1,1,2,2,0,12,-11,-1
1511885700901562,-1,0,-9,-3,1,-3,5,-2
1511885700908586,-2,-4,-7,-6,1,-4,-2,0
1511885700908586,-1,1,0,2,-1,3,20,1
1511885700924626,-1,1,-2,-5,-3,-20,-12,-2
1511885700924626,-3,-2,-3,-2,-2,6,-4,-3
1511885700926512,0,0,3,-1,-3,-9,0,-2
1511885700926512,-2,-1,0,-2,-2,-3,-7,-2
1511885700939544,-1,-1,1,2,1,1,5,2
1511885700939544,2,-1,-2,2,2,4,1,3
1511885700946564,-1,-4,-5,-1,1,-10,2,-1
1511885700946564,-3,0,2,-2,-1,5,-1,-2
1511885700960604,0,-2,-1,2,-1,-3,2,-2
1511885700960604,0,-1,2,-4,0,6,-6,-2
1511885700968676,1,0,-4,3,-1,1,-3,1
1511885700968676,-1,0,-1,-3,0,8,-3,-2
1511885700983665,-1,0,2,1,3,9,7,0
1511885700983665,-1,0,-3,-2,-3,-7,-3,-3
1511885700984663,-1,1,0,-1,0,8,1,-1
1511885700984663,1,1,8,3,2,2,-5,0
1511885700999704,-2,-2,-13,-5,-2,-11,-4,0
1511885700999704,-3,-5,-1,-3,-1,-1,1,-2
1511885701005723,-1,2,2,0,-4,-12,-1,0
1511885701005723,-1,-1,-2,-3,0,3,-11,0
1511885701020767,-1,2,3,3,2,-5,13,0
1511885701020767,1,3,2,2,1,5,-4,1
1511885701028783,-1,-2,-6,-1,2,-3,1,1
1511885701028783,-1,-1,-1,-2,-2,-4,-1,-1
1511885701043874,0,-1,1,-1,-3,-4,-5,0
1511885701043874,-2,2,-1,0,-2,-11,3,1
1511885701044825,-1,2,0,-1,-1,4,2,-2
1511885701044825,0,-2,-3,-2,0,8,-2,-1
1511885701059869,-1,-3,-3,0,0,2,0,0
1511885701059869,0,-2,-1,0,0,-8,-1,0
1511885701065997,0,0,-1,0,-1,6,0,0
1511885701065997,-1,2,2,1,0,-2,0,-1
1511885701081923,-1,-2,-1,-2,-2,-5,-4,-2
1511885701081923,0,-1,-1,2,0,6,3,2
1511885701087938,1,1,-2,-1,-1,1,-3,-1
1511885701087938,-2,-1,-1,-1,0,2,0,-1
1511885701103980,-1,-1,0,0,0,-8,-4,-2
1511885701103980,-1,-1,0,-1,-2,-9,2,-1
1511885701104984,0,-2,-1,2,3,7,3,1
1511885701104984,1,-1,1,-1,1,1,-2,0
1511885701120024,-2,2,0,0,0,2,0,0
1511885701120024,-1,-2,-1,-1,1,1,-1,-2
1511885701126040,-1,1,-1,1,-1,0,-3,0
1511885701126040,-1,-1,0,-3,-11,-13,-2,-2
1511885701142082,-1,-2,-5,-2,5,5,0,1
1511885701142082,-1,0,-1,0,1,-4,0,-1
1511885701148098,0,-3,3,1,9,29,6,-1
1511885701148098,0,-1,2,0,1,-3,-1,0
1511885701164144,1,-1,0,1,-3,3,-5,0
1511885701164144,0,-2,-3,-4,-2,-6,-1,0
1511885701165147,0,-2,-1,0,2,5,0,1
1511885701165147,-1,2,-2,1,1,0,2,0
1511885701186260,-1,0,0,0,-3,-5,0,-1
1511885701186260,-1,-1,-3,1,-1,-3,-3,-3
1511885701187208,2,1,0,-1,-9,-18,-5,-1
1511885701187208,-2,0,-3,0,7,3,3,-2
1511885701210264,2,0,0,-4,-3,-14,-2,-1
1511885701210264,-1,0,0,-1,-1,14,3,0
1511885701211269,0,0,3,1,16,9,2,2
1511885701211269,-4,-5,-2,-3,-4,9,-1,-2
1511885701224300,-1,0,0,1,5,4,1,0
1511885701224300,0,-3,-1,-2,-1,3,1,0
1511885701225304,0,0,1,-2,-4,0,7,-1
1511885701225304,0,-1,0,2,3,2,-6,0
1511885701246366,-3,-1,-2,-4,-12,-23,-3,-1
1511885701246366,-2,0,0,0,-14,-4,-1,1
1511885701247367,-1,0,-1,0,-8,-5,2,1
1511885701247367,-1,0,0,0,-2,-8,-10,1
1511885701262403,1,1,1,3,12,26,24,-2
1511885701262403,-2,1,-2,-1,1,1,-41,1
1511885701268538,-1,1,-1,-3,-3,-2,8,-3
1511885701268538,-2,-1,-2,-3,-4,-2,1,-2
1511885701284488,2,-1,2,2,1,6,-2,5
1511885701284488,-2,-2,0,-1,4,-4,1,-5
1511885701284488,-1,0,0,1,-6,0,-5,-2
1511885701284488,3,1,0,-3,-1,-2,-37,0
1511885701306963,-2,-3,-4,-2,-7,-9,74,-1
1511885701306963,0,0,-1,1,0,-7,6,-1
1511885701307870,-1,0,-4,-4,-10,-13,-7,1
1511885701307870,-1,0,0,1,-2,-5,10,-1
1511885701321813,1,0,-1,1,12,15,-23,1
1511885701321813,-1,-1,-1,0,1,8,2,-2
1511885701328836,-2,-3,-1,1,1,6,3,-4
1511885701328836,0,0,-1,1,4,13,10,1
1511885701343873,-1,-2,0,0,-2,12,-24,-2
1511885701343873,0,0,-3,0,12,5,10,0
1511885701344874,-2,-2,-2,-1,2,1,-10,-1
1511885701344874,0,-1,0,0,1,5,4,0
1511885701366059,-3,-3,-1,-2,-7,-16,-13,-1
1511885701366059,0,-2,-3,-1,-3,1,4,1
1511885701367059,-1,-1,-1,-3,4,1,-7,0
1511885701367059,0,0,0,-1,-2,-4,10,0
1511885701382098,-1,-1,-1,1,0,-7,-19,-3
1511885701382098,1,1,4,2,16,24,7,2
1511885701388116,-4,-2,0,-1,-4,-9,-6,-1
1511885701388116,-2,-2,-1,-2,-1,-3,2,-1
1511885701411199,0,1,0,-1,-4,15,-5,-1
1511885701411199,0,-2,0,2,0,-4,-10,0
1511885701412206,1,1,-2,-4,-9,-6,15,-1
1511885701412206,-1,0,0,0,-3,-8,4,0
1511885701426259,-1,0,0,1,-1,4,-3,0
1511885701426259,-3,-3,-1,-1,-2,-13,-5,-2
1511885701427224,1,0,0,-1,3,0,-3,1
1511885701427224,-2,-2,-1,-1,-2,-3,1,-1
1511885701442266,-2,0,-2,-3,-2,-7,-3,-1
1511885701442266,-1,1,1,1,6,18,6,-1
1511885701448278,2,0,1,-1,4,2,-3,0
1511885701448278,-1,-1,-2,-2,-4,-5,-1,-1
1511885701464320,0,1,0,-4,-10,-12,-7,-1
1511885701464320,-3,0,-3,-4,0,-10,2,0
1511885701465323,-3,-2,0,1,-8,-5,-2,0
1511885701465323,-1,0,-1,1,-1,-2,-4,-1
1511885701486504,-1,-1,-2,0,2,3,-1,-1
1511885701486504,-1,-1,-3,-6,-14,-32,-1,-2
1511885701487381,-1,0,3,7,8,7,2,0
1511885701487381,-1,0,-3,-2,-2,-9,-2,1
1511885701502419,-1,-1,-3,-3,1,-12,-6,0
1511885701502419,1,3,18,-8,-10,5,2,0
1511885701508452,0,-4,-28,-6,-3,-16,-2,-2
1511885701508452,-1,0,16,13,1,5,-4,-1
1511885701523589,0,-2,-12,4,-3,-1,0,-1
1511885701523589,-2,-3,-6,-8,-32,-4,0,0
1511885701530613,0,3,8,0,15,3,-1,0
1511885701530613,-1,0,0,-8,-10,-7,0,-1
1511885701546773,1,0,3,-2,-15,-28,-1,0
1511885701546773,-1,0,0,4,5,-7,1,-1
1511885701547665,1,0,4,-3,-17,-5,-5,-4
1511885701547665,-1,-3,-12,-2,-9,-3,1,-2
1511885701562698,-1,-1,5,3,-5,-9,1,-2
1511885701562698,2,-2,-6,2,14,-9,1,0
1511885701568755,-1,-2,2,1,0,5,-8,-2
1511885701568755,1,0,-4,-2,8,11,2,1
1511885701583752,0,-2,-1,0,9,10,-2,-3
1511885701583752,-2,0,-2,1,-2,-1,0,-3
1511885701590806,-2,-2,0,2,0,3,1,1
1511885701590806,-2,-2,-2,-1,2,-7,-3,-1
1511885701606852,-1,-1,5,1,11,6,-1,1
1511885701606852,-2,1,3,-8,-14,-28,-2,0
1511885701607821,-2,-3,-19,-6,-22,-22,-5,-1
1511885701607821,-2,-2,-4,5,6,16,0,0
1511885701622857,-1,1,2,-4,0,4,-1,-1
1511885701622857,-1,-4,-4,10,7,8,-1,0
1511885701628872,0,2,10,-3,6,7,5,1
1511885701628872,1,1,0,-2,9,-1,-1,1
1511885701643915,-1,-2,-3,1,13,21,2,-1
1511885701643915,2,1,3,1,6,15,0,1
1511885701650972,-2,0,-2,1,2,-3,1,-1
1511885701650972,1,-1,2,3,6,4,3,2
1511885701666973,1,0,-2,-1,-4,0,3,-1
1511885701666973,-1,0,-2,1,3,7,-5,-2
1511885701666973,-1,-1,3,6,3,1,1,0
1511885701666973,-1,-4,-13,-7,-7,-14,1,-4
1511885701682013,-1,2,8,-2,-4,-6,-2,1
1511885701682013,-2,-3,-12,-5,-7,5,-1,-1
1511885701688029,-1,-2,-2,6,11,13,-3,-1
1511885701688029,3,4,8,-1,9,8,2,2
1511885701703484,-2,-4,-10,-4,-19,-31,-5,-3
1511885701703484,-3,0,10,2,6,-4,3,0
1511885701711313,-2,1,3,-2,12,7,-5,1
1511885701711313,0,-1,-6,-3,-6,-7,0,-2
1511885701726480,0,2,1,0,8,2,1,1
1511885701726480,0,1,-5,3,10,13,3,0
1511885701727488,2,-2,0,1,14,24,5,0
1511885701727488,-2,0,-1,-3,-7,-1,-4,-3
1511885701742525,0,0,2,5,0,-3,1,1
1511885701742525,-2,-3,-8,-10,-15,-10,-3,-2
1511885701748581,-2,0,0,6,3,-2,0,0
1511885701748581,0,1,14,-7,5,-2,1,-1
1511885701763623,2,-2,-6,2,2,21,0,1
1511885701763623,-2,-6,-19,-5,3,-5,1,0
1511885701770726,-2,0,13,3,-15,-5,-2,-1
1511885701770726,-1,-3,-24,-11,-3,-7,1,0
1511885701786682,-1,0,8,-4,-3,-1,-3,-1
1511885701786682,1,0,-2,4,-4,-1,1,-1
1511885701787646,0,-1,1,-4,-10,-13,-4,-2
1511885701787646,-2,-4,6,4,-9,-1,1,0
1511885701802684,-3,0,-8,-5,-6,-17,-3,-2
1511885701802684,1,0,4,-5,0,4,-1,1
1511885701808747,0,1,-4,-3,-7,-11,1,1
1511885701808747,0,3,0,5,8,11,-1,-1
1511885701823805,-1,-3,-4,0,2,-7,0,-2
1511885701823805,-1,-1,4,0,-3,-6,1,0
1511885701838781,1,0,-1,-2,3,-5,1,-2
1511885701838781,-1,1,2,2,6,-2,4,1
1511885701846856,-2,0,2,-2,0,-5,0,-2
1511885701846856,-1,1,2,3,-1,-5,-1,0
1511885701847835,-1,-2,5,5,1,-1,2,1
1511885701847835,-1,-3,3,-3,-12,-20,3,-2
1511885701861891,0,0,2,4,-3,-11,-1,-1
1511885701861891,0,5,36,-5,-4,5,-1,0
1511885701868892,-1,-7,-44,-2,1,-7,-5,-1
1511885701868892,-2,-1,7,2,-2,-1,0,-4
1511885701883901,-1,1,2,2,-3,11,-4,-1
1511885701883901,1,-4,-20,-7,8,4,-1,-1
1511885701890973,0,5,21,-7,-12,-1,-1,-1
1511885701890973,-2,-1,-3,-2,-3,1,-4,-1
1511885701907001,-2,-3,4,-2,2,11,0,0
1511885701907001,1,1,6,7,4,9,-6,-3
1511885701907001,-2,-2,-7,-5,3,11,-1,-2
1511885701907001,-2,-3,-10,-6,-29,-23,-4,-3
1511885701922000,-2,-2,-2,-1,1,4,-5,0
1511885701922000,-2,-1,-7,2,-1,-1,1,0
1511885701928020,-1,0,-1,-3,-2,-8,-1,-1
1511885701928020,1,-1,1,-2,0,5,1,2
1511885701943059,1,0,2,-1,2,7,2,-1
1511885701943059,2,1,6,-1,-3,18,-8,-1
1511885701951081,-3,-9,-28,-5,-9,26,-10,-3
1511885701951081,0,-1,8,-2,10,31,-8,-3
1511885701967146,0,-6,-21,-7,-7,16,-9,-1
1511885701967146,-3,-5,-11,-1,6,5,-3,-3
1511885701967146,0,2,9,-2,-2,-7,0,-2
1511885701967146,1,1,1,2,4,-6,-1,1
1511885701982164,1,4,16,1,-3,-27,6,-1
1511885701982164,1,-3,-6,5,11,-15,8,-1
1511885701988183,0,2,14,-2,3,-8,5,-1
1511885701988183,0,-1,-16,0,-4,-3,-2,-1
1511885702003259,0,0,-4,-6,-4,-6,1,-1
1511885702003259,0,2,8,6,-5,-4,2,-3
1511885702011290,-3,0,-5,-3,-1,-8,2,0
1511885702011290,-3,-2,11,-2,8,0,2,-1
1511885702026319,0,-2,-12,1,6,3,2,0
1511885702026319,-2,0,-1,-1,-4,-6,3,2
1511885702027281,0,0,7,2,5,-3,1,-1
1511885702027281,0,4,6,-1,-6,-1,2,1
1511885702042321,-1,0,2,2,4,-7,-2,0
1511885702042321,-1,-1,-8,-4,0,-7,0,0
1511885702048379,-1,-3,-13,3,-2,-6,2,-2
1511885702048379,-1,0,-2,1,5,1,4,0
1511885702063379,-1,-2,9,1,-2,0,1,0
1511885702063379,-1,2,1,-2,1,-1,-1,0
1511885702071399,0,1,5,-4,-1,2,0,0
1511885702071399,-1,-1,-5,5,5,-2,-1,-2
1511885702086479,-3,0,5,1,0,-4,-1,0
1511885702086479,1,0,-2,-3,-19,-16,0,-1
1511885702087440,-1,-3,-4,-3,-11,-10,1,-2
1511885702087440,2,1,-3,1,1,0,-1,2
1511885702102480,3,2,0,0,3,2,4,1
1511885702102480,-4,-1,1,-1,-4,-3,-2,-1
1511885702108496,-4,-5,-3,-1,1,-7,1,-2
1511885702108496,2,-1,0,-5,-5,-5,-1,-1
1511885702123536,12,1,-7,2,-1,1,-2,1
1511885702123536,-21,-1,-7,-3,2,4,-1,-2
1511885702130554,-1,1,7,1,3,2,0,-1
1511885702130554,-1,-4,-1,1,-4,-8,-6,-1
1511885702146598,2,-1,-3,-2,1,1,2,-1
1511885702146598,11,-1,10,2,1,0,3,3
1511885702147625,3,4,2,3,0,4,-4,3
1511885702147625,-1,2,-2,-11,1,1,-1,-1
1511885702162640,-5,-4,-11,7,1,-10,0,-3
1511885702162640,1,2,8,-2,-1,-2,-4,-2
1511885702168656,1,2,4,0,-1,-1,2,-1
1511885702168656,2,-1,2,1,0,0,2,0
1511885702183695,-5,-2,0,-7,-3,2,-3,-1
1511885702183695,3,0,-4,2,3,-1,-1,-1
1511885702190715,3,4,7,0,2,1,0,2
1511885702190715,-2,-2,-12,-9,-10,-3,-4,-2
1511885702206790,-8,-5,-3,-6,0,-1,0,-4
1511885702206790,-2,-3,-5,1,0,-1,-1,-1
1511885702206790,-1,-1,4,-3,-4,-3,-2,1
1511885702206790,-1,3,6,6,1,2,1,2
1511885702222800,-4,-2,-4,-5,-1,0,0,1
1511885702222800,2,0,3,-1,1,-1,-2,0
1511885702228821,-2,-1,-2,1,1,3,-2,0
1511885702228821,-1,-1,-1,0,3,1,0,0
1511885702243002,0,2,3,-1,0,0,1,-2
1511885702243002,-1,1,-3,0,1,2,-1,0
1511885702250992,0,-1,0,-4,-2,1,-2,-2
1511885702250992,0,-2,-1,6,0,1,-1,1
1511885702267011,-1,-1,2,-1,0,0,-1,-2
1511885702267011,1,-2,0,-3,-6,-2,-3,-2
1511885702267011,-3,-2,-9,-5,1,-2,0,-1
1511885702267011,0,2,5,2,-2,-3,-3,0
1511885702281961,4,5,5,1,-1,3,1,4
1511885702281961,-2,0,-4,-3,0,3,-4,-2
1511885702287973,-4,-10,-5,-5,-4,-8,3,-5
1511885702287973,-2,-3,-1,-3,-4,-8,2,-2
1511885702305020,-3,0,0,2,-1,-4,-2,-1
1511885702305020,2,2,-3,0,0,-1,-2,1
1511885702311034,1,1,-4,-3,-2,-1,-2,2
1511885702311034,0,-2,-1,1,0,1,-1,-1
1511885702326077,-1,-1,0,-3,0,1,-1,-1
1511885702326077,-4,-2,-1,-1,-2,-1,0,-2
1511885702327077,0,0,2,4,1,-1,-3,0
1511885702327077,-3,0,-2,-2,1,4,1,-1
1511885702342117,-1,1,1,2,0,1,1,0
1511885702342117,1,-2,-4,-6,-9,-1,-1,-2
1511885702348137,0,3,-3,5,-1,6,-2,1
1511885702348137,-1,-3,-6,-3,6,-4,1,-1
1511885702363176,-2,-2,-1,5,-16,-14,-4,-5
1511885702363176,2,-2,1,2,-1,-1,0,2
1511885702371194,-1,1,6,-1,-1,1,-1,1
1511885702371194,0,0,3,0,1,4,0,0
1511885702386237,0,3,0,-6,2,4,1,1
1511885702386237,2,-1,1,-3,4,6,2,0
1511885702387237,-2,-3,-3,1,-2,-7,-5,-3
1511885702387237,-2,0,-4,-1,-1,0,0,0
1511885702402537,0,-4,-5,-3,-2,-4,0,0
1511885702402537,-3,0,-1,-2,-1,-3,0,1
1511885702408556,2,2,4,-1,1,1,0,3
1511885702408556,2,1,1,-1,-3,-4,-1,0
1511885702423624,-2,-2,1,-2,-1,2,0,-2
1511885702423624,0,0,0,2,2,0,-1,0
1511885702430616,2,0,-1,1,1,-2,0,-1
1511885702430616,-2,-2,-2,1,-2,1,0,0
1511885702445654,0,-1,0,-1,6,4,2,-1
1511885702445654,-1,-2,1,1,1,1,-1,-1
1511885702453810,-2,-1,2,-1,-1,0,1,-2
1511885702453810,-1,0,-2,-3,-1,1,0,-2
1511885702468837,2,-1,-3,2,3,8,-2,-1
1511885702468837,-16,-4,-4,2,1,-10,-1,-4
1511885702469757,6,0,-1,-2,-1,-2,-3,-4
1511885702469757,10,0,2,0,0,-3,-2,4
1511885702483812,-1,-1,-2,0,0,1,0,-2
1511885702483812,7,0,1,0,-2,1,-1,1
1511885702490778,-3,-1,0,-5,2,-2,3,2
1511885702490778,-5,0,0,0,0,-2,0,-5
1511885702505817,2,-1,-3,-2,-8,-9,-4,-1
1511885702505817,2,0,1,0,2,2,0,0
1511885702513046,1,0,-1,-1,-6,-1,-2,-1
1511885702513046,0,-1,-4,-2,2,12,2,1
1511885702522067,-4,1,-1,-3,7,3,-1,1
1511885702522067,1,0,-1,2,-1,-19,-1,0
1511885702528086,-5,-2,-2,-4,-19,-24,-1,0
1511885702528086,-3,0,0,2,8,-3,-3,-2
1511885702543217,-3,-1,0,-4,-20,-20,-3,0
1511885702543217,-3,-2,-4,-2,-4,2,-2,-4
1511885702551170,0,0,1,-2,8,9,0,1
1511885702551170,-2,0,0,-1,-1,-4,0,0
1511885702566231,0,1,-1,1,7,0,0,1
1511885702566231,2,-1,-1,1,0,3,1,1
1511885702573206,-1,-1,-2,0,-4,-2,0,-1
1511885702573206,-1,-3,0,0,0,-1,-1,0
1511885702582227,2,0,1,1,6,8,0,2
1511885702582227,-2,-1,0,0,2,7,-1,2
1511885702588245,-2,1,-1,0,5,5,0,0
1511885702588245,-1,-1,1,0,-9,-7,-3,-3
1511885702603286,-1,-1,-1,-1,0,2,-1,-1
1511885702603286,-1,1,-1,0,-6,7,-1,0
1511885702611308,-1,-1,-1,-2,0,-8,-3,-3
1511885702611308,0,-1,-4,-3,8,9,0,0
1511885702626382,-3,-1,0,-1,-11,-17,-3,-1
1511885702626382,1,1,-3,-2,4,0,0,0
1511885702633366,-2,0,-1,0,2,5,1,0
1511885702633366,1,-1,-1,-1,7,4,2,-1
1511885702649409,0,-2,0,1,22,2,-1,0
1511885702649409,-3,-3,-4,-8,-19,-37,-4,-4
1511885702649409,4,0,3,-1,-9,3,0,1
1511885702649409,-2,-2,-4,-3,-1,-5,0,0
1511885702663446,-1,-1,0,6,3,10,0,0
1511885702663446,2,1,0,2,5,6,-2,0
1511885702670582,-2,-2,-1,1,9,-5,-2,-1
1511885702670582,-4,0,1,-4,-18,-16,-3,-1
1511885702685504,0,-1,-1,-8,-7,-1,-1,-1
1511885702685504,0,0,1,0,6,8,-2,-1
1511885702693722,0,0,-4,9,4,6,1,0
1511885702693722,1,0,1,1,2,3,1,-2
1511885702708877,-2,-1,-2,1,-1,2,1,-1
1511885702708877,0,0,1,-5,-3,-4,3,-2
1511885702709875,0,-4,-3,-2,-2,1,1,-1
1511885702709875,0,2,12,2,-15,-16,-3,-1
1511885702723941,-3,-1,-19,-12,20,8,3,3
1511885702723941,0,-1,4,0,2,-4,-1,1
1511885702730931,-2,2,9,20,3,-3,0,-1
1511885702730931,0,-1,-1,0,-12,5,2,0
1511885702745975,-1,0,10,1,-4,8,-2,-1
1511885702745975,0,-2,-9,-14,-5,5,1,1
1511885702752990,1,2,0,8,3,3,-1,-1
1511885702752990,-2,1,1,3,10,-1,0,-1
1511885702769035,0,0,1,-1,0,0,0,-1
1511885702769035,-1,2,-4,2,4,4,0,0
1511885702770035,-3,-3,0,-10,-14,-14,-3,-2
1511885702770035,0,-1,0,-2,0,-1,-1,-1
1511885702783073,1,1,-3,-2,-10,-9,-2,-2
1511885702783073,-1,-1,7,12,10,12,0,1
1511885702791094,0,-2,-11,-1,11,10,0,-1
1511885702791094,-2,0,6,-9,-15,-29,-4,-1
1511885702806258,-1,0,2,-6,-14,-7,-1,-2
1511885702806258,0,-1,-6,0,-10,0,2,-1
1511885702813275,-1,-7,-12,4,7,-5,-1,-1
1511885702813275,-1,0,-7,1,2,8,-1,1
1511885702829320,0,1,2,-7,0,2,0,-1
1511885702829320,1,6,24,2,-1,3,0,0
1511885702829320,-2,-2,-5,-4,-4,1,0,-1
1511885702829320,0,-2,-9,6,6,2,-3,-3
1511885702843536,0,-2,2,0,-2,-3,-2,-1
1511885702843536,1,1,-8,-10,2,0,2,0
1511885702851376,0,1,5,-8,-2,20,0,3
1511885702851376,0,-4,-2,4,-3,1,-2,0
1511885702865417,-1,-3,-5,-2,-2,0,-1,-1
1511885702865417,-4,-2,-2,-3,-2,-7,-1,-4
1511885702873619,1,2,7,1,-1,-5,0,0
1511885702873619,-1,-1,-8,3,5,-4,1,-2
1511885702889609,1,-1,2,6,-5,-3,-2,0
1511885702889609,-2,0,-9,1,8,5,-1,1
1511885702889609,-2,2,3,-12,-3,-1,-2,-1
1511885702889609,-1,0,5,0,1,7,0,1
1511885702903518,-1,-3,-1,2,0,-3,2,0
1511885702903518,-1,-3,-3,5,-11,-28,-5,-2
1511885702910565,0,-1,-4,-6,-4,0,0,-1
1511885702910565,0,1,3,-4,1,1,-1,-1
1511885702925577,-1,0,8,19,0,1,0,-1
1511885702925577,0,-1,-6,-10,0,7,0,-1
1511885702933598,-2,-2,6,-6,-3,-1,-2,0
1511885702933598,-1,-4,-32,-6,2,-2,1,0
1511885702948765,0,1,11,-2,-1,-1,0,1
1511885702948765,-1,-3,0,4,0,2,-1,0
1511885702949765,-2,-3,-3,-3,0,-6,-2,-1
1511885702949765,-2,-1,0,-3,-1,-2,-1,-1
1511885702963802,-2,1,-3,-3,-2,-2,-1,-1
1511885702963802,1,-1,-2,2,-1,2,-3,-1
1511885702970978,0,1,4,1,-1,-4,1,1
1511885702970978,1,1,8,2,-1,3,-1,0
1511885702986106,-1,-1,-9,-3,-13,-12,1,-3
1511885702986106,-1,-1,2,-1,-3,3,1,-1
1511885702993096,1,0,2,2,-2,0,-1,-1
1511885702993096,-1,-1,-6,-5,-4,-5,1,0
1511885703009162,1,0,12,1,4,1,-3,0
1511885703009162,-2,-3,4,10,0,-4,1,-2
1511885703010058,-1,1,-2,-3,-1,2,1,0
1511885703010058,0,0,5,0,2,7,1,-1
1511885703023344,0,-1,-6,2,2,1,2,0
1511885703023344,-1,0,0,-3,6,-5,1,0
1511885703031284,0,0,0,0,-2,2,-2,-1
1511885703031284,-1,2,4,-2,4,2,-2,-1
1511885703046303,-2,-3,-10,-9,-5,-8,-2,-2
1511885703046303,1,2,-1,1,3,4,-2,1
1511885703053360,0,0,-1,3,2,1,0,-1
1511885703053360,-3,-2,1,-6,-2,-5,-2,0
1511885703069402,-1,-2,0,-1,6,5,0,1
1511885703069402,-1,0,-2,-1,-16,-28,-7,-2
1511885703069402,0,-1,-4,-5,1,-4,-2,-1
1511885703069402,1,1,3,6,-2,0,-3,-1
1511885703083440,0,-2,-7,0,-8,-11,0,-2
1511885703083440,-1,-2,-2,-3,2,5,0,0
1511885703091453,0,-2,-1,2,-6,-4,-2,0
1511885703091453,0,-1,6,-2,0,-4,1,1
1511885703105460,1,-1,-8,1,1,0,-1,0
1511885703105460,-1,-1,1,-2,2,5,-1,-2
1511885703113667,-1,0,-2,-5,-4,-9,-4,-3
1511885703113667,-1,0,3,9,5,3,3,-1
1511885703129559,-2,1,-1,-4,0,1,1,-2
1511885703129559,-1,0,2,1,1,4,1,-1
1511885703129559,-1,-3,-4,-3,1,-3,2,-1
1511885703129559,-1,-2,-1,-6,-9,-5,-1,-3
1511885703143560,-1,1,3,0,3,-2,-3,1
1511885703143560,0,-1,-2,2,2,0,-1,-1
1511885703150578,0,-2,2,2,18,11,4,0
1511885703150578,-2,1,3,-2,-7,-2,-1,-1
1511885703165619,1,1,-2,0,0,1,-1,-1
1511885703165619,1,-1,2,0,5,7,-1,0
1511885703173822,0,1,-7,-3,-1,3,0,0
1511885703173822,1,-2,-3,-1,3,-2,-1,0
1511885703188677,0,0,-5,0,4,6,0,1
1511885703188677,-1,-1,-7,-6,-4,-5,-1,-1
1511885703189679,-3,0,7,7,2,8,2,-1
1511885703189679,-1,-1,-9,-3,3,3,1,-1
1511885703203720,-1,1,6,-2,3,0,-1,-1
1511885703203720,1,-1,0,2,-3,0,0,-1
1511885703210915,1,0,-6,0,-2,-4,-1,-3
1511885703210915,0,1,1,-2,-3,0,-2,-1
1511885703225778,0,0,1,4,2,3,2,0
1511885703225778,-2,-1,-1,-7,0,5,1,-1
1511885703233899,-1,-2,1,2,3,5,-1,-2
1511885703233899,-2,-1,0,0,-8,-8,-2,-2
1511885703249100,-1,0,0,-5,-9,-4,0,0
1511885703249100,-1,-4,-10,-2,3,2,1,0
1511885703249986,0,0,1,-4,-4,-2,0,-1
1511885703249986,2,4,26,8,3,9,0,-1
1511885703263024,-2,-5,-22,1,1,-1,-1,1
1511885703263024,-2,-4,-3,-5,-5,-5,0,-1
1511885703271042,1,3,6,5,-4,-10,-2,1
1511885703271042,-1,-2,-8,-8,1,-2,0,1
1511885703286085,-1,2,9,-3,-2,-3,-4,-1
1511885703286085,0,-1,1,3,-4,-19,-2,0
1511885703293104,-3,-1,-9,-5,-4,-10,-2,-2
1511885703293104,-2,-2,3,3,5,6,1,0
1511885703309323,-1,-2,5,1,4,8,-4,-1
1511885703309323,0,-1,-12,-7,1,4,-1,-2
1511885703310292,-1,-1,0,3,-5,-2,0,-1
1511885703310292,2,0,-5,4,-3,-9,-2,-1
1511885703323201,-3,-2,0,-3,-3,-4,0,0
1511885703323201,2,2,8,7,6,11,2,4
1511885703331207,0,-1,3,8,4,6,1,0
1511885703331207,-2,0,-4,-3,0,3,1,-1
1511885703346247,0,-3,-5,-2,-4,-5,1,-2
1511885703346247,0,3,6,-2,1,3,-1,-2
1511885703353376,2,-2,0,-14,0,-1,-1,-1
1511885703353376,-1,-2,-7,6,-5,-5,-2,-1
1511885703368417,0,-3,8,8,1,2,1,-1
1511885703368417,-3,0,-5,-6,6,4,-1,0
1511885703376345,-1,-2,-10,-11,-10,-2,-3,-1
1511885703376345,-1,-4,-10,2,-1,-7,0,0
1511885703383344,-2,1,8,-2,0,3,0,-2
1511885703383344,-2,0,-2,3,-1,-2,-2,-1
1511885703391427,0,1,7,0,-2,-6,-2,1
1511885703391427,0,2,2,-6,1,4,-1,-1
1511885703405684,2,-2,-5,9,-2,-1,0,-1
1511885703405684,-2,-1,3,-2,-2,-6,1,-3
1511885703413555,2,-1,-1,11,20,21,3,-1
1511885703413555,-1,0,-4,-7,1,4,1,0
1511885703428776,1,1,2,-2,0,-1,-2,1
1511885703428776,1,-1,1,-12,-5,-5,-2,-1
1511885703436707,1,-1,-2,9,-2,-6,-1,1
1511885703436707,-1,-1,1,2,-4,-13,1,-2
1511885703443632,-4,-1,2,-3,-1,-4,-1,1
1511885703443632,-1,-1,0,-1,0,4,-1,-1
1511885703450654,-1,-2,-2,-9,-6,-9,0,-2
1511885703450654,0,-1,3,4,-4,-3,-1,0
1511885703465694,-1,-1,-7,-6,-3,-3,0,-2
1511885703465694,0,0,-5,3,-2,-2,1,0
1511885703473711,0,-2,-1,0,-4,-6,1,0
1511885703473711,1,0,2,5,-2,0,-2,0
1511885703488752,-1,0,-7,-4,3,1,2,2
1511885703488752,1,1,3,1,-8,-11,-3,-1
1511885703496872,-1,1,-1,-7,0,-5,-1,-2
1511885703496872,-3,-3,-2,-8,-4,-1,-3,-1
1511885703503835,-2,2,0,2,4,-5,-1,0
1511885703503835,-1,-2,4,3,4,8,2,0
1511885703510812,-3,-2,-6,-1,-1,0,-3,-2
1511885703510812,-1,-2,2,0,-2,-11,-1,-2
1511885703525854,0,-1,1,-2,-7,-7,-1,0
1511885703525854,-1,-1,-1,1,-3,1,0,1
1511885703533933,-1,0,2,-4,2,2,0,1
1511885703533933,0,0,1,-1,7,10,0,-2
1511885703548216,0,-2,-2,2,-1,-5,0,-1
1511885703548216,-1,-2,-9,3,0,-2,-2,0
1511885703557106,0,1,-3,-6,2,-2,-1,0
1511885703557106,-2,1,8,3,1,2,2,0
1511885703571109,-1,-3,-9,4,-5,-4,-1,-2
1511885703571109,-1,-1,1,-3,-1,-3,-1,0
1511885703572108,0,-1,-2,-1,-1,-4,2,-2
1511885703572108,2,-1,-3,0,0,1,0,0
1511885703586176,-1,1,6,-2,-1,3,-2,-1
1511885703586176,-1,-1,3,2,4,7,-2,-1
1511885703593353,-2,-1,-5,1,-2,-1,1,0
1511885703593353,-4,-2,1,-3,0,1,0,1
1511885703608316,0,-1,2,0,-1,5,1,-2
1511885703608316,1,-1,-2,1,0,0,0,0
1511885703616339,-2,-1,2,-9,-3,-3,-2,-1
1511885703616339,1,1,-5,6,1,0,-1,-1
1511885703631263,0,0,0,1,4,3,1,-3
1511885703631263,-2,-2,0,-5,-23,-29,-3,0
1511885703632262,0,1,8,-2,1,5,0,1
1511885703632262,-1,-3,-8,-2,2,2,-1,-1
1511885703645462,1,1,4,6,4,-9,-1,-1
1511885703645462,0,1,3,0,4,3,0,-1
1511885703653479,0,1,8,1,-3,-2,-3,0
1511885703653479,0,-3,-14,-5,-3,-10,-2,0
1511885703668677,2,0,2,-4,1,5,0,-1
1511885703668677,1,1,2,1,4,7,-2,0
1511885703676747,-2,0,1,0,-4,-2,-1,-2
1511885703676747,-1,0,-1,1,7,9,1,-1
1511885703691723,-1,-1,-1,-7,-4,1,2,0
1511885703691723,0,-2,-6,2,2,2,0,0
1511885703692725,0,0,0,8,-4,-10,-1,1
1511885703692725,0,0,0,-3,-3,0,0,-1
1511885703705654,-2,-2,-4,-2,-6,-8,-2,-2
1511885703705654,-1,1,-4,-4,-21,-19,-4,-1
1511885703713677,-1,0,-2,-8,1,1,0,-1
1511885703713677,0,0,-4,-5,-3,-6,0,0
1511885703728718,-2,-2,5,6,-6,-7,-4,0
1511885703728718,0,-1,-2,-6,7,8,2,0
1511885703743868,-1,-3,-6,9,-6,-16,-3,-2
1511885703743868,0,-2,1,-2,-4,-1,-1,0
1511885703751901,-1,-2,4,2,2,2,-1,0
1511885703751901,-1,-2,-5,-3,5,5,0,0
1511885703752787,-1,0,-1,3,10,9,2,0
1511885703752787,0,-3,-4,-8,-2,3,-1,0
1511885703765855,0,0,-1,2,6,-4,-1,0
1511885703765855,-2,-1,4,0,-4,0,0,-2
1511885703773878,-1,2,-1,-5,-3,-1,0,-1
1511885703773878,-1,3,4,5,1,0,-1,0
1511885703787888,0,1,-6,-6,4,4,0,0
1511885703787888,0,0,-1,2,5,4,1,0
1511885703796051,-1,-1,-4,0,-4,-2,-2,0
1511885703796051,3,-1,1,-7,-2,-2,-1,-1
1511885703811065,-2,-1,-6,-15,-3,2,0,-1
1511885703811065,1,-3,5,26,6,-1,0,-1
1511885703812064,0,-3,-6,-12,-6,-8,0,-1
1511885703812064,-2,0,3,10,-4,-8,-2,1
1511885703826273,1,-1,1,-6,-5,-1,3,2
1511885703826273,-3,-2,-3,-8,-3,3,-2,-2
1511885703833124,0,-2,-6,1,3,1,-2,1
1511885703833124,-1,-2,1,-5,-4,-4,-3,-1
1511885703848202,0,1,-4,3,-4,-11,-3,-1
1511885703848202,2,1,3,-6,2,3,-1,-2
1511885703856185,0,-3,-1,6,2,-3,1,-2
1511885703856185,-3,0,1,-5,0,-2,-2,-2
1511885703871247,1,-3,-4,-7,3,0,0,1
1511885703871247,-1,0,2,14,4,-2,-1,0
1511885703872226,1,0,3,-4,-3,-2,-1,-1
1511885703872226,1,1,-2,5,2,4,1,0
1511885703886367,-1,-3,0,-3,-6,-4,1,-1
1511885703886367,0,-2,-4,-10,-1,-1,-1,1
1511885703893378,-1,2,-1,3,4,5,-1,-1
1511885703893378,-1,0,0,-2,-2,-3,1,0
1511885703908604,0,0,0,1,0,7,1,-1
1511885703908604,-2,0,4,3,-3,-6,-1,-1
1511885703916476,0,-1,-3,1,-3,0,3,0
1511885703916476,0,0,4,-3,-2,-3,0,-1
1511885703939521,0,0,-5,-6,-7,-3,-4,-1
1511885703939521,-2,-6,-12,3,2,1,2,0
1511885703940502,0,-3,8,8,-1,-3,-2,1
1511885703940502,-1,-1,-1,-7,-1,-3,0,-1
1511885703945554,-1,0,6,10,1,1,-2,1
1511885703945554,-2,0,0,-12,-2,-1,-3,0
1511885703953536,1,-1,-2,6,1,-1,0,-2
1511885703953536,-2,-1,-1,0,0,-3,-1,0
1511885703968576,-1,1,0,0,6,5,0,-2
1511885703968576,0,0,0,-2,3,2,-1,-1
1511885703975595,-1,1,2,-5,0,0,0,0
1511885703975595,-3,-2,-3,3,0,0,-1,1
1511885703991638,1,-2,-2,-1,1,2,0,0
1511885703991638,-1,2,6,7,1,-3,0,-1
1511885703992641,0,0,-7,-7,-5,0,-1,0
1511885703992641,0,0,1,2,3,4,-1,0
1511885704005834,0,-2,-2,-3,-4,-3,0,-2
1511885704005834,-1,1,2,-3,1,5,-2,-1
1511885704013693,-1,-2,1,-3,-6,0,-2,-1
1511885704013693,-1,-1,-6,1,0,-1,-2,-1
1511885704028780,-2,0,2,-1,0,-1,1,-1
1511885704028780,0,-1,-1,3,2,4,2,1
1511885704035934,-1,-2,0,-3,-3,-5,-1,-1
1511885704035934,0,-1,0,0,-4,-5,0,-2
1511885704051902,-1,-1,-1,0,-2,0,-1,0
1511885704051902,0,0,0,-5,0,-3,0,-1
1511885704052839,-3,-1,-3,4,-2,-2,-2,-1
1511885704052839,-3,-4,-7,-9,-3,-4,-1,-1
1511885704065836,1,1,-2,-4,1,-1,-1,-1
1511885704065836,1,1,9,10,-2,-5,-1,1
1511885704073885,1,2,-6,-7,-6,-2,1,1
1511885704073885,2,0,0,-3,0,6,0,0
1511885704087891,-1,0,-3,5,0,0,0,-2
1511885704087891,-2,-2,-6,-1,-3,-2,0,-1
1511885704095915,-3,-2,0,-6,0,-4,0,-4
1511885704095915,-2,1,-1,-1,3,0,-2,0
1511885704111958,-1,-2,0,-2,1,-2,0,0
1511885704111958,-1,1,0,-5,0,4,0,-2
1511885704111958,-2,-1,-2,1,-11,-21,-3,0
1511885704111958,-2,0,0,-1,-1,-2,-1,-2
1511885704126162,-1,-1,-2,3,2,-2,1,0
1511885704126162,0,2,5,-6,5,2,-2,0
1511885704133013,-1,-3,-2,1,5,7,-1,-2
1511885704133013,1,-1,-1,3,-2,-2,-1,-1
1511885704148050,-2,-1,-2,-2,-3,-8,-2,-1
1511885704148050,-1,0,-2,1,-3,-2,-1,-1
1511885704156260,1,0,7,11,3,4,1,0
1511885704156260,0,0,-4,-1,1,0,0,1
1511885704171259,-1,0,7,3,4,5,-1,-2
1511885704171259,-1,0,-8,-11,-3,-3,0,-1
1511885704172116,-1,1,-1,-3,7,3,0,-1
1511885704172116,0,-1,3,6,1,-3,-1,-2
1511885704186291,-1,0,-6,-2,-1,-4,0,1
1511885704186291,1,-1,-4,-3,-3,1,-1,-2
1511885704193342,-1,1,5,0,-1,1,0,-2
1511885704193342,-2,-2,-6,-4,0,1,2,-1
1511885704208213,-2,-2,-2,0,1,-2,-1,-1
1511885704208213,0,0,-9,-2,1,2,-2,-1
1511885704216252,1,1,1,4,4,4,1,3
1511885704216252,-1,-2,1,-7,-2,-2,-1,-1
1511885704231271,0,1,10,10,-2,1,-1,0
1511885704231271,1,-2,-3,-2,4,1,2,0
1511885704232274,-2,-3,0,-6,-1,-1,-1,1
1511885704232274,0,-1,2,3,-2,-2,-1,2
1511885704246315,-1,0,-5,-9,-3,-7,0,0
1511885704246315,-1,-2,2,2,-3,-3,-1,0
1511885704253492,0,2,2,0,-4,-4,-2,-3
1511885704253492,0,-1,0,3,3,2,0,0
1511885704268531,-2,-2,-2,-4,-6,-2,-2,-1
1511885704268531,-1,-2,0,-3,-3,-4,-1,0
1511885704275549,-1,1,-1,-2,-1,-2,-2,1
1511885704275549,-1,-1,5,5,-4,-4,-1,-1
1511885704291574,0,2,-3,-11,2,0,-2,0
1511885704291574,-3,-3,-3,10,-3,-5,-1,-3
1511885704292579,0,-2,0,-4,1,2,-2,1
1511885704292579,0,1,0,-4,-2,-2,-3,-1
1511885704305595,0,0,-1,4,-1,2,-1,0
1511885704305595,1,-2,-4,-11,-2,-1,0,-1
1511885704313714,-3,0,-1,1,1,4,1,-2
1511885704313714,-1,0,-1,-1,-2,-3,1,-1
1511885704328653,1,0,-2,2,1,-1,-2,-1
1511885704328653,-1,1,3,0,-3,-1,-1,0
1511885704335796,-1,0,1,-1,-2,1,-3,-1
1511885704335796,-1,-2,-7,-3,1,0,1,0
1511885704350707,-1,-1,-1,-3,-1,3,1,-1
1511885704350707,2,-4,-3,4,3,2,0,-2
1511885704358731,2,1,7,1,0,-4,-1,0
1511885704358731,0,2,2,-7,-8,-2,-1,0
1511885704365750,-2,-1,0,14,2,-5,1,-1
1511885704365750,-1,1,0,-3,0,0,-2,3
1511885704373771,-3,-2,-6,-6,-5,-6,-3,-2
1511885704373771,1,0,-2,1,-2,-2,-1,-2
1511885704388813,-2,-1,0,-6,-5,-3,1,-2
1511885704388813,-2,3,0,-2,-2,1,1,0
1511885704396145,-2,-2,-2,1,2,1,1,0
1511885704396145,-2,-2,1,4,3,-1,-1,-1
1511885704411073,-2,-4,-2,-3,0,-1,-3,-1
1511885704411073,0,-1,4,0,-5,-3,-2,0
1511885704419136,0,-2,-9,-8,-1,-2,0,-1
1511885704419136,0,-1,-1,5,2,2,-2,1
1511885704426151,1,-2,3,3,2,2,1,1
1511885704426151,-1,0,3,-8,-1,0,-1,0
1511885704433058,-1,-1,-7,6,1,4,-1,-1
1511885704433058,-1,-1,5,-3,0,-1,0,-2
1511885704448101,-1,2,-2,-3,-2,-3,-1,-1
1511885704448101,-1,-1,-2,4,-1,-1,0,-1
1511885704456304,1,-1,0,-4,-1,-3,1,0
1511885704456304,-2,0,1,-4,-1,2,-1,-1
1511885704471159,0,-1,-5,3,1,3,1,1
1511885704471159,-1,0,-4,0,-5,-9,-2,-2
1511885704479184,2,2,1,-2,0,-4,1,-1
1511885704479184,-2,0,-2,-3,-4,1,-1,-1
1511885704486319,-1,1,3,-2,-1,-1,-2,-2
1511885704486319,1,-2,0,-2,2,1,-1,-2
1511885704493221,0,-3,3,-3,-9,-11,-3,-1
1511885704493221,0,-1,-2,-1,1,-1,2,-1
1511885704508263,0,-1,-3,-2,-3,-3,1,0
1511885704508263,-1,0,-2,1,0,-3,-2,1
1511885704516309,0,-2,-2,-6,-3,1,0,1
1511885704516309,-1,0,0,6,5,1,-2,-2
1511885704531319,0,-2,-2,3,0,1,0,0
1511885704531319,-1,-1,2,0,0,-2,0,-1
1511885704539344,-1,-1,0,2,2,2,-2,-1
1511885704539344,0,1,1,-4,0,-1,-2,1
1511885704554382,-2,-2,1,-3,0,1,0,-2
1511885704554382,0,-1,-7,-5,-1,-3,0,-1
1511885704554382,-1,1,-4,-3,0,2,1,0
1511885704554382,0,0,-2,-1,-3,-1,-2,-2
1511885704568421,-1,0,7,1,0,-3,-1,-1
1511885704568421,-1,-2,-6,-1,0,-3,3,-1
1511885704575440,-3,2,1,5,3,3,0,-1
1511885704575440,0,-1,-1,-12,-3,-5,1,-1
1511885704590477,1,2,0,5,0,1,-2,0
1511885704590477,-2,-4,0,-4,-15,-14,-4,-3
1511885704599501,0,-2,-2,6,3,4,1,1
1511885704599501,1,0,-5,-2,-1,-1,1,2
1511885704614543,-1,0,3,-3,-2,-3,0,0
1511885704614543,-1,0,3,-3,1,1,1,1
1511885704614543,-2,-1,-1,6,-1,1,1,-1
1511885704614543,-2,-2,0,-1,-2,-3,-1,-1
1511885704628582,-1,3,4,0,-4,-1,1,0
1511885704628582,1,-1,-10,-8,5,2,0,0
1511885704635640,-1,-2,-3,4,1,-3,-1,-2
1511885704635640,1,0,-1,-3,1,2,1,-1
1511885704650682,1,-1,-2,0,-2,1,-1,0
1511885704650682,-4,2,5,-3,2,-2,0,0
1511885704658703,2,0,-4,-5,-1,-1,-1,0
1511885704658703,-3,-1,-6,0,-3,-4,2,-1
1511885704673741,0,-2,5,0,1,2,-1,1
1511885704673741,0,0,-5,-5,-2,2,-1,-1
1511885704674702,0,0,2,-2,-2,0,0,1
1511885704674702,-2,-1,1,3,1,-3,-1,1
1511885704688831,-2,-1,-6,-9,-3,-3,0,-1
1511885704688831,1,-2,5,9,2,0,0,-1
1511885704695960,-1,-1,0,5,-3,-2,-1,0
1511885704695960,-1,-2,9,7,1,-1,0,1
1511885704711103,2,-2,-8,-3,-1,-1,0,-1
1511885704711103,-1,1,2,-4,-1,5,-2,1
1511885704719304,0,-1,3,-1,0,-1,0,-1
1511885704719304,0,-4,-6,9,0,-1,1,-1
1511885704734270,-2,-2,-12,-5,2,3,0,0
1511885704734270,-1,1,2,2,-4,-2,-1,-1
1511885704741274,0,1,4,-6,0,3,-3,-1
1511885704741274,1,1,0,-7,-1,-3,0,0
1511885704748198,-1,-2,4,15,2,-1,0,1
1511885704748198,0,-3,-6,0,0,-1,0,0
1511885704756356,-1,-1,-1,-3,1,0,2,-1
1511885704756356,0,0,0,3,-4,0,-3,-1
1511885704771393,0,-3,0,-10,-4,-2,0,-3
1511885704771393,-1,-1,2,2,0,3,0,1
1511885704779533,1,-3,-3,0,-2,-5,-1,-1
1511885704779533,-3,-1,-2,-3,0,3,0,0
1511885704794453,-3,-1,-2,-3,-5,-3,-2,-3
1511885704794453,0,2,-1,4,4,1,1,-1
1511885704794453,-2,-5,-2,0,-1,-5,-1,-2
1511885704794453,0,2,1,0,-1,1,1,0
1511885704808491,0,-2,-7,-3,-1,-3,-1,0
1511885704808491,0,4,18,-6,-5,3,-2,-2
1511885704815552,-2,-5,-28,-1,0,-6,-1,0
1511885704815552,0,-1,-4,5,0,-3,-2,-1
1511885704830552,-2,1,-2,-3,-2,-1,0,1
1511885704830552,1,-2,0,-4,-3,-3,-1,-1
1511885704838572,-1,2,8,-3,-2,1,0,0
1511885704838572,-1,-4,-2,3,-1,-3,-1,-1
1511885704853612,-1,0,-1,-2,1,-4,0,-1
1511885704853612,0,0,-5,6,1,-1,-1,-1
1511885704854611,-2,-1,-1,-9,-3,0,0,-1
1511885704854611,-1,-2,1,7,2,-5,2,0
1511885704868043,0,-1,6,-4,-1,1,-1,-1
1511885704868043,-1,-3,-9,5,2,-2,-1,-1
1511885704876062,-1,3,5,-1,0,0,1,0
1511885704876062,-3,-1,-2,-10,0,-3,-2,-1
1511885704891161,1,-1,5,3,1,-1,0,-2
1511885704891161,-2,0,-2,-1,-1,-4,-1,0
1511885704900121,-1,-1,-3,-1,1,-2,-1,-1
1511885704900121,2,-1,2,-4,-1,0,1,0
1511885704914077,0,0,-3,0,0,0,0,2
1511885704914077,-2,-1,-1,-1,0,-2,2,-2
1511885704915079,0,2,-2,-5,-2,3,-4,0
1511885704915079,-2,-1,10,15,2,-7,0,-1
1511885704928277,0,-2,-10,-13,-1,-3,1,1
1511885704928277,1,-1,2,10,-1,1,2,1
1511885704936332,0,3,20,0,1,4,0,0
1511885704936332,2,-1,-19,-6,-3,2,-4,-1
1511885704951321,-3,-1,1,-3,-4,-5,-3,0
1511885704951321,2,1,3,1,2,-2,-2,-1
1511885704959326,-1,-3,1,4,0,-3,1,0
1511885704959326,0,0,0,-4,0,7,-1,0
1511885704974363,-1,0,0,5,2,-3,-1,-2
1511885704974363,0,-3,-7,-13,0,-2,-1,-1
1511885704974363,-1,-2,-4,-3,-3,-4,-1,-2
1511885704974363,0,0,0,6,2,1,0,-1
1511885704989406,0,-1,-4,-6,-5,-4,-4,-2
1511885704989406,-2,0,3,2,0,-1,-1,-1
1511885704995422,0,-2,-2,1,0,-2,-1,0
1511885704995422,-2,-1,2,-12,-1,-1,0,0
1511885705010460,-2,-2,-4,9,-1,-2,1,-2
1511885705010460,0,1,4,5,5,-2,-2,1
1511885705019493,0,-1,-3,-3,-6,0,-1,0
1511885705019493,0,0,-4,-6,-2,-1,0,-2
1511885705034526,-2,0,1,-1,1,1,-1,-2
1511885705034526,-1,-2,3,4,-1,-2,-1,-1
1511885705034526,-2,0,-3,10,2,-1,0,1
1511885705034526,1,2,7,-4,-2,-2,-3,-2
1511885705048602,0,0,-4,2,1,3,0,1
1511885705048602,0,-1,-4,-6,-5,0,0,-1
1511885705055696,-1,-1,2,2,2,-1,0,-1
1511885705055696,-1,0,-1,1,-1,-3,-1,1
1511885705070910,0,0,0,1,0,1,-1,-2
1511885705070910,0,-4,-6,-2,-2,1,1,-2
1511885705078936,-1,-2,-2,-2,0,-2,0,-1
1511885705078936,-2,-1,-5,-2,1,-1,-2,-1
1511885705094019,0,2,3,-11,-1,4,-2,0
1511885705094019,-1,-2,0,12,0,-4,-1,-1
1511885705094974,0,1,-4,-8,2,0,-1,-1
1511885705094974,0,-3,-4,4,1,-3,0,-1
1511885705108011,0,-1,3,1,0,1,1,0
1511885705108011,-1,-2,-1,-6,-2,-1,-2,-2
1511885705116033,-3,0,1,-7,-3,-2,0,-1
1511885705116033,1,0,6,0,-1,-1,0,0
1511885705131119,-1,-2,-12,-3,-2,0,1,0
1511885705131119,-1,0,1,0,1,-4,-2,0
1511885705139091,1,-1,-7,10,0,1,1,0
1511885705139091,0,0,0,-5,-2,0,1,-2
1511885705154155,-1,-2,4,6,0,-6,-2,-1
1511885705154155,0,0,-1,2,1,2,0,1
1511885705155135,-2,-1,-5,-10,-2,2,-2,-2
1511885705155135,-1,-2,-5,0,-1,-2,-2,-3
1511885705168171,0,-1,6,5,0,-9,1,0
1511885705168171,-1,-1,-10,-13,-2,-1,0,-1
1511885705176192,1,0,7,12,3,0,1,0
1511885705176192,0,0,-3,-6,-1,0,0,-1
1511885705191351,-2,-3,-3,-3,-2,-2,-1,-2
1511885705191351,0,2,3,0,1,0,-1,1
1511885705199268,0,-1,-1,-3,1,-2,-1,0
1511885705199268,-2,-1,-2,0,2,0,-1,0
1511885705214293,1,2,0,3,-1,0,0,0
1511885705214293,-1,-1,-2,1,-2,-4,1,-2
1511885705215297,-1,-2,-3,-2,-2,-2,-2,0
1511885705215297,0,1,2,1,0,-2,-1,-1
1511885705228330,-1,-1,-2,-2,0,0,-1,-2
1511885705228330,0,0,3,-4,-1,2,-1,-2
1511885705236398,-1,-2,4,10,-1,-4,-1,0
1511885705236398,-1,0,-5,-10,-1,-4,-2,1
1511885705250727,-1,-2,1,-2,-4,-3,0,0
1511885705250727,0,0,-5,-12,2,2,-2,-1
1511885705266770,1,1,0,9,-1,0,0,-2
1511885705266770,-1,-3,-1,12,-1,-2,3,-1
1511885705273854,-1,0,-6,-5,2,0,-1,0
1511885705273854,-2,0,-1,-5,-4,0,-1,-1
1511885705281693,-2,-3,-13,-12,0,-2,2,-1
1511885705281693,1,0,0,-5,-2,-2,0,1
1511885705288709,0,-2,-5,1,-1,-1,0,-2
1511885705288709,0,-2,5,3,2,1,0,-1
1511885705295855,0,-1,1,-9,-2,-2,-1,-2
1511885705295855,-1,-2,-2,12,-4,-3,1,0
1511885705311022,-1,-1,6,0,-3,-15,-4,0
1511885705311022,-2,-2,-6,-2,0,-3,-1,0
1511885705319355,-1,-1,2,-3,-2,-2,-1,0
1511885705319355,-1,-2,-1,-3,1,0,0,0
1511885705333286,-2,-3,-2,-6,-2,3,1,-1
1511885705333286,-1,1,-2,11,0,0,1,-2
1511885705341292,-1,0,-1,3,1,-3,-2,1
1511885705341292,0,2,8,-12,-4,0,-2,-1
1511885705348269,2,-2,-2,5,2,1,0,0
1511885705348269,1,-1,-2,-1,-2,-4,1,1
1511885705356291,-1,0,2,-2,2,1,1,0
1511885705356291,2,-3,-2,0,-1,-5,-3,-1
1511885705370325,-1,1,-1,4,3,3,-1,0
1511885705370325,-1,-1,-7,-8,-3,2,-1,0
1511885705379352,1,0,10,7,1,-1,0,1
1511885705379352,-1,-2,-3,8,2,-2,1,0
1511885705393508,1,2,-2,-5,-1,3,0,1
1511885705393508,0,-2,1,-6,-1,-3,-1,-1
1511885705401536,-2,-1,-1,-10,-4,0,-1,-1
1511885705401536,-1,-3,-3,3,3,-1,0,0
1511885705408527,-1,0,-3,7,0,3,-1,-2
1511885705408527,-1,0,2,-2,0,-6,-3,-1
1511885705415487,0,-1,1,-7,-2,-4,0,0
1511885705415487,-2,-2,-13,-4,-2,6,0,0
1511885705430528,0,2,7,5,2,-2,3,1
1511885705430528,-2,-2,-1,-3,-3,-1,-2,0
1511885705438630,2,2,0,7,2,-2,0,0
1511885705438630,-1,1,5,-7,-1,1,-2,-1
1511885705453824,-2,-3,-8,4,-2,-3,0,-2
1511885705453824,0,-1,2,-4,-3,-3,2,-1
1511885705461658,0,1,-2,2,1,2,0,0
1511885705461658,1,0,0,-3,-2,0,1,0
1511885705476695,-1,-2,-4,-6,-2,1,-1,-1
1511885705476695,0,-2,1,-5,1,4,0,2
1511885705477702,-1,-1,-1,8,-2,0,-2,0
1511885705477702,0,3,0,-1,1,-3,-1,-3
1511885705490910,-3,1,7,-4,-4,3,-1,0
1511885705490910,-1,-3,-10,2,0,-1,0,-3
1511885705498873,-2,-1,3,1,0,-1,-1,-1
1511885705498873,0,0,-1,-4,-1,0,-2,-1
1511885705513797,-1,0,3,-7,-2,1,1,-1
1511885705513797,-2,1,-3,3,-8,-3,-4,-1
1511885705521816,-1,-3,-3,2,0,-2,-1,1
1511885705521816,1,-3,-4,3,-4,-1,-2,-1
1511885705544876,1,2,2,-1,7,5,2,1
1511885705544876,-1,0,8,4,8,2,0,-1
1511885705545882,0,-1,-14,-5,-5,3,0,-2
1511885705545882,-2,-3,0,-3,-1,-3,0,-1
1511885705550898,1,2,4,15,4,0,-1,-2
1511885705550898,1,1,-7,-3,3,0,1,-1
1511885705559095,-1,0,8,-7,3,-3,1,-1
1511885705559095,-1,0,1,-11,-6,3,-2,-2
1511885705572952,-1,-4,0,16,1,-2,-2,1
1511885705572952,-2,-3,-9,6,6,2,1,0
1511885705581975,-1,-1,-4,-3,-2,-4,-2,-1
1511885705581975,-1,1,-1,-1,-2,-1,0,-2
1511885705597016,0,1,1,-14,-3,-5,-4,-3
1511885705597016,-2,2,10,3,-3,-1,0,-1
1511885705597016,0,-1,-8,-2,-3,1,-1,-1
1511885705597016,-2,-2,-1,2,3,-6,-4,0
1511885705611055,0,-2,2,-2,-3,0,1,1
1511885705611055,1,0,-2,-1,-2,0,-1,0
1511885705619076,-1,-1,-2,-8,-2,-1,-1,-1
1511885705619076,0,1,2,8,0,-1,0,1
1511885705633114,-1,-1,-3,-5,1,-2,0,-1
1511885705633114,-1,0,6,-3,-5,2,-2,-1
1511885705641135,-1,1,-2,-1,-9,-10,-3,-3
1511885705641135,0,-2,8,5,-3,2,0,2
1511885705656349,-2,-3,-7,-12,-6,-3,0,0
1511885705656349,0,0,7,9,1,-7,-1,-1
1511885705657177,0,0,-3,-2,2,4,0,-2
1511885705657177,-1,-1,-1,-4,3,-5,2,-2
1511885705671238,-1,-2,-1,5,-7,-3,-2,1
1511885705671238,1,-2,-1,-3,6,-1,1,0
1511885705679236,-1,0,3,-3,0,12,2,1
1511885705679236,0,1,2,-1,2,-3,0,-1
1511885705693271,-3,2,-3,-4,4,-5,-2,-2
1511885705693271,-2,-3,-3,1,-4,-3,-1,0
1511885705701424,1,-1,0,1,6,-3,-1,-1
1511885705701424,0,1,1,0,-4,-4,-1,0
1511885705716375,0,-2,1,3,-11,-11,-1,-2
1511885705716375,0,0,-2,-4,-10,0,-1,0
1511885705717338,-1,-2,-2,-1,7,-4,-1,0
1511885705717338,-2,0,0,4,3,3,-1,-1
1511885705739423,-4,-3,-12,-2,4,-5,-1,0
1511885705739423,-1,-1,4,-4,-6,-3,0,-1
1511885705740400,0,-1,-8,-2,-4,-2,-3,-1
1511885705740400,-1,-1,5,-6,0,-4,1,-1
1511885705753621,2,1,-2,-3,0,7,-1,-1
1511885705753621,0,-2,-1,7,6,-6,2,0
1511885705761455,-1,1,3,1,-4,1,2,-1
1511885705761455,0,0,-6,-11,-1,-10,-1,0
1511885705776495,-1,-2,2,-6,-1,-3,-4,-2
1511885705776495,1,1,2,-9,-3,11,2,-2
1511885705777495,2,-4,5,9,4,-1,0,0
1511885705777495,-1,-3,-2,9,-1,1,0,-1
1511885705790532,2,0,-3,-3,-1,-12,2,0
1511885705790532,-2,-2,-1,-2,-1,1,-3,-1
1511885705798678,-2,0,2,-6,-3,-6,-3,-2
1511885705798678,-2,-1,-8,-1,-3,-3,-2,-1
1511885705821883,-2,0,2,4,1,1,0,0
1511885705821883,-1,-2,-3,-3,-2,0,-1,0
1511885705822885,-3,-1,-2,-8,-3,-3,0,-2
1511885705822885,0,0,-6,1,-1,4,1,1
1511885705837046,1,0,1,0,0,-5,1,0
1511885705837046,0,-2,-6,-1,1,15,1,1
1511885705837046,-1,-1,0,2,1,-1,-3,0
1511885705837046,-2,-1,2,1,-2,-1,-3,-2
1511885705851056,0,0,0,-1,3,6,-2,2
1511885705851056,1,0,-4,1,-2,-10,-2,-2
1511885705858100,-1,0,1,-1,-3,-1,-4,2
1511885705858100,0,2,0,-1,0,10,-1,-2
1511885705873430,-2,0,-3,-1,3,-1,-1,-1
1511885705873430,0,1,-1,-2,-5,-1,2,-1
1511885705881257,1,1,3,2,4,6,4,2
1511885705881257,0,-4,-4,-1,-2,-12,-4,-1
1511885705896300,-3,-2,0,-2,-1,-2,3,2
1511885705896300,0,-1,2,2,-3,-10,-2,-1
1511885705897300,0,0,-2,-5,-5,6,5,0
1511885705897300,0,0,1,5,2,0,-11,-3
1511885705919480,1,1,0,-3,-3,-8,-2,-4
1511885705919480,2,1,-2,1,1,1,-3,-2
1511885705920361,14,3,0,0,-2,3,1,3
1511885705920361,-22,-2,-1,-2,2,-2,10,-9
1511885705933508,-6,-1,3,2,3,-8,-34,-3
1511885705933508,-1,-1,0,0,2,-3,3,2
1511885705941597,9,2,0,1,0,2,-4,-2
1511885705941597,-12,-3,0,-3,-1,-4,-12,2
1511885705956523,2,0,-3,2,2,9,39,3
1511885705956523,-4,-2,-2,1,1,2,-1,0
1511885705957525,2,0,-2,-3,3,-6,-4,-2
1511885705957525,10,0,0,-2,3,4,5,2
1511885705970596,-1,-1,1,4,5,3,-2,0
1511885705970596,3,-2,0,-2,0,0,-7,1
1511885705978574,-7,-4,-2,0,-5,-11,7,-1
1511885705978574,5,1,1,-1,-10,-21,0,1
1511885705993800,1,-2,-2,-3,3,26,-1,-2
1511885705993800,0,1,-2,-1,-3,-2,2,0
1511885706001755,-6,-1,-1,1,-2,-8,-5,-2
1511885706001755,1,-1,0,-4,1,-1,5,1
1511885706016701,4,2,-1,1,-1,-5,-4,-3
1511885706016701,-3,-1,-1,-7,-3,2,-12,-1
1511885706023817,-7,-2,-1,4,-20,-29,7,-1
1511885706023817,6,1,0,3,14,15,2,1
1511885706030717,-1,-1,-4,-3,-2,-3,4,-1
1511885706030717,-2,0,-3,-1,1,-1,-6,-1
1511885706038759,-4,0,-2,-6,1,1,3,-1
1511885706038759,2,-1,-2,-2,-4,2,3,1
1511885706053006,0,-2,1,0,-7,-11,-8,-2
1511885706053006,-2,0,-1,1,3,0,6,-1
1511885706061987,-2,1,0,1,6,7,-3,0
1511885706061987,1,0,-2,0,-8,-7,-2,-1
1511885706077067,0,-3,1,0,3,16,2,1
1511885706077067,1,-3,-2,-5,8,12,9,1
1511885706077067,-4,1,1,6,4,10,-3,-4
1511885706077067,0,1,-2,0,-2,1,-4,-1
1511885706091101,-2,-2,1,-1,-7,-11,-1,0
1511885706091101,0,0,0,3,8,7,0,-2
1511885706098086,-2,0,-1,-6,-9,-4,-4,-2
1511885706098086,-1,-2,-4,-3,-1,1,2,-1
1511885706113150,-1,1,-2,-2,-2,6,-1,1
1511885706113150,1,0,0,2,-2,-10,-1,-2
1511885706121173,2,-2,0,-2,6,6,-3,-2
1511885706121173,0,1,1,1,-1,3,5,1
1511885706136229,-1,0,-4,-4,-3,-21,-1,-2
1511885706136229,-1,-2,-2,-3,-8,0,0,-2
1511885706137189,1,0,5,5,1,-2,0,0
1511885706137189,1,-2,-4,0,-3,-3,-5,-1
1511885706151248,-1,-3,-4,-1,2,1,1,-1
1511885706151248,-3,1,3,-2,-5,-10,-4,0
1511885706158284,-2,-2,-4,-12,-12,-17,-8,-3
1511885706158284,0,-6,-15,4,-2,-4,6,2
1511885706182468,-1,1,2,-3,-5,-5,-2,-1
1511885706182468,-5,-1,-6,3,-2,-6,1,-3
1511885706183313,-1,-1,3,-4,-6,-8,-1,1
1511885706183313,-5,-1,4,-4,-7,-4,-2,-3
1511885706196352,2,0,-3,-1,6,0,0,2
1511885706196352,-1,-3,1,-1,-3,-9,1,0
1511885706204364,-17,-2,-4,0,7,0,1,-1
1511885706204364,3,0,2,3,3,10,4,0
1511885706210379,1,0,1,1,3,0,2,-1
1511885706210379,-5,0,3,0,3,0,-2,1
1511885706218405,6,-3,-10,3,-3,-4,-3,-3
1511885706218405,1,-1,1,-8,2,3,-4,-1
1511885706233445,-4,-2,-4,0,-5,-12,1,-1
1511885706233445,1,-2,-2,-4,-15,-16,-1,-3
1511885706241466,-1,1,10,2,2,7,1,0
1511885706241466,1,-1,-9,1,-3,-10,-7,-3
1511885706255501,1,1,15,3,6,3,0,-3
1511885706255501,0,2,0,-2,-10,8,5,0
1511885706264568,3,0,1,0,-1,-11,-5,0
1511885706264568,-2,4,7,-1,20,33,4,0
1511885706270582,-3,-1,-2,-5,-13,3,1,-1
1511885706270582,1,0,-4,9,14,0,2,0
1511885706278567,-4,0,2,-4,-4,5,4,1
1511885706278567,5,2,1,3,7,0,-2,0
1511885706293604,4,-1,-5,-4,11,7,-3,0
1511885706293604,0,-3,0,5,8,4,-1,0
1511885706301758,2,0,1,-4,-6,-18,-4,-2
1511885706301758,-2,-3,-12,-4,-7,2,2,-1
1511885706315706,-3,-1,2,13,6,-6,-1,-3
1511885706315706,-1,1,-4,-15,-14,-7,1,0
1511885706323726,1,-2,-1,19,9,1,-2,-3
1511885706323726,-2,-1,1,-3,-15,-9,-1,-1
1511885706330742,0,-2,2,-6,-10,-19,-1,-2
1511885706330742,3,1,9,10,23,16,-2,3
1511885706338725,2,2,0,-6,-2,7,1,0
1511885706338725,-1,-1,2,1,-3,-19,1,1
1511885706353894,-1,-1,-8,-6,-5,3,-6,0
1511885706353894,0,-1,-2,-1,4,6,0,-1
1511885706361891,0,-3,-9,-6,2,-1,0,1
1511885706361891,-1,2,7,4,10,-2,-1,-2
1511885706375928,-2,3,21,-4,-19,-10,-4,-3
1511885706375928,-1,-6,-37,-5,4,-22,0,1
1511885706383948,-3,-4,2,-1,12,17,1,-3
1511885706383948,0,-2,-12,-4,-4,3,0,0
1511885706398988,0,-5,-22,-2,11,7,4,0
1511885706398988,-1,7,22,0,-11,-3,-3,-2
1511885706399987,0,-1,-14,-4,0,2,-1,-2
1511885706399987,1,0,8,-2,-11,-14,0,0
1511885706413022,-3,0,-4,-1,-15,1,-2,-1
1511885706413022,-4,-2,4,-2,-9,-9,-5,-1
1511885706421051,0,0,-5,0,2,-4,1,-2
1511885706421051,-2,0,3,-5,-6,-5,0,-3
1511885706436275,2,1,-3,-1,10,11,6,4
1511885706436275,0,0,-2,2,-1,2,0,-1
1511885706444105,-2,1,4,-3,-19,-14,-4,-2
1511885706444105,1,1,4,-3,3,0,-2,-2
1511885706459227,-2,-3,-7,7,3,-1,2,-3
1511885706459227,0,0,9,-9,5,5,0,0
1511885706460244,2,0,1,11,-6,0,-1,2
1511885706460244,-1,-1,31,-1,0,2,-3,-1
1511885706473182,-2,-4,-35,-2,-4,8,-1,0
1511885706473182,2,2,10,6,-7,2,-2,-3
1511885706481206,3,4,7,-2,8,7,2,-1
1511885706481206,1,0,6,0,-3,7,4,1
1511885706496247,0,3,8,0,-9,-6,-4,1
1511885706496247,-2,-1,7,1,9,5,-3,-1
1511885706504273,-2,-3,-5,-4,-4,7,-4,-1
1511885706504273,-2,0,-9,5,5,5,-2,-1
1511885706519436,-2,1,4,0,4,1,-3,-1
1511885706519436,0,-2,-15,-6,-10,-10,3,1
1511885706520309,-1,1,2,-5,3,-6,1,1
1511885706520309,-1,-1,-9,6,-2,-10,-1,0
1511885706533467,1,0,7,-6,-8,-14,0,-1
1511885706533467,0,-3,4,3,-16,3,-1,-1
1511885706541419,-5,-5,-6,10,4,13,-9,-1
1511885706541419,2,3,14,-2,-15,10,-9,0
1511885706555408,-5,-10,-19,-16,2,8,-6,-3
1511885706555408,-3,-2,-1,6,5,-4,-1,-4
1511885706564469,2,2,7,-3,-2,-1,1,-2
1511885706564469,-2,-3,-22,-8,0,-14,2,-1
1511885706579469,1,4,15,3,7,-5,3,2
1511885706579469,-6,5,2,-1,-4,-5,-1,-1
1511885706579469,5,-6,-13,-13,-3,-14,3,0
1511885706579469,-1,-1,0,-2,-3,1,2,0
1511885706593503,1,1,8,-4,0,-5,1,1
1511885706593503,0,-1,3,5,9,6,5,2
1511885706601526,0,3,7,4,1,1,1,-1
1511885706601526,-1,-1,-10,-12,-7,-10,1,1
1511885706615560,0,-1,3,7,1,4,1,1
1511885706615560,0,-3,-5,0,1,3,0,-1
1511885706623705,-3,0,-3,-5,2,-5,-2,0
1511885706623705,3,-1,0,3,5,-1,2,-2
1511885706638623,-1,3,9,9,15,15,0,-2
1511885706638623,1,-2,-9,-12,2,1,0,0
1511885706639625,0,-3,-5,0,0,-1,3,-1
1511885706639625,-1,0,-3,-3,-3,-2,1,-1
1511885706653778,-1,-2,3,0,-2,-2,0,-1
1511885706653778,1,1,3,10,2,0,-2,-1
1511885706661684,-3,0,3,-3,-5,-3,-1,2
1511885706661684,-1,2,10,6,22,15,2,-1
1511885706675721,-1,-4,-17,-4,-3,-4,-1,1
1511885706675721,2,1,1,-3,-1,-5,0,0
1511885706683871,1,1,0,-2,0,7,3,-1
1511885706683871,-2,0,16,6,1,-6,0,0
1511885706698824,-1,-2,-17,-11,-12,-8,2,0
1511885706698824,1,-3,-2,5,-1,-2,-2,-1
1511885706699789,-3,1,2,2,3,3,0,1
1511885706699789,0,-5,-8,0,-3,-4,-2,0
1511885706713868,0,2,10,2,-2,0,1,-1
1511885706713868,-10,-4,-8,-5,-8,-5,-1,-2
1511885706721852,3,0,-2,6,16,13,3,-1
1511885706721852,-1,-3,-10,-11,-8,-5,-1,0
1511885706735924,-1,0,4,4,0,-3,-2,-1
1511885706735924,0,2,2,2,13,12,2,0
1511885706743941,-2,1,9,3,1,6,0,0
1511885706743941,-1,-2,-11,-4,-4,-1,0,-1
1511885706759151,0,2,1,0,2,-3,1,0
1511885706759151,1,0,-1,-6,-3,-2,-1,2
1511885706760034,-2,-2,-6,-3,-4,0,1,2
1511885706760034,0,-1,0,2,-3,-5,-4,-2
1511885706773091,0,1,3,3,-3,0,-4,-2
1511885706773091,1,-2,2,-7,-5,-6,1,-1
1511885706781089,-2,-2,-4,-2,-6,-8,-2,-1
1511885706781089,-1,-1,-1,0,7,9,3,-1
1511885706796131,2,-2,-16,3,-4,-8,-2,-1
1511885706796131,1,-1,-1,1,-5,-5,-5,-1
1511885706804148,0,-2,0,-5,-5,-4,-2,-1
1511885706804148,0,0,7,12,13,11,1,1
1511885706819192,-2,0,8,-2,3,8,1,1
1511885706819192,8,1,-6,0,-2,-1,1,-2
1511885706820192,-2,-2,-4,-5,-13,-13,-2,0
1511885706820192,-3,1,5,7,12,0,-4,-1
1511885706833264,-3,-2,-6,-7,-4,-6,0,-1
1511885706833264,-2,-1,-5,0,-3,2,-2,0
1511885706841285,1,0,5,-1,12,15,1,-2
1511885706841285,1,2,-1,3,-5,-1,0,-1
1511885706856298,0,0,0,-1,0,4,0,0
1511885706856298,0,-1,1,-1,19,4,2,0
1511885706864311,0,-1,-1,-3,-19,-20,-2,0
1511885706864311,0,-1,-10,-4,-3,-7,-4,1
1511885706879351,-2,1,7,5,-3,-4,1,-3
1511885706879351,-1,-4,-7,2,-8,-4,0,1
1511885706879351,-2,1,3,5,1,-6,-1,-1
1511885706879351,0,-3,-4,-7,-1,-6,1,-2
1511885706893491,1,0,5,-4,4,2,-1,1
1511885706893491,-2,0,-1,-2,-14,-10,-2,-1
1511885706901449,-2,0,-3,6,2,1,-1,0
1511885706901449,1,0,-2,-4,-8,-9,-3,-2
1511885706915486,0,0,3,2,10,10,3,-1
1511885706915486,-4,-1,-2,-3,8,12,2,0
1511885706924469,-2,-1,4,-5,-16,-7,-3,-2
1511885706924469,2,-2,-6,3,-5,2,0,-1
1511885706938506,-1,0,1,-6,5,-3,0,-1
1511885706938506,2,2,1,0,0,-1,-1,-1
1511885706939509,-3,0,3,1,9,5,0,-2
1511885706939509,-1,2,1,-3,-2,-1,-3,-3
1511885706953739,-2,-3,4,5,3,-2,0,0
1511885706953739,1,0,-4,0,-9,-6,0,2
1511885706961595,-1,-5,1,-3,9,7,-1,-1
1511885706961595,-5,-4,-5,-4,-4,1,-1,-3
1511885706975608,2,0,-2,-1,-1,1,0,1
1511885706975608,-2,1,3,3,-7,-7,-6,-2
1511885706984631,2,0,-6,-4,7,3,1,1
1511885706984631,1,-1,0,-1,3,-15,0,1
1511885706998723,-3,-1,-2,3,-22,0,0,-1
1511885706998723,3,-1,0,-6,17,-2,1,0
1511885706999672,-1,1,-2,2,-12,-1,-5,-1
1511885706999672,1,1,-2,2,2,2,2,0
1511885707012925,-2,1,-1,-1,4,4,-2,-2
1511885707012925,0,-1,1,-5,-21,-2,1,2
1511885707021928,-2,-2,-4,-1,3,6,0,0
1511885707021928,-2,-1,3,6,-1,-1,2,0
1511885707036139,-1,0,-1,0,3,-1,-1,0
1511885707036139,-1,-4,-2,-2,1,5,-2,-1
1511885707044161,0,0,-1,2,26,9,2,-1
1511885707044161,-1,-3,0,-5,-6,5,-1,0
1511885707059448,1,1,0,3,14,16,2,1
1511885707059448,-3,-1,1,2,-9,-2,-4,-3
1511885707060331,0,-1,-2,0,2,1,-2,2
1511885707060331,-1,-1,3,1,-2,-7,-3,-1
1511885707073399,1,-1,-1,-2,-1,-7,0,0
1511885707073399,-1,-2,1,-4,-1,-3,0,-2
1511885707081430,1,1,-3,1,-5,-4,-1,0
1511885707081430,0,0,0,-1,0,9,0,1
1511885707096426,0,-1,-1,-3,-8,-11,-3,0
1511885707096426,0,-1,-4,0,13,18,3,1
1511885707104446,-1,0,1,1,7,-1,0,-3
1511885707104446,-1,-3,-2,-3,-2,-2,0,0
1511885707119486,0,-1,-1,2,-5,-7,-1,-2
1511885707119486,2,1,1,-4,-7,-15,-3,0
1511885707119486,4,-1,-1,-2,0,4,3,1
1511885707119486,-2,0,-9,-6,-6,0,-3,-1
1511885707133525,-3,-1,1,1,7,-2,-2,0
1511885707133525,1,-2,2,1,-5,1,-1,-1
1511885707142547,-2,-2,-8,-5,-7,-18,-1,-2
1511885707142547,0,2,2,3,-22,-23,-1,-1
1511885707155745,3,-3,-1,0,-5,0,-1,-1
1511885707155745,-5,-2,-1,-1,4,-4,-1,0
1511885707164605,-1,0,0,-7,-12,2,-1,-1
1511885707164605,-2,-1,-2,0,9,8,3,2
1511885707178752,0,2,-3,-3,-19,-22,-1,-1
1511885707178752,0,1,3,3,9,-2,-1,0
1511885707187667,1,0,3,2,-30,0,-1,0
1511885707187667,1,-1,0,2,11,8,0,-1
1511885707193686,-3,1,2,1,-13,-1,-1,-1
1511885707193686,0,-2,-9,-5,5,-2,1,-2
1511885707202876,0,0,-1,4,-6,-8,0,-1
1511885707202876,-1,-1,3,-3,10,2,1,0
1511885707215767,-2,-1,-1,-7,-8,-12,-2,-1
1511885707215767,1,0,2,3,3,-2,1,0
1511885707224765,-3,-2,1,1,-7,0,-1,-2
1511885707224765,0,-1,-5,-5,-6,-5,-1,-1
1511885707237800,2,0,3,2,12,8,0,0
1511885707237800,0,1,1,2,-11,-17,-4,-1
1511885707247843,0,0,0,-5,10,13,-1,-2
1511885707247843,-1,1,7,9,-5,4,-1,0
1511885707253036,-2,-1,-8,-5,-1,5,1,-3
1511885707253036,-2,-1,2,-1,-2,0,2,1
1511885707261980,-3,-1,-2,-1,0,1,-2,-1
1511885707261980,8,-1,-5,-8,7,2,-1,1
1511885707276144,-3,1,-1,5,-12,-13,-5,-1
1511885707276144,0,0,-2,1,3,6,4,-1
1511885707285070,-1,0,-1,-1,-8,-3,-2,-2
1511885707285070,0,-1,0,-1,10,10,1,2
1511885707298108,2,-3,0,3,26,12,2,-2
1511885707298108,-1,-2,-3,-5,-1,3,-2,-1
1511885707307257,1,0,1,1,-2,-11,0,-1
1511885707307257,-3,0,-1,-3,-20,-18,-3,-3
1511885707321306,-2,0,1,-9,-23,-13,-4,-1
1511885707321306,-2,1,2,0,-6,-2,1,-1
1511885707328315,0,-2,-3,0,5,-2,0,-1
1511885707328315,-3,-2,-3,-3,-2,-4,-3,-2
1511885707336332,-2,0,0,-1,-2,5,1,0
1511885707336332,2,1,1,2,3,3,-1,-1
1511885707345357,-2,-2,-2,-1,4,-5,2,-2
1511885707345357,-2,1,-1,-5,0,-7,-2,-1
1511885707367594,-1,-1,1,4,-3,-4,-4,-1
1511885707367594,-2,-2,-1,-1,2,28,0,-2
1511885707368550,0,-2,-4,1,30,0,1,3
1511885707368550,-3,-5,-2,1,2,8,5,-2
1511885707381456,1,-1,0,-3,1,2,-9,-1
1511885707381456,4,1,0,0,2,10,-2,2
1511885707388471,-2,1,0,2,-12,-9,-1,-3
1511885707388471,0,-3,-2,-1,-4,0,-1,-2
1511885707395717,-1,0,-4,-5,-12,2,3,0
1511885707395717,0,-4,-2,-2,0,-11,-1,-3
1511885707404634,1,2,1,1,2,-4,-6,-1
1511885707404634,12,1,0,0,-2,16,0,0
1511885707418798,-21,-2,0,2,8,16,3,0
1511885707418798,0,1,-5,-3,-1,-8,0,-1
1511885707427837,1,-2,-1,-6,-15,-14,2,0
1511885707427837,-3,2,0,0,1,-1,-3,-2
1511885707441977,6,1,0,-1,-1,2,0,0
1511885707441977,-3,1,-1,-3,-6,-10,-2,-2
1511885707449900,-4,-3,-1,-1,6,10,8,-1
1511885707449900,1,3,-1,-1,0,0,-5,0
1511885707455915,3,1,-1,-4,-8,-2,1,1
1511885707455915,-3,-2,0,4,2,-10,2,-2
1511885707465256,2,-1,-1,3,3,3,-3,0
1511885707465256,-5,1,1,-1,-16,-14,2,-1
1511885707478201,2,0,1,-2,11,-14,0,-1
1511885707478201,-2,-2,-5,-1,-13,-13,-3,-2
1511885707487224,0,0,4,5,-6,5,5,-3
1511885707487224,-3,-4,-10,1,8,6,-2,-1
1511885707501284,-5,-3,6,1,2,-8,-1,-2
1511885707501284,2,0,-3,-4,4,-7,2,1
1511885707510284,-1,2,2,-2,-5,-10,-3,1
1511885707510284,-5,-4,0,1,9,10,-2,1
1511885707516337,4,1,-5,-8,-18,-4,-1,-1
1511885707516337,-1,1,10,12,7,6,-1,0
1511885707524366,0,1,-4,-9,32,31,4,2
1511885707524366,-1,-4,-9,2,6,12,4,1
1511885707538365,6,-1,4,4,7,9,4,0
1511885707538365,1,0,-13,-12,-1,1,0,1
1511885707547383,0,-2,-2,-2,-24,-7,-5,-2
1511885707547383,-2,2,4,-4,-3,-6,-3,-1
1511885707560459,0,-2,-3,2,2,2,1,1
1511885707560459,-3,-1,8,-2,-10,-1,0,0
1511885707569443,-2,1,-2,-3,-5,-6,-3,0
1511885707569443,-2,1,-1,-6,-34,-55,-9,-2
1511885707576460,2,-1,0,7,15,6,0,-1
1511885707576460,-1,1,3,0,10,9,-2,0
1511885707584480,-1,-2,-3,-2,-4,-4,1,0
1511885707584480,-1,-2,0,2,10,2,1,-1
1511885707598524,0,1,1,0,15,18,2,-1
1511885707598524,0,-1,-8,0,38,32,4,0
1511885707607542,1,-3,6,6,23,11,-2,-1
1511885707607542,0,3,5,1,-26,28,8,3
1511885707620817,2,1,9,-1,-1,6,-2,0
1511885707620817,1,0,-11,-5,4,-8,1,0
1511885707629731,-1,-2,-3,10,4,1,2,0
1511885707629731,0,0,15,-11,8,4,0,0
1511885707635750,-2,-1,-12,1,4,-1,1,0
1511885707635750,-2,0,13,4,-9,-6,-3,-4
1511885707644771,-1,-1,-3,-7,-33,-13,-2,-2
1511885707644771,-2,-2,-4,-3,1,-13,-3,-2
1511885707658906,0,2,0,-2,-10,0,-3,0
1511885707658906,-1,-1,2,-2,-11,-12,-2,1
1511885707666926,0,-1,-2,2,14,18,2,1
1511885707666926,1,-2,-4,1,6,6,1,-1
1511885707681143,-1,-2,-3,6,16,14,2,1
1511885707681143,0,0,3,5,-8,1,-2,-2
1511885707689984,-1,0,1,-1,1,-7,-2,-1
1511885707689984,-1,0,-5,-3,4,-1,-1,0
1511885707696083,-3,-2,-2,-3,-24,-44,-7,-2
1511885707696083,-1,-2,-5,-3,-13,-7,-1,-1
1511885707705144,4,-1,-3,-8,-13,-13,2,0
1511885707705144,-1,1,3,5,24,3,2,0
1511885707718372,-2,-2,-4,-5,3,4,0,-1
1511885707718372,-2,0,-4,0,-18,-4,-2,0
1511885707727202,-1,-1,-6,-7,-6,-14,-4,-3
1511885707727202,0,-1,0,-2,-21,0,1,-2
1511885707749356,3,0,1,8,19,4,4,1
1511885707749356,-4,0,-1,-1,0,2,1,0
1511885707751267,-4,0,5,4,11,19,1,0
1511885707751267,-3,1,-1,0,-17,-5,-2,-1
1511885707756308,1,-1,-9,-14,-13,3,-1,-1
1511885707756308,-2,-5,12,21,13,-17,0,0
1511885707765308,1,0,-4,-2,8,7,-2,-1
1511885707765308,-2,0,-1,3,10,2,-2,-1
1511885707778455,-1,0,0,-4,-13,-4,-1,-1
1511885707778455,0,1,-5,-6,-7,-9,-3,-3
1511885707787366,-3,-1,1,-2,0,-4,-2,2
1511885707787366,0,-3,-1,-4,0,-6,0,1
1511885707802402,-1,-1,-2,0,-7,-2,0,0
1511885707802402,1,-3,-4,-6,0,3,0,1
1511885707803406,-1,-2,2,13,-4,-9,-2,-2
1511885707803406,0,0,-4,-4,0,1,-2,-1
1511885707815553,-3,-2,3,0,3,4,0,1
1511885707815553,-2,-1,-4,-5,0,3,-1,-2
1511885707824639,1,2,-4,-2,27,24,5,2
1511885707824639,-2,-2,-5,2,2,4,1,1
1511885707838500,-2,1,-4,-4,-5,1,-1,-2
1511885707838500,1,-1,5,-9,-1,-1,-1,0
1511885707847525,1,2,-3,6,3,-6,0,1
1511885707847525,-3,-6,-7,5,1,-10,-5,-1
1511885707862564,-2,-1,4,0,-10,-2,0,0
1511885707862564,-1,1,-6,-7,-2,4,1,0
1511885707863570,-1,-1,1,-4,-9,-12,-4,-2
1511885707863570,-1,-1,0,-3,-2,0,1,-2
1511885707875721,1,-1,-1,4,3,-9,2,2
1511885707875721,-1,0,1,0,-16,-7,-1,-1
1511885707884660,-1,-2,-5,-6,-5,-10,-1,-2
1511885707884660,5,2,5,4,5,4,1,0
1511885707898790,0,-2,-7,-4,1,3,-1,1
1511885707898790,1,1,1,0,2,1,-3,-1
1511885707914921,-3,-1,1,0,-16,-38,-3,-2
1511885707914921,-2,2,4,-2,6,2,-3,-1
1511885707921901,0,-2,-7,-1,2,-4,2,-2
1511885707921901,1,-2,0,-1,5,-2,-1,0
1511885707930029,-1,0,-2,-5,-13,1,-3,3
1511885707930029,0,-1,4,-1,1,-6,-1,0
1511885707936063,-1,0,0,0,6,1,-1,0
1511885707936063,-1,-2,-8,-2,1,4,-1,-1
1511885707945049,-3,1,13,10,-2,4,2,-1
1511885707945049,-1,-1,-5,-1,-2,-8,-1,-1
1511885707958081,-1,0,2,0,5,7,0,-2
1511885707958081,1,0,-3,-15,-6,0,0,0
1511885707967140,0,-2,-3,3,12,9,1,0
1511885707967140,-1,0,1,4,-13,-16,-2,-1
1511885707981177,-2,0,9,9,-15,-1,-2,-1
1511885707981177,-3,-3,-10,-4,6,5,-1,-1
1511885707988196,0,-2,-6,-3,-6,7,-2,-1
1511885707988196,-2,1,4,3,6,-3,0,0
1511885707996217,1,-1,-4,-4,5,5,1,0
1511885707996217,-1,2,4,6,-5,-7,-1,-1
1511885708004360,-1,-2,-1,-4,-4,0,-1,-1
1511885708004360,-2,1,-5,-1,1,9,1,-1
1511885708018582,0,-1,2,-2,2,-4,-3,-2
1511885708018582,-1,-1,4,2,3,-1,2,-1
1511885708027422,-2,-2,-4,-9,-11,-8,-2,-2
1511885708027422,0,0,0,3,-1,-29,-3,-1
1511885708041483,0,1,-2,-1,2,0,0,1
1511885708041483,1,0,-1,2,-3,-3,-1,1
1511885708048479,-3,-3,-6,-11,-5,-2,-1,-2
1511885708048479,2,-1,0,4,0,7,0,2
1511885708055724,0,0,0,-1,-4,-4,-2,0
1511885708055724,-1,-2,1,0,0,-4,-3,-2
1511885708064837,1,0,1,-2,-2,-2,-3,-2
1511885708064837,0,-3,-6,-14,-19,-25,0,-1
1511885708077876,0,-1,2,6,3,0,2,1
1511885708077876,0,-1,-5,1,0,2,-1,1
1511885708087135,0,1,4,0,3,2,-3,1
1511885708087135,-1,-1,-1,-4,2,11,2,-1
1511885708101078,-2,-2,-1,2,3,-3,1,-1
1511885708101078,-2,-1,3,-1,-4,-7,-3,-2
1511885708108366,-2,-2,3,7,-11,-24,-3,-2
1511885708108366,-2,-4,-11,3,8,6,2,0
1511885708116234,0,2,2,-5,-5,5,0,0
1511885708116234,1,-1,1,1,5,5,0,0
1511885708125231,0,1,2,-1,5,-1,0,0
1511885708125231,-1,0,2,0,-5,1,-1,-1
1511885708138260,-1,-3,-5,-4,-1,-9,-3,0
1511885708138260,0,0,1,7,3,-5,0,1
1511885708147285,1,1,3,0,0,8,1,0
1511885708147285,-1,-1,1,1,5,6,-2,-1
1511885708162411,0,-1,-4,-5,-12,-24,-4,-3
1511885708162411,-1,1,-1,-5,-2,-2,-2,0
1511885708168457,-1,2,-6,-1,-3,-1,0,-2
1511885708168457,-2,-1,7,8,3,3,0,1
1511885708175461,1,0,-1,-7,-1,7,-3,1
1511885708175461,0,0,10,10,-12,-11,-1,-2
1511885708185415,-2,-1,-15,-5,-3,-6,-1,-1
1511885708185415,0,0,3,-6,-6,6,0,-2
1511885708198420,-2,1,-1,5,1,0,0,0
1511885708198420,-3,-2,-1,-6,-2,-9,-2,1
1511885708207445,-3,-2,2,-1,5,12,1,1
1511885708207445,0,-2,-7,-3,3,-2,0,-2
1511885708221482,-1,-1,5,2,-6,1,3,-3
1511885708221482,-1,-2,-11,-1,9,9,-2,-1
1511885708228500,-1,0,2,1,-3,-3,-1,0
1511885708228500,-1,-1,-7,-4,-3,-17,-2,0
1511885708235710,-1,0,5,3,8,12,-1,0
1511885708235710,-2,-1,-8,-11,-7,7,1,-2
1511885708244543,0,-2,4,11,-6,-9,1,1
1511885708244543,2,1,1,-1,10,16,5,1
1511885708258769,0,0,-3,2,5,6,1,-1
1511885708258769,0,0,9,-13,-1,8,1,0
1511885708267608,0,-3,-13,-2,6,9,1,0
1511885708267608,1,0,9,9,-5,0,-2,0
1511885708281642,-1,-6,-17,-3,1,-10,-1,0
1511885708281642,0,1,2,0,0,-1,0,-1
1511885708288660,0,0,4,-3,2,3,-1,-1
1511885708288660,0,-1,-3,0,0,-3,-2,1
1511885708304737,0,-3,4,1,0,-1,0,-1
1511885708304737,1,0,-3,-1,-4,-4,1,1
1511885708306709,1,0,1,-2,1,-1,0,-1
1511885708306709,-2,-1,0,-4,8,20,3,1
1511885708318744,-2,0,1,1,2,-3,-4,-2
1511885708318744,0,1,-4,3,-7,5,1,0
1511885708327766,-2,-1,5,-1,-15,-8,-1,-1
1511885708327766,-1,-3,-5,0,4,2,1,-1
1511885708341934,2,-1,-3,-3,-1,0,-1,-1
1511885708341934,-1,-4,-3,-2,0,-5,1,-1
1511885708348826,0,-1,0,5,-2,4,2,-1
1511885708348826,-1,0,1,-2,-5,-9,0,-1
1511885708364958,-1,1,2,4,-6,-1,-1,0
1511885708364958,0,-1,2,-3,1,-3,-1,1
1511885708365960,1,1,-1,0,1,-16,-1,-1
1511885708365960,-3,-4,0,-1,-6,-4,0,0
1511885708378024,-2,1,0,-1,5,6,1,-1
1511885708378024,-2,1,-5,3,10,6,0,0
1511885708387042,-2,1,0,-18,-42,-29,-2,1
1511885708387042,0,3,12,19,-16,-7,-2,-1
1511885708402095,-1,-1,-7,-5,16,3,1,0
1511885708402095,0,0,1,6,-6,5,0,-1
1511885708408190,-3,-1,-4,-5,8,3,1,-1
1511885708408190,-1,-1,-3,-14,-1,-6,-3,-1
1511885708425168,0,3,3,5,-12,-3,0,-1
1511885708425168,1,0,2,0,0,-5,0,-1
1511885708426123,0,-2,1,4,13,7,-1,0
1511885708426123,-2,-3,-1,1,-1,1,-1,-1
1511885708438153,-1,-1,-5,-3,2,1,2,-3
1511885708438153,-1,-1,-1,-5,-1,-5,-3,1
1511885708447177,-1,2,3,7,12,7,-2,0
1511885708447177,-1,0,-1,-2,-4,0,-1,-1
1511885708461250,-1,0,0,-1,0,-11,-5,-2
1511885708461250,0,-2,5,9,1,7,0,-2
1511885708468273,1,-2,-5,1,2,8,0,-2
1511885708468273,0,1,-3,-1,4,15,1,1
1511885708484316,-2,-2,1,-2,4,4,3,0
1511885708484316,-1,1,1,-2,4,7,1,-1
1511885708486280,0,-2,-8,2,12,1,2,0
1511885708486280,-1,1,3,1,4,3,-2,-2
1511885708498314,0,-2,-2,-7,-2,0,-2,1
1511885708498314,-2,1,4,-1,-6,-1,-2,-1
1511885708507334,0,-1,-3,-4,5,2,0,-1
1511885708507334,-1,-3,-9,-7,-2,-4,-2,-1
1511885708521390,-2,0,10,9,-12,-8,0,-2
1511885708521390,1,-3,-15,-5,1,-3,-2,1
1511885708528395,0,1,4,0,1,5,-1,-2
1511885708528395,0,0,3,-5,-4,-11,-2,1
1511885708544437,-2,-1,-9,-6,0,8,0,0
1511885708544437,-1,-3,-4,0,-2,-5,3,0
1511885708546444,-2,0,7,2,4,1,2,0
1511885708546444,1,0,-13,-9,-1,-2,-2,-1
1511885708558594,-1,-1,2,-4,-4,3,0,-1
1511885708558594,-1,-1,3,7,-1,-11,-4,-2
1511885708567496,0,-1,2,-5,-3,10,2,0
1511885708567496,0,-1,5,7,4,-3,2,-1
1511885708581535,1,-1,3,8,2,1,-1,0
1511885708581535,-3,-2,-10,-8,-4,-4,0,-1
1511885708588553,-2,-1,8,0,-7,-6,-3,0
1511885708588553,-1,0,-9,-8,1,5,-2,-2
1511885708604593,0,-1,-6,-7,1,-3,1,-1
1511885708604593,0,0,5,4,2,-5,-1,-2
1511885708606599,0,0,1,0,-9,-1,-1,-1
1511885708606599,-2,-4,-7,-2,-2,3,0,0
1511885708618631,0,0,2,-2,-2,-4,1,0
1511885708618631,2,1,-1,2,3,8,-4,-2
1511885708627660,1,-3,-2,-2,2,-6,-2,0
1511885708627660,1,-1,5,4,-2,-2,0,-2
1511885708640869,-1,-1,4,2,2,1,1,1
1511885708640869,-1,-3,2,4,1,-2,3,1
1511885708649713,-3,-1,-5,0,2,1,-3,-1
1511885708649713,0,-1,-4,-10,-5,-11,-3,-1
1511885708664757,1,-2,9,5,-5,-6,1,1
1511885708664757,0,1,-6,1,5,13,3,0
1511885708666760,0,-2,-4,2,0,-5,-1,-1
1511885708666760,0,4,3,-9,-2,2,-1,0
1511885708678794,-3,-7,-19,9,1,-14,-2,-1
1511885708678794,-1,-2,0,-11,-3,-5,-4,-1
1511885708687003,-1,0,10,17,-3,-1,3,0
1511885708687003,1,2,6,-2,3,-8,0,-1
1511885708700965,-1,2,1,-3,-9,2,-2,0
1511885708700965,1,0,5,-2,3,6,1,-1
1511885708709874,-1,-2,-13,-8,16,12,3,-1
1511885708709874,0,-2,3,12,6,6,0,0
1511885708724917,0,1,1,-2,-1,2,-3,-1
1511885708724917,-1,0,-3,0,-4,-9,1,1
1511885708725921,0,0,7,-5,0,-5,-1,1
1511885708725921,-1,-1,-9,-3,3,0,-2,1
1511885708747064,-1,0,2,1,-4,-3,-4,-1
1511885708747064,-3,0,0,1,-6,-13,2,-3
1511885708748978,1,0,1,-1,-2,18,6,2
1511885708748978,-3,-3,-2,-4,-3,-9,-4,-1
1511885708761173,1,0,-6,-4,-2,9,13,1
1511885708761173,-1,-1,-3,-6,-3,-10,-5,-3
1511885708770034,-2,-2,0,-2,-3,-13,-4,0
1511885708770034,-1,1,-1,-1,-1,3,0,-1
1511885708792191,-1,-2,2,-5,0,-5,-4,-3
1511885708792191,-1,0,1,10,-4,0,-1,-1
1511885708794097,-1,-1,-8,-7,-3,1,1,-1
1511885708794097,-2,1,4,4,-1,0,1,0
1511885708798111,-1,1,1,-3,1,-10,-2,0
1511885708798111,1,0,4,-3,-2,1,-1,0
1511885708807132,-1,-2,-4,-2,-3,-6,-6,-1
1511885708807132,1,-2,-4,-1,-3,-5,0,-4
1511885708821171,-2,2,12,8,-1,7,1,1
1511885708821171,-1,1,-17,-6,1,5,-2,0
1511885708830195,0,-2,6,8,-7,-16,-1,-2
1511885708830195,-1,0,-3,-2,-2,-3,1,1
1511885708845235,-1,0,-4,-10,1,5,0,-1
1511885708845235,-1,-1,5,8,1,-2,2,1
1511885708846243,0,0,-3,-3,-4,0,-5,-1
1511885708846243,-1,-4,2,1,3,-2,2,0
1511885708858297,0,-1,-5,-5,-5,-7,-4,-1
1511885708858297,-1,-3,3,-5,0,6,1,-1
1511885708867296,1,0,-10,-1,0,-3,-1,-1
1511885708867296,1,1,7,2,-2,1,0,1
1511885708881331,0,-1,-4,-2,2,-6,0,-1
1511885708881331,1,-1,1,-1,1,7,-1,0
1511885708889351,-1,0,1,-4,2,12,4,-2
1511885708889351,-2,-2,-6,-2,0,-2,-1,-1
1511885708904392,-2,0,5,10,-1,-2,-1,0
1511885708904392,0,-1,-1,-2,-1,-9,1,-1
1511885708906396,-3,1,2,2,-1,1,-1,-1
1511885708906396,-1,-1,-5,0,-4,2,-1,1
1511885708918546,-2,-1,-4,-6,-1,-7,-1,-2
1511885708918546,1,0,5,-1,0,3,1,0
1511885708927452,-1,0,-1,1,-1,2,0,-1
1511885708927452,0,0,0,-1,-6,-4,1,-2
1511885708940530,0,-1,-4,1,-2,0,-5,1
1511885708940530,-2,-1,3,-1,-2,-13,-2,0
1511885708949511,-1,0,-2,-4,2,-1,0,-1
1511885708949511,0,0,0,4,4,8,0,-1
1511885708964552,-1,-2,0,-2,-3,-1,0,1
1511885708964552,0,0,-1,-2,-3,1,-3,-3
1511885708966582,-2,-2,-4,-2,-2,-7,2,1
1511885708966582,1,0,1,1,1,-3,0,1
1511885708978633,-1,0,-4,-4,3,3,-1,0
1511885708978633,1,0,1,1,-1,-5,0,0
1511885708987617,-1,0,1,1,1,1,-2,1
1511885708987617,-4,0,-3,-1,-4,-7,-1,1
1511885709000689,0,-1,-1,-1,3,0,1,1
1511885709000689,-1,-2,-2,-1,-3,-5,1,1
1511885709009698,1,0,2,-1,0,0,-4,-3
1511885709009698,0,-2,1,0,-1,1,-1,-2
1511885709024714,-1,-2,-1,0,-2,-8,0,-2
1511885709024714,-2,-1,-3,-2,2,-4,-1,0
1511885709026716,-2,-3,-1,-3,-6,-10,-2,-1
1511885709026716,-2,0,-3,0,0,1,4,-2
1511885709046772,2,0,-1,-1,0,-4,-5,0
1511885709046772,-2,-2,-1,1,0,4,-2,0
1511885709048774,-3,0,-2,-2,-1,-2,6,-2
1511885709048774,1,-1,2,0,-3,-6,-22,0
1511885709060808,2,1,-1,3,2,4,14,-2
1511885709060808,-1,2,0,-3,-5,-13,-11,2
1511885709069831,2,0,-1,-2,1,8,-7,0
1511885709069831,-1,-1,-1,2,3,0,7,0
1511885709083978,-1,1,1,-4,-6,0,1,-2
1511885709083978,-1,-4,-3,0,5,-2,-2,-1
1511885709090979,0,-1,1,-1,-2,-4,1,-2
1511885709090979,1,0,0,-2,1,-2,1,-2
1511885709097908,-1,-2,-1,-3,-3,-5,-3,-1
1511885709097908,-1,-2,-3,-1,-1,14,7,-1
1511885709107002,2,0,2,0,0,-5,-1,1
1511885709107002,-3,-1,0,-2,-1,0,3,-1
1511885709121016,-2,-1,-1,-3,-6,-15,-6,-1
1511885709121016,1,1,1,-1,0,5,4,-3
1511885709130039,3,-1,-1,-1,2,0,3,0
1511885709130039,-3,1,1,-1,-4,2,-9,-3
1511885709144078,-1,-2,0,-1,2,-7,0,0
1511885709144078,-2,1,-1,0,1,-1,0,-3
1511885709151099,-3,1,-2,1,-4,-6,-4,-1
1511885709151099,1,-1,-1,-3,-2,0,31,2
1511885709158118,-3,-3,-2,0,3,7,-23,0
1511885709158118,-1,1,0,-2,-3,-5,3,1
1511885709167138,0,1,-1,0,-2,6,-2,-2
1511885709167138,0,0,-1,1,1,-6,4,0
1511885709181176,-1,-1,-1,-3,0,-2,3,-1
1511885709181176,-3,-2,0,3,-2,4,1,-3
1511885709190359,-1,-2,-2,0,1,-6,-6,4
1511885709190359,0,-1,0,-1,-2,6,-5,-4
1511885709204369,1,-1,1,0,5,5,6,1
1511885709204369,-2,-2,-2,-4,-1,-11,-5,-1
1511885709210457,0,-1,1,2,3,2,1,-2
1511885709210457,-3,-1,-4,-2,-13,-24,-5,-1
1511885709227434,0,1,-1,0,0,7,6,0
1511885709227434,0,-1,-1,2,3,-5,-14,-1
1511885709228438,-2,-1,-2,-1,-8,-5,1,-2
1511885709228438,-9,-1,-1,0,7,11,1,1
1511885709240647,-2,-1,-2,-7,-33,-32,-2,-2
1511885709240647,2,1,0,0,1,3,2,2
1511885709249502,0,0,-2,-3,3,6,1,0
1511885709249502,2,-1,1,1,3,3,-10,-1
1511885709264535,0,0,-2,3,3,16,6,0
1511885709264535,-2,-1,2,-15,-2,1,2,-1
1511885709270552,-2,-4,-8,20,-4,-9,0,0
1511885709270552,0,-2,-1,-2,1,-1,-2,1
1511885709287596,-1,-3,-1,3,4,3,-3,-2
1511885709287596,1,1,4,1,-3,-8,1,1
1511885709288595,-1,1,6,-12,6,10,-3,0
1511885709288595,2,-1,-2,6,13,0,4,-1
1511885709300669,-2,-2,3,2,-2,-3,1,1
1511885709300669,-1,0,1,-4,6,9,-2,-3
1511885709309674,-3,-1,-8,-7,-20,-25,-2,-2
1511885709309674,3,-1,2,3,13,11,-2,-1
1511885709323690,-1,2,1,-3,3,5,5,-3
1511885709323690,-1,-2,-3,2,-3,-6,-1,1
1511885709330708,0,0,-1,-3,3,-11,0,1
1511885709330708,1,1,5,-3,-7,-9,-3,-1
1511885709346748,-2,-2,-12,-1,9,12,-2,1
1511885709346748,-3,-2,1,-7,-5,-9,-1,0
1511885709348753,8,1,15,10,1,16,-2,0
1511885709348753,-2,-2,-8,-6,1,-8,0,-1
1511885709360785,-3,0,7,4,0,-2,-1,-1
1511885709360785,-2,-1,-7,9,-2,3,3,-2
1511885709369810,-2,0,-2,-12,0,-5,-1,-2
1511885709369810,1,0,3,3,1,7,0,0
1511885709384028,2,2,24,-2,8,16,-1,0
1511885709384028,-3,-3,-31,-5,-12,-17,-2,-3
1511885709391036,-2,3,17,-1,-1,-3,-1,-1
1511885709391036,0,0,-2,1,7,11,0,0
1511885709407081,1,1,-7,-2,-17,7,2,2
1511885709407081,0,1,10,12,6,6,0,1
1511885709408915,6,-2,-6,-2,-1,-17,-1,0
1511885709408915,-4,0,-11,-10,-29,9,1,0
1511885709420946,1,1,0,3,17,-15,-1,1
1511885709420946,2,-1,8,6,-4,6,-1,-1
1511885709429968,1,3,4,1,10,3,0,2
1511885709429968,0,-7,-28,-1,-10,-7,-3,-2
1511885709444008,-1,-2,-9,-10,6,3,0,-2
1511885709444008,-2,2,11,-5,-8,2,-2,-1
1511885709451157,-4,-3,-4,13,8,-1,-1,-1
1511885709451157,0,2,38,6,4,-2,-1,0
1511885709467323,-2,-2,-22,-10,-1,3,-1,-3
1511885709467323,0,-1,3,5,15,-11,0,-1
1511885709469206,-3,-3,-4,-6,-15,0,5,-2
1511885709469206,1,1,6,4,-1,-5,-6,0
1511885709481238,-12,0,-1,-1,6,11,3,-1
1511885709481238,17,0,4,-2,-7,3,-1,2
1511885709490258,3,0,-9,-2,11,4,1,-1
1511885709490258,-2,-1,-4,-3,-7,-12,3,1
1511885709504305,-1,-1,2,0,-4,-1,-2,0
1511885709504305,-5,-2,-9,-1,4,4,-3,-1
1511885709511316,-5,-1,-2,-3,-8,2,-2,-2
1511885709511316,3,0,-5,0,6,5,0,-1
1511885709527533,1,-1,-1,-2,-4,2,-4,-2
1511885709527533,-3,-3,7,4,-4,5,3,0
1511885709528537,-1,-2,2,-1,0,4,-1,-1
1511885709528537,-2,1,-7,8,7,3,-1,-1
1511885709540660,-2,-3,3,-2,-5,-12,-3,-1
1511885709540660,-2,0,-2,-4,15,7,0,-1
1511885709549592,-4,-3,-5,-7,-1,0,0,0
1511885709549592,-1,-1,10,2,-3,-15,-4,-1
1511885709563748,1,-4,-25,-4,-1,4,-2,1
1511885709563748,-3,0,-2,-1,3,2,0,0
1511885709570681,-3,-1,1,5,-8,-5,-3,-2
1511885709570681,1,-3,3,-6,0,-3,2,0
1511885709586731,2,1,7,2,10,-6,-3,-1
1511885709586731,-3,-3,1,-5,-17,-5,2,-2
1511885709588696,1,2,-12,-6,11,5,4,1
1511885709588696,0,0,-5,-1,-26,-9,-1,-1
1511885709600781,1,-1,12,3,-12,-10,-1,0
1511885709600781,-2,1,-4,-5,-3,-7,-3,-1
1511885709609754,0,-1,9,1,-12,-10,0,-1
1511885709609754,-1,-4,-25,2,11,2,1,-1
1511885709623981,0,0,8,3,13,15,1,0
1511885709623981,-1,-3,-10,-5,-1,-7,2,-3
1511885709630809,-1,0,5,6,3,4,-2,0
1511885709630809,1,1,4,-5,11,5,-1,0
1511885709646849,2,-2,-2,-3,-10,1,-2,-1
1511885709646849,-1,1,-7,2,6,3,0,0
1511885709648863,-4,-3,5,-2,0,-1,0,-1
1511885709648863,0,0,-4,-7,-5,-2,4,-1
1511885709660886,1,1,7,8,7,-6,0,-1
1511885709660886,-1,2,4,-2,-13,-1,-2,0
1511885709669911,-1,-2,-3,-6,-11,-10,-2,-3
1511885709669911,1,2,4,4,13,9,1,0
1511885709684055,0,-2,-8,-5,-5,-11,1,0
1511885709684055,-1,-1,2,4,-2,-1,1,-1
1511885709690970,2,3,4,2,11,8,1,2
1511885709690970,0,-4,-7,-12,-5,-14,-3,-1
1511885709707010,-3,-1,5,10,-1,-4,0,-3
1511885709707010,1,0,-3,-1,7,-1,0,1
1511885709709015,-1,0,-4,-7,-8,-6,0,-2
1511885709709015,0,3,25,1,-4,-1,0,-1
1511885709721198,-2,-2,-14,-6,-6,-11,-1,0
1511885709721198,-2,-5,-17,-4,-16,-18,-2,2
1511885709730076,0,-1,-4,-5,-2,2,-1,0
1511885709730076,-3,-1,7,-1,-4,-5,-3,-3
1511885709744108,0,2,11,0,-5,-2,1,0
1511885709744108,0,2,-3,1,-1,4,1,0
1511885709751339,0,1,-5,-1,6,0,0,0
1511885709751339,-2,-2,-10,-5,0,-3,1,-2
1511885709767252,-2,-1,1,5,9,9,1,-1
1511885709767252,0,2,5,-4,7,4,0,-1
1511885709769256,0,-4,-5,0,-4,1,-2,-1
1511885709769256,-1,-2,-6,-5,-3,-8,1,-1
1511885709781290,-1,3,7,-1,1,0,0,-1
1511885709781290,-1,-3,-11,-1,3,-1,-3,-2
1511885709789313,-2,1,1,0,-8,-17,-4,-4
1511885709789313,-2,-1,-1,6,4,4,0,0
1511885709804373,0,0,-1,-6,-6,-2,-2,-1
1511885709804373,1,3,9,-1,-3,2,0,1
1511885709811371,1,-3,-12,-2,2,2,2,1
1511885709811371,-1,-1,-1,2,3,0,-2,0
1511885709827418,1,-1,-2,-3,-9,-9,-2,-1
1511885709827418,1,2,7,2,-2,14,-1,-1
1511885709828413,-1,-3,-7,-3,13,3,1,0
1511885709828413,-1,1,2,-3,1,0,1,1
1511885709840447,-1,-2,-4,2,6,1,1,1
1511885709840447,-1,-1,0,0,11,6,-3,-1
1511885709849471,-1,-2,-3,1,-2,4,0,-2
1511885709849471,1,2,9,2,-7,-4,-2,-2
1511885709864507,0,-1,-4,-3,2,-4,-1,-1
1511885709864507,-1,-2,2,3,3,-6,1,-2
1511885709870642,0,-1,-1,-2,5,5,1,1
1511885709870642,-3,-1,2,-1,-1,-5,-3,-4
1511885709887569,-1,0,-4,-4,3,9,4,-3
1511885709887569,0,-2,-1,-8,-2,-3,1,1
1511885709888571,-1,2,6,12,-8,3,0,3
1511885709888571,1,-2,-2,-1,8,1,1,0
1511885709900709,0,-1,3,-1,-2,-6,0,-1
1511885709900709,-3,-2,-8,-4,1,-1,0,0
1511885709909627,-1,-1,4,-2,-3,-8,1,0
1511885709909627,0,0,-5,-3,-5,2,-1,1
1511885709923776,-1,-3,-6,2,-3,4,-4,-1
1511885709923776,-3,-1,7,1,1,-7,-1,-2
1511885709930687,0,0,-1,-2,0,3,0,1
1511885709930687,1,-2,0,3,-2,2,-1,-2
1511885709946730,2,2,2,-1,0,-5,2,2
1511885709946730,-1,-1,-1,3,6,20,3,1
1511885709948731,-1,-2,6,8,4,-4,-2,-2
1511885709948731,-2,0,-4,-3,8,8,1,2
1511885709960768,1,1,-1,-1,-3,-5,-1,0
1511885709960768,0,0,1,-1,10,-2,-2,-1
1511885709969787,-2,1,-3,-4,-22,4,1,-1
1511885709969787,-2,-4,-3,-1,-3,-8,-2,-2
1511885709983824,-2,-2,-1,0,0,2,-1,-1
1511885709983824,1,-2,4,0,-8,-10,-2,0
1511885709990847,2,0,-1,-1,2,1,0,-1
1511885709990847,2,1,-1,-1,-3,-1,-2,0
1511885710006889,-2,-1,-3,-6,-2,1,0,-1
1511885710006889,-1,-2,0,4,-8,-5,-2,-3
1511885710012902,0,0,-3,-2,0,-4,-1,-1
1511885710012902,0,2,4,0,-11,-13,-3,-2
1511885710020923,0,-3,-10,-6,-14,-20,-3,-1
1511885710020923,0,1,-4,-5,1,-6,3,0
1511885710030084,-2,2,-4,-5,2,11,-2,3
1511885710030084,-2,-2,7,6,8,4,1,-1
1511885710044117,0,0,4,5,12,-3,0,-3
1511885710044117,-1,-1,-4,-3,-6,6,0,-1
1511885710051138,-1,0,1,2,-1,-10,0,-1
1511885710051138,0,1,-4,-3,-3,0,3,0
1511885710067181,-1,-1,-4,0,3,5,-2,-1
1511885710067181,-2,-2,0,1,2,-5,1,-2
1511885710073197,-1,-3,0,-2,7,1,0,-3
1511885710073197,-1,-1,-1,1,-1,-2,-3,-1
1511885710081216,-2,0,1,0,-3,-1,1,0
1511885710081216,2,1,-1,1,0,-2,1,0
1511885710090240,-1,0,2,-3,0,0,-2,-1
1511885710090240,-2,-2,-3,-3,-5,-10,-4,0
1511885710104285,0,-2,2,1,-3,0,0,0
1511885710104285,0,-1,0,0,7,0,-1,0
1511885710111298,-2,-2,0,-1,-23,-16,-2,-4
1511885710111298,-1,0,-3,-4,-2,-1,2,0
1511885710126457,-2,-1,0,-4,0,-1,-2,-1
1511885710126457,-2,0,0,6,-4,1,3,2
1511885710133354,0,-1,-1,1,10,6,-9,-1
1511885710133354,-3,-1,-3,-1,3,1,0,0
1511885710149399,3,-2,1,-4,-9,-2,-1,-1
1511885710149399,-1,1,0,-4,-1,-2,0,-1
1511885710151410,1,-2,-1,-1,6,7,-1,-1
1511885710151410,-2,-2,-1,-2,-9,5,0,-2
1511885710172460,-3,-1,-1,1,-3,1,-1,-1
1511885710172460,-1,-2,0,-1,8,-7,0,-1
1511885710173466,1,0,1,-1,0,-20,-1,-2
1511885710173466,1,2,1,1,11,12,-3,-1
1511885710186598,-5,-3,-1,-1,-3,-4,0,-1
1511885710186598,8,-1,0,0,-4,-14,-3,1
1511885710193617,-3,-1,-2,-2,-5,2,1,1
1511885710193617,1,-1,-2,1,2,2,1,-1
1511885710209659,-2,1,0,0,2,-2,0,-1
1511885710209659,0,0,0,-3,-5,-2,-1,-2
1511885710211664,4,0,-1,4,10,5,4,1
1511885710211664,3,-1,0,0,-1,-1,-4,0
1511885710223709,0,0,-1,-3,1,5,0,0
1511885710223709,-3,-1,-2,-1,-4,1,-4,-1
1511885710230714,-1,-2,-1,0,-2,-3,-2,-1
1511885710230714,4,-1,-2,-1,-6,1,5,1
1511885710246757,1,1,1,1,6,0,1,0
1511885710246757,-4,-1,-3,-4,-9,-20,-5,-2
1511885710252774,1,-2,1,-4,-20,-3,3,-2
1511885710252774,-2,-1,0,1,-18,-1,-3,0
1511885710269977,-2,-1,1,1,7,-2,0,-1
1511885710269977,-1,1,-1,-1,-1,3,-1,-1
1511885710270821,-3,-1,0,1,3,1,-1,2
1511885710270821,-1,-2,-1,-3,-1,-2,-2,-2
1511885710283855,-2,0,-3,-1,-19,-11,-4,-1
1511885710283855,3,2,3,-1,-1,7,3,1
1511885710290874,-3,-2,-3,-1,9,3,0,0
1511885710290874,2,-1,0,-1,-2,-7,-1,-2
1511885710307047,1,-2,-1,2,4,0,-1,0
1511885710307047,-1,-1,-2,0,3,6,1,-1
1511885710313065,-1,1,2,1,-1,6,1,0
1511885710313065,-3,-2,-2,-2,10,4,-2,-1
1511885710330107,1,-3,-4,-1,1,2,-1,-2
1511885710330107,-2,-2,-1,-2,9,10,-2,-2
1511885710331110,-2,1,1,1,-21,-14,1,0
1511885710331110,-2,1,1,-2,5,5,0,-1
1511885710343319,-1,0,-2,5,4,-4,-1,0
1511885710343319,-1,-1,3,-2,1,2,-1,0
1511885710352166,2,-2,-4,-6,2,-6,3,-1
1511885710352166,-1,1,0,1,14,11,-7,-1
1511885710366209,2,-2,1,-2,12,20,3,1
1511885710366209,1,-2,-4,-1,-17,-8,0,-1
1511885710390385,-2,0,-2,-1,-3,-22,-3,-1
1511885710390385,1,1,1,-2,-14,4,10,2
1511885710391277,-1,1,0,1,11,11,-13,0
1511885710391277,-3,-3,3,4,-4,-11,1,-1
1511885710393277,-1,-3,-1,0,4,-2,-4,-2
1511885710393277,-1,-2,-3,-1,-3,-3,0,-1
1511885710412326,-1,1,-1,-1,11,-24,1,-2
1511885710412326,1,0,-2,1,4,1,3,2
1511885710413328,1,0,-1,-3,-17,-28,-1,-2
1511885710413328,-3,-2,-1,-3,11,7,-1,-2
1511885710426367,2,-2,0,3,-24,-2,-4,-1
1511885710426367,1,0,0,1,-19,7,-2,-1
1511885710433386,-2,0,6,-3,36,28,2,-1
1511885710433386,-3,-5,-16,5,-12,-4,-5,-1
1511885710449542,0,-2,1,-4,1,5,11,1
1511885710449542,-3,-1,0,2,-3,0,-2,-1
1511885710451430,-1,0,3,2,-31,17,-6,0
1511885710451430,1,0,2,-4,48,36,6,1
1511885710463465,-2,0,0,-1,9,3,0,-2
1511885710463465,0,-2,-1,0,22,9,-2,-2
1511885710472486,0,0,-5,-2,-11,0,0,1
1511885710472486,1,1,3,-2,7,9,2,2
1511885710486654,0,-1,0,0,17,-6,1,1
1511885710486654,-1,-1,-2,-7,-43,-8,-1,1
1511885710493551,-2,-2,-3,-1,19,4,2,-1
1511885710493551,-1,0,3,7,-7,-7,2,-1
1511885710509711,-2,-1,1,-1,-8,-4,-3,-1
1511885710509711,-1,0,-3,-16,15,-2,-1,1
1511885710511591,1,2,0,8,4,17,0,2
1511885710511591,-1,-2,-4,13,-5,-28,-4,0
1511885710523629,0,2,-1,-7,-32,-2,1,-1
1511885710523629,-3,-1,-4,3,22,-11,3,-1
1511885710532653,-2,-2,2,-14,-15,-6,-4,-1
1511885710532653,-1,-2,5,-16,-15,-39,-5,-1
1511885710546687,-1,-4,-13,19,30,4,4,-1
1511885710546687,0,1,-1,-3,-13,5,2,-2
1511885710553703,2,0,1,6,15,13,2,-1
1511885710553703,1,3,3,-7,-12,-6,-1,-1
1511885710569748,0,-1,2,-4,-6,1,-3,-1
1511885710569748,0,-2,-4,0,-6,-7,-1,-1
1511885710570748,-2,-1,2,4,10,-9,-2,-3
1511885710570748,0,2,2,1,-12,-3,2,-1
1511885710582780,-2,-1,-5,-10,-17,-20,2,0
1511885710582780,1,-3,0,4,7,8,1,-1
1511885710591964,-1,-1,7,10,-4,-6,-1,-1
1511885710591964,0,0,-2,-4,-5,6,-2,-1
1511885710606846,0,-3,-7,-1,-14,13,-5,-2
1511885710606846,-1,0,6,-7,11,-24,-2,-2
1511885710612863,0,-2,-5,15,-7,-2,0,-1
1511885710612863,-1,0,0,2,1,-5,-1,-1
1511885710629908,-1,3,10,-4,-17,13,-1,1
1511885710629908,0,-1,-6,-7,-13,6,-1,0
1511885710630971,-2,-3,2,8,13,-3,0,0
1511885710630971,-3,-1,-7,-1,2,-1,1,0
1511885710643105,-1,3,6,1,12,-1,1,0
1511885710643105,-2,2,-1,1,0,4,-1,0
1511885710652028,0,-2,-4,-11,-1,-9,-2,-1
1511885710652028,0,-1,3,6,0,5,0,-2
1511885710666158,-1,0,-4,-9,0,-4,1,-2
1511885710666158,-1,-2,5,10,2,1,-3,0
1511885710673177,0,-1,-6,-10,-17,-38,-4,-3
1511885710673177,-1,-1,-3,-7,8,5,0,0
1511885710689220,3,1,-2,7,15,-4,0,1
1511885710689220,-2,-1,2,-1,-13,-6,-4,-2
1511885710691222,0,-2,-2,-5,2,-6,-2,0
1511885710691222,1,1,1,-4,-3,2,1,0
1511885710703329,-2,0,0,-2,-3,-7,0,-1
1511885710703329,-1,-1,2,5,5,-2,0,-1
1511885710712282,-1,3,0,-1,-2,1,1,0
1511885710712282,-1,-5,-5,-6,-6,0,-1,-1
1511885710726514,0,0,3,-2,-7,1,-1,1
1511885710726514,2,2,2,2,8,7,1,0
1511885710733540,-3,-2,-13,-9,-4,0,-2,-3
1511885710733540,0,1,3,13,-14,-4,-2,-1
1511885710749454,-2,-3,1,-6,-2,9,0,-2
1511885710749454,-1,-4,-8,-1,7,3,1,1
1511885710751459,-1,2,2,-3,9,18,2,0
1511885710751459,0,0,-1,-1,20,18,-1,-1
1511885710763494,-1,-1,-1,3,-4,-3,-2,0
1511885710763494,1,0,3,-3,1,2,0,0
1511885710772516,3,-1,2,0,1,9,-1,1
1511885710772516,0,-1,-3,2,-2,-1,-1,0
1511885710786556,0,-2,1,-2,0,-3,0,-2
1511885710786556,-3,0,-4,0,-5,-4,-1,-2
1511885710793574,0,1,9,5,4,6,3,1
1511885710793574,-1,-2,-2,-4,-3,-5,-2,-1
1511885710809617,-1,2,-1,1,-8,0,0,0
1511885710809617,-1,-2,0,-4,-7,-17,-2,-2
1511885710811624,-1,-1,-5,-1,-11,-11,-1,-2
1511885710811624,0,0,-1,-7,-12,0,-2,-1
1511885710823651,-2,0,-2,6,-6,-6,-2,-1
1511885710823651,0,0,-1,-2,-1,7,-1,0
1511885710832680,0,-4,-6,0,2,5,0,0
1511885710832680,-2,-1,7,1,-3,-9,1,0
1511885710846718,0,-4,-10,-7,14,8,2,-1
1511885710846718,0,0,-6,-2,-8,3,0,-1
1511885710853825,-2,1,1,4,11,3,-1,0
1511885710853825,1,1,1,2,-3,-3,1,0
1511885710869778,0,-2,0,-6,13,4,1,-1
1511885710869778,-3,-1,4,9,3,-4,-1,-2
1511885710870777,1,2,0,-6,-13,0,-1,0
1511885710870777,-2,0,-4,-3,8,25,1,-1
1511885710882939,-1,-1,-1,6,9,0,0,0
1511885710882939,0,-1,-5,-6,-7,-7,-1,1
1511885710891961,2,2,15,3,-3,4,0,0
1511885710891961,-2,-3,-17,-5,-6,-7,-2,-1
1511885710907021,0,0,1,-9,-8,-10,1,0
1511885710907021,-2,1,4,3,6,0,-1,-1
1511885710913034,-2,-1,-5,-2,1,1,-2,-1
1511885710913034,0,-1,3,-1,-5,-6,-2,1
1511885710929083,0,-3,-3,2,2,-7,0,0
1511885710929083,-1,1,-6,-11,-4,-6,-2,-1
1511885710936182,0,-1,-3,5,11,16,1,1
1511885710936182,0,1,5,-1,-8,-3,0,1
1511885710943198,0,1,-3,-2,-5,-2,-2,-3
1511885710943198,-1,-3,0,5,5,-3,1,0
1511885710952121,1,-3,-4,-3,-2,-5,0,-1
1511885710952121,-4,-3,-6,-7,-14,-41,-2,-2
1511885710966160,-2,-2,7,6,-7,-4,-1,0
1511885710966160,0,1,-1,0,-1,7,0,1
1511885710973349,-2,-3,-3,-4,-1,-5,-2,-3
1511885710973349,0,1,-2,-2,8,1,-1,-3
1511885710989320,-2,0,-1,8,-1,-2,-1,-1
1511885710989320,-2,-1,-1,1,-4,-3,-2,1
1511885710996241,0,-1,-6,-6,-4,-6,0,1
1511885710996241,2,-1,2,2,7,16,2,-1
1511885711003458,0,1,1,-4,6,7,-1,-1
1511885711003458,-1,-1,-6,-4,-24,-23,-2,-1
1511885711012280,-1,1,9,6,4,6,-3,-2
1511885711012280,-1,-1,-5,2,4,-4,1,1
1511885711026320,-1,0,2,-13,-3,-6,-1,1
1511885711026320,1,1,2,12,10,11,-1,0
1511885711033339,0,2,1,-2,-7,-9,0,-1
1511885711033339,-2,-2,4,9,3,0,-1,-1
1511885711049382,0,-3,0,3,-10,-2,1,-3
1511885711049382,-2,-1,0,-8,3,9,2,1
1511885711055395,2,1,-10,-6,2,8,0,0
1511885711055395,0,-1,5,4,1,-8,1,0
1511885711063545,0,0,2,-1,-7,-3,0,-1
1511885711063545,0,0,0,0,3,0,-1,-2
1511885711079587,-3,-1,5,0,-14,-9,-1,-1
1511885711079587,-2,-1,-9,-2,10,9,-1,-2
1511885711086781,1,2,-3,2,-9,-1,0,1
1511885711086781,2,0,5,-4,20,2,1,0
1511885711093626,-3,1,0,8,-4,-2,-3,-1
1511885711093626,-1,-2,1,-8,-9,-3,-2,-1
1511885711109675,0,-2,-5,-3,1,-3,-1,-3
1511885711109675,-2,-3,0,10,2,2,0,0
1511885711115696,0,-2,-5,-11,4,4,2,-1
1511885711115696,2,-1,7,7,2,-2,-3,-1
1511885711131729,-1,-1,-7,-2,-2,-19,-2,-2
1511885711131729,-1,-1,0,-1,-10,-5,1,-1
1511885711133731,-1,-1,0,-5,5,-4,-1,-2
1511885711133731,-2,0,0,-3,-19,-5,-1,1
1511885711146790,-1,1,3,5,3,2,-1,-1
1511885711146790,0,-1,1,1,-7,2,2,-1
1511885711153788,0,-2,-9,-8,-6,-7,-2,0
1511885711153788,-1,0,1,3,9,3,-1,1
1511885711168827,-2,-1,-3,-5,4,6,0,1
1511885711168827,0,-1,5,8,5,2,1,-1
1511885711175846,1,0,0,1,14,20,1,0
1511885711175846,0,-1,-5,-4,-11,2,-3,-2
1511885711191889,0,-1,-4,-7,8,-7,1,1
1511885711191889,-2,-4,-8,-1,-21,-11,-2,-2
1511885711193891,-1,-3,-2,4,7,0,2,0
1511885711193891,-1,1,5,0,7,-4,-3,-2
1511885711206995,-1,0,-2,-1,0,5,-2,-1
1511885711206995,1,-1,1,-6,9,11,0,-2
1511885711212943,-2,-1,0,0,-12,-12,-2,0
1511885711212943,-2,0,-6,0,1,1,4,-3
1511885711228984,0,-2,5,1,-9,-2,-1,-1
1511885711228984,-1,0,1,-4,-1,-14,-2,-1
1511885711236007,-2,-1,-1,1,-10,-33,-4,-1
1511885711236007,-1,0,-1,-1,3,4,1,0
1511885711252145,0,-2,-1,-1,-8,1,0,-1
1511885711252145,0,2,-4,0,-4,2,0,1
1511885711254051,-1,-3,1,6,2,-3,1,0
1511885711254051,1,-2,-5,-4,1,7,1,0
1511885711266086,0,2,4,6,-4,7,-1,-1
1511885711266086,-3,-2,-4,-2,9,0,-2,-2
1511885711273105,1,2,-3,2,-12,-5,1,0
1511885711273105,0,-1,3,-2,3,3,-1,0
1511885711289144,1,-1,-3,-3,0,8,-1,-2
1511885711289144,0,0,0,-3,-1,2,-4,-1
1511885711296163,-1,1,2,0,-6,-8,-2,-1
1511885711296163,-1,0,-1,-3,-8,-7,-1,-1
1511885711312211,0,-1,0,1,2,-5,1,1
1511885711312211,-1,-2,-3,-4,-1,0,-2,-2
1511885711314212,0,1,2,-1,1,4,-1,3
1511885711314212,1,-2,-4,2,-7,13,1,0
1511885711326367,-1,-2,3,5,21,-2,0,0
1511885711326367,0,-1,5,-2,-6,-14,0,0
1511885711333266,-1,-4,-8,-9,-17,4,-2,-1
1511885711333266,-3,1,0,-5,-2,-16,1,0
1511885711349309,-3,-2,-7,-4,-1,3,0,0
1511885711349309,0,1,5,11,7,1,2,2
1511885711363371,-1,1,-1,-2,3,7,-2,0
1511885711363371,0,0,0,-1,-1,-7,-3,-1
1511885711372368,-4,-2,1,-3,-10,-12,0,-1
1511885711372368,-1,2,-1,2,4,-2,2,0
1511885711373369,1,-1,2,-1,8,7,1,0
1511885711373369,-1,-1,1,5,-6,0,0,2
1511885711386406,-2,2,-1,-3,-1,-11,-1,-2
1511885711386406,1,-1,-1,-1,5,5,2,0
1511885711393539,1,-1,-1,1,8,6,2,1
1511885711393539,-2,-4,1,-4,-4,-8,-2,-2
1511885711409494,-2,0,5,9,8,10,-1,-3
1511885711409494,0,-1,1,-9,-9,-2,-2,1
1511885711415603,-1,0,0,2,5,3,-1,-1
1511885711415603,-2,0,-2,-6,-1,-7,-1,0
1511885711432557,-1,-1,-1,0,-2,-3,-3,1
1511885711432557,0,0,-5,-2,-2,-4,-2,0
1511885711433529,-1,-1,0,-7,2,1,-1,-3
1511885711433529,-1,0,1,-3,0,-2,-1,-2
1511885711445564,0,0,5,6,-4,2,0,0
1511885711445564,1,-2,-5,-3,6,4,0,1
1511885711454680,-1,-1,2,3,13,2,-1,0
1511885711454680,0,0,-7,-5,-13,1,1,-1
1511885711468750,-1,0,-1,-8,-5,-12,1,-1
1511885711468750,1,1,2,3,9,1,2,-1
1511885711475769,-3,-4,-6,1,-14,-33,0,-2
1511885711475769,1,2,2,-3,-3,-1,-4,-1
1511885711491957,-1,-1,-6,-5,2,8,2,1
1511885711491957,0,1,4,6,-4,-4,-3,-2
1511885711498792,-1,1,1,-7,-14,5,-1,0
1511885711498792,0,-1,2,2,0,-3,-1,0
1511885711506812,0,-3,-2,-2,-3,0,0,-1
1511885711506812,1,-3,-3,-3,7,-3,-1,-1
1511885711512827,-1,0,1,1,2,12,0,0
1511885711512827,0,-1,0,2,6,4,0,-2
1511885711528870,3,0,-1,3,-1,4,0,0
1511885711528870,-1,-2,-3,-2,-7,-1,0,-2
1511885711536003,2,1,0,-2,13,25,2,1
1511885711536003,-1,-2,-1,8,3,6,-2,-1
1511885711552120,0,1,2,0,-2,-3,0,1
1511885711552120,-2,0,-8,-6,-5,4,0,-1
1511885711553934,0,-1,-5,0,10,-2,-1,-2
1511885711553934,-1,-1,-2,-2,-3,5,-1,0
1511885711566969,-2,-2,0,5,-3,-3,0,-1
1511885711566969,-1,-1,5,1,-13,5,2,-2
1511885711572988,-1,0,-3,-2,2,-8,0,-2
1511885711572988,-1,0,-1,1,6,2,-1,-1
1511885711589181,1,1,-3,-2,-3,-6,-1,1
1511885711589181,-4,-3,-2,-3,-6,-8,-2,0
1511885711596050,-1,1,6,6,-2,-6,-1,-1
1511885711596050,-2,-1,0,-1,9,2,2,-2
1511885711612092,0,0,2,1,-2,3,1,-1
1511885711612092,1,1,1,-1,5,1,-3,1
1511885711614098,0,1,0,-2,10,13,1,0
1511885711614098,-1,-5,-2,10,21,21,2,-1
1511885711626129,-1,2,2,-1,-7,2,-1,1
1511885711626129,0,-2,0,1,3,0,0,-1
1511885711642343,0,-2,2,-1,-1,1,0,-2
1511885711642343,-1,1,2,-5,-27,-21,-1,-2
1511885711649322,-1,1,-2,1,-5,2,0,0
1511885711649322,-1,-3,-2,-6,-2,-6,0,-2
1511885711655335,-1,-1,2,7,-4,1,-1,0
1511885711655335,0,0,-2,-9,-3,-12,-4,-1
1511885711672382,0,-3,-1,1,-1,-2,-3,-2
1511885711672382,-1,1,0,-2,-10,-15,1,-1
1511885711673390,1,-3,-4,-4,-9,-4,-2,-1
1511885711673390,-2,-1,-4,1,1,-4,0,0
1511885711686423,-2,1,4,-3,3,0,-1,-2
1511885711686423,0,0,1,3,3,7,1,-1
1511885711694441,0,-2,-2,-3,1,-1,0,-3
1511885711694441,1,-1,1,-6,-9,1,-1,0
1511885711709485,-1,0,0,2,9,8,-1,-1
1511885711709485,-1,0,-2,-5,0,5,-1,-1
1511885711715537,-2,-2,-4,3,-13,-10,0,-1
1511885711715537,2,1,0,2,0,0,2,-1
1511885711732557,1,-2,-4,-4,7,-1,-1,-1
1511885711732557,0,3,3,-4,-10,-2,-1,-1
1511885711733551,-1,-2,-5,-3,-15,-4,0,2
1511885711733551,0,2,3,-5,13,7,1,1
1511885711745576,-1,1,-5,2,-7,-10,0,-2
1511885711745576,1,-1,-2,0,14,7,0,-1
1511885711754600,0,-2,0,-1,1,-5,-4,0
1511885711754600,-2,-1,-2,-4,0,0,0,0
1511885711768681,0,1,2,2,6,-6,-4,0
1511885711768681,-2,-2,-5,3,-12,0,-2,-1
1511885711775697,0,1,2,0,6,-6,-3,-2
1511885711775697,-1,-2,-8,-7,-2,-16,-2,-1
1511885711791741,-1,0,1,0,2,0,0,0
1511885711791741,-2,-1,5,0,1,-9,-3,-2
1511885711793704,0,0,-13,-6,-6,-10,0,1
1511885711793704,-1,-1,2,10,-1,-1,1,0
1511885711805908,0,0,-1,-6,-4,-4,1,-2
1511885711805908,2,-1,-2,2,-2,-4,0,0
1511885711814877,1,1,6,6,-3,6,0,0
1511885711814877,-1,-2,-3,-1,-31,-13,1,-1
1511885711828920,-1,-2,-2,-2,2,-7,1,-1
1511885711828920,-1,0,1,1,-4,1,0,0
1511885711836055,-1,0,4,-1,12,0,-2,0
1511885711836055,0,-1,-3,-5,7,7,0,0
1511885711851979,-1,-4,-2,7,17,6,-1,-1
1511885711851979,-2,-1,-2,-4,-8,-5,1,0
1511885711853981,-1,0,-4,-3,8,2,-1,0
1511885711853981,1,0,5,4,4,4,-2,1
1511885711866016,1,0,-5,-7,-17,4,1,-1
1511885711866016,1,-1,1,-4,12,-3,1,1
1511885711882056,-1,-1,3,7,-3,3,0,-1
1511885711882056,-1,-2,-6,-1,-7,-24,-2,-1
1511885711889075,0,3,2,1,-6,1,-2,-1
1511885711889075,-1,1,-2,7,3,2,-1,-1
1511885711896096,0,0,5,-7,-4,-4,0,-2
1511885711896096,-2,-1,0,-2,11,13,-1,0
1511885711911258,0,-4,5,9,-7,-3,-2,-1
1511885711911258,-3,-1,-2,-1,-13,-5,0,-1
1511885711918188,-2,0,1,-6,7,-3,1,0
1511885711918188,-1,-1,-1,0,-13,15,1,-1
1511885711926356,-2,0,3,5,8,1,-1,-1
1511885711926356,0,-1,3,1,7,5,0,0
1511885711935341,-1,-1,-1,1,1,-3,-2,-2
1511885711935341,-1,-2,-4,-4,-7,5,1,0
1511885711949272,0,-1,-3,-3,0,3,-1,1
1511885711949272,0,-1,-3,-3,-1,0,-2,1
1511885711963397,0,-1,-1,-7,-2,6,-1,1
1511885711963397,-1,0,7,16,8,-6,-3,0
1511885711971473,-2,-1,-14,-3,-9,-1,-1,0
1511885711971473,0,-2,-1,-3,6,0,1,-1
1511885711978348,-1,0,-4,-8,0,1,-1,0
1511885711978348,2,2,8,-3,-1,0,-1,-3
1511885711985366,0,-2,-1,2,4,-1,1,0
1511885711985366,0,-2,0,-3,-1,-6,-1,-2
1511885711994564,-1,0,-2,2,-6,-1,1,-2
1511885711994564,0,1,1,-2,8,7,1,-2
1511885712009454,-1,-1,-1,-9,-4,-8,-1,-1
1511885712009454,-2,1,-2,-2,2,0,-1,-1
1511885712015476,-1,-1,3,6,0,0,0,-1
1511885712015476,-1,-1,-3,2,7,-7,-3,0
1511885712031528,-1,-1,3,-6,-4,-3,-2,-1
1511885712031528,-1,1,-1,2,-15,-13,-2,-2
1511885712038511,1,-2,2,4,-2,1,1,-1
1511885712038511,-1,1,2,-2,5,-6,-2,1
1511885712045528,0,-1,-7,-5,3,18,3,0
1511885712045528,2,-2,-1,-3,4,5,0,0
1511885712054572,-2,0,-5,-4,-4,-1,-1,-1
1511885712054572,0,-1,3,7,-2,-6,-1,-2
1511885712077609,-3,-1,7,4,1,-2,1,1
1511885712077609,-4,1,-6,-9,0,1,-3,-1
1511885712078612,-1,-1,-2,2,0,7,1,1
1511885712078612,-3,-4,-4,0,9,9,1,0
1511885712091829,0,1,5,-5,-4,-1,-3,-1
1511885712091829,0,-1,-8,3,-11,-10,-1,-1
1511885712098665,-2,1,2,-4,12,-4,-1,1
1511885712098665,-2,-1,0,0,-4,0,-2,-2
1511885712114710,-1,-2,-5,-1,-6,-18,-4,-1
1511885712114710,0,4,8,-1,4,-5,-2,0
1511885712116718,2,-3,-1,5,-2,1,-1,-2
1511885712116718,-4,-2,-7,-8,-2,-4,1,-1
1511885712129750,0,-1,-1,-1,-2,2,-2,-2
1511885712129750,-1,0,-2,3,6,7,0,0
1511885712135766,0,-2,-2,-3,-6,-3,-2,0
1511885712135766,0,0,-1,-1,-1,2,-1,0
1511885712151934,-3,-1,6,9,5,-5,1,-1
1511885712151934,-1,-2,-2,-1,-1,-1,0,-1
1511885712158874,1,-2,-1,2,-1,5,0,-2
1511885712158874,1,-3,-4,-9,-6,-8,1,-1
1511885712175042,-1,3,2,-1,4,-1,-1,0
1511885712175042,-1,-1,0,4,-2,-2,-1,-2
1511885712176023,0,0,0,-6,10,3,0,-1
1511885712176023,-1,-2,-6,0,3,3,-2,0
1511885712189045,0,-1,0,3,6,2,1,-1
1511885712189045,-1,1,1,0,3,0,0,0
1511885712196034,0,-3,1,2,-1,-10,-2,-2
1511885712196034,-2,1,2,1,-4,6,1,-2
1511885712211077,-1,-3,-8,-5,-3,-2,0,1
1511885712211077,0,-4,-1,1,5,5,1,0
1511885712218096,-1,1,-4,-2,-3,5,-1,0
1511885712218096,0,3,3,1,0,-4,-2,-2
1511885712235143,0,-1,-1,-3,-2,-1,0,-1
1511885712235143,-1,-1,0,-2,1,5,-2,0
1511885712236146,-2,0,-1,-4,-5,-6,1,0
1511885712236146,0,-1,-2,5,-2,-1,4,1
1511885712249198,-1,1,3,2,6,4,0,-4
1511885712249198,1,1,-4,-4,-9,-6,-1,-1
1511885712256207,-2,0,-3,6,3,1,1,0
1511885712256207,-1,0,0,-9,3,2,-1,-2
1511885712271259,0,0,-2,3,4,17,4,1
1511885712271259,-1,0,2,0,-4,-1,-3,1
1511885712278257,0,-1,0,-4,-15,-26,-2,-1
1511885712278257,-2,0,-1,-1,5,0,-1,0
1511885712294333,0,-1,-2,-6,-2,3,2,0
1511885712294333,-1,-2,-1,0,1,1,-2,0
1511885712296305,-2,1,-2,-3,-2,-2,-2,-2
1511885712296305,-2,-2,0,1,-1,4,1,-1
1511885712309463,-2,0,-2,-2,-6,-10,0,-1
1511885712309463,-2,-1,-4,-1,-1,-8,0,-3
1511885712315499,0,-1,0,-1,1,2,-3,0
1511885712315499,0,-2,0,1,-4,-9,0,2
1511885712331492,1,0,-2,-2,3,3,-2,0
1511885712331492,0,0,0,1,-3,1,3,-1
1511885712338533,-1,-2,0,0,-2,3,-9,-3
1511885712338533,0,0,-1,-3,-5,0,-2,0
1511885712354551,1,-1,0,2,-1,-7,-4,1
1511885712354551,0,-2,0,0,1,4,4,0
1511885712356557,-1,0,-1,1,-3,2,2,0
1511885712356557,1,0,-1,-3,-3,-2,-2,-2
1511885712368592,-1,-1,-2,-3,0,-4,2,0
1511885712368592,0,-3,1,0,3,2,-8,0
1511885712377612,-2,-2,1,1,-1,7,9,-1
1511885712377612,0,-1,-3,-3,-1,2,-2,-1
1511885712391826,-1,1,0,4,-1,-8,-1,-2
1511885712391826,-2,0,1,-2,1,-2,-2,-1
1511885712398669,0,1,0,-3,-3,-6,0,2
1511885712398669,-2,0,-2,0,2,7,0,-1
1511885712414715,-1,-1,-1,-2,-3,-5,1,-2
1511885712414715,0,-2,-1,-4,2,5,1,1
1511885712416722,2,1,-2,4,5,3,-2,-2
1511885712416722,-1,0,0,0,-4,-2,-3,-2
1511885712428750,-6,-1,-1,-4,-7,-16,6,-2
1511885712428750,6,0,-2,1,-2,-6,-22,1
1511885712436995,-2,1,-2,-1,-7,-10,2,-1
1511885712436995,3,2,1,3,4,0,-7,3
1511885712452064,-1,-3,-1,-2,-2,4,3,0
1511885712452064,-1,-1,-2,1,-1,-3,-6,1
1511885712458054,-1,-1,-2,-3,0,2,22,2
1511885712458054,0,-1,0,4,1,-3,2,-2
1511885712475098,0,1,0,-3,-1,3,0,0
1511885712475098,0,0,0,0,1,1,2,0
1511885712476099,11,-1,2,1,0,-2,-2,0
1511885712476099,-12,-2,1,0,-1,1,-7,2
1511885712488266,0,0,-1,-1,-8,-7,-6,-4
1511885712488266,-3,0,-1,3,16,10,8,-2
1511885712497369,-6,0,-1,-2,3,9,-8,-3
1511885712497369,3,-1,-4,-2,3,1,6,0
1511885712511541,0,-1,-2,2,3,-10,-8,-1
1511885712511541,-3,-2,-2,-7,3,2,0,0
1511885712518559,-1,0,0,7,-3,-5,-2,-1
1511885712518559,5,0,0,1,1,-4,2,1
1511885712534591,1,-1,-1,-1,2,16,0,1
1511885712534591,-1,1,-1,0,-1,-8,2,-2
1511885712536481,-2,-4,2,-7,-4,1,3,-1
1511885712536481,0,-1,0,-3,-9,-9,-3,-1
1511885712548548,-3,-2,-2,0,-25,-29,-5,-2
1511885712548548,0,0,-1,-2,-6,-7,4,-1
1511885712557530,-1,0,-2,3,0,-5,-8,-2
1511885712557530,0,-2,0,-7,3,10,-1,-2
1511885712571568,1,-1,-3,3,5,0,3,1
1511885712571568,-2,-1,-1,1,-4,-2,0,-3
1511885712578589,-4,-1,-2,-7,0,5,-4,1
1511885712578589,0,-2,-1,1,-5,-5,4,-2
1511885712594631,1,1,7,-2,12,10,0,1
1511885712594631,-1,-3,-9,-1,-8,2,2,1
1511885712596660,-2,-2,7,13,9,-4,-7,-1
1511885712596660,-1,-1,0,-6,-1,-2,6,-1
1511885712608710,-2,-2,-2,-1,-1,0,-3,-1
1511885712608710,-5,0,1,-5,2,-2,4,-2
1511885712617817,-1,0,-2,-5,-5,0,-5,-1
1511885712617817,-5,-1,-1,4,9,16,3,0
1511885712631897,8,-2,-3,-2,2,1,1,1
1511885712631897,0,-2,-3,-4,-12,-8,-2,-2
1511885712637880,-2,-3,-18,1,8,6,2,-2
1511885712637880,-1,-2,6,-7,-6,-7,-5,-2
1511885712654939,0,1,-19,-1,-1,-4,-1,0
1511885712654939,-1,-1,18,6,-2,-3,3,-2
1511885712655948,1,0,10,-4,-4,-4,-6,1
1511885712655948,-1,-4,-10,3,0,3,-5,-2
1511885712668083,-1,1,4,-6,-4,7,-1,-1
1511885712668083,-1,-2,-7,-1,-2,-3,1,1
1511885712677105,-3,1,9,4,18,11,-1,2
1511885712677105,0,-1,-2,1,-7,-16,-1,-1
1511885712691213,-3,-1,0,-6,-29,-11,1,0
1511885712691213,0,-2,-1,-2,-4,-4,-2,-2
1511885712698162,2,0,6,-11,9,-9,-3,1
1511885712698162,-12,-3,-11,8,8,1,-1,-4
1511885712714205,4,-5,-15,0,13,-9,-2,2
1511885712714205,0,1,-5,-3,6,6,5,2
1511885712716206,-2,3,24,-2,-16,-5,-2,-1
1511885712716206,1,-7,-45,-1,0,-15,2,0
1511885712728243,-4,1,8,0,1,1,-2,-3
1511885712728243,1,2,4,5,3,16,-1,0
1511885712737390,-3,-4,-4,-3,-8,-6,1,-3
1511885712737390,0,2,16,3,-12,-9,0,0
1511885712751532,-2,-3,-4,4,24,18,2,1
1511885712751532,4,-1,-2,-8,21,7,0,0
1511885712758543,2,5,14,7,-1,6,1,2
1511885712758543,1,3,3,2,-20,9,0,2
1511885712774804,-4,-3,0,1,15,8,-2,-2
1511885712774804,-1,2,7,4,-16,-11,-2,-1
1511885712776648,0,-3,-8,-6,-2,-6,-2,-2
1511885712776648,2,-1,-2,-9,11,5,-2,0
1511885712788655,-1,2,11,5,-12,8,-1,-2
1511885712788655,-1,-2,-3,-1,2,-3,-1,-1
1511885712797683,-3,-4,-12,-2,-15,-2,0,0
1511885712797683,1,1,8,3,6,2,-3,1
1511885712811921,-3,0,5,-5,-2,-12,0,-2
1511885712811921,0,1,3,5,3,9,-5,0
1511885712818738,-1,-4,-35,-3,-5,0,-2,-1
1511885712818738,2,1,19,-1,4,1,-1,0
1511885712833896,-2,0,1,-2,-6,-3,-2,0
1511885712833896,-2,-2,5,-2,-4,0,-1,0
1511885712840975,-1,2,6,4,-9,-19,0,-1
1511885712840975,0,0,0,2,4,4,-1,0
1511885712847931,-1,0,1,-2,-5,-4,-2,0
1511885712847931,0,-1,-3,-3,-5,-10,-2,-1
1511885712856984,0,2,-1,-2,7,7,2,1
1511885712856984,0,2,11,-5,-6,4,-3,0
1511885712871001,-1,-5,-34,1,3,1,-3,-1
1511885712871001,-2,-4,-3,-3,1,-3,-1,-1
1511885712878087,-2,0,2,1,5,5,1,-2
1511885712878087,0,-1,-6,3,-4,4,2,0
1511885712894092,-2,-3,11,0,1,-2,-1,-1
1511885712894092,-1,0,-7,-4,-11,-4,-1,-3
1511885712901114,1,-2,-10,1,7,3,0,-1
1511885712901114,0,5,28,-7,-5,-2,0,-1
1511885712908308,1,-5,-35,-4,-10,-6,0,3
1511885712908308,-1,-1,-1,7,31,8,5,1
1511885712917153,0,1,9,-5,-11,-1,0,-1
1511885712917153,-3,0,-7,-3,-2,-3,1,-3
1511885712931193,0,1,9,1,-2,-4,4,0
1511885712931193,-2,1,2,1,-2,-2,2,-1
1511885712938208,0,-3,-8,1,7,1,-1,0
1511885712938208,-1,0,-5,1,4,-5,1,2
1511885712954253,-2,1,2,-2,-4,-1,-3,0
1511885712954253,0,0,3,-4,-4,-14,-1,1
1511885712961275,0,1,1,-1,2,5,2,-1
1511885712961275,1,-2,-10,1,-4,-6,2,0
1511885712968414,2,3,17,0,5,0,-1,-1
1511885712968414,-2,-3,-2,-1,-9,-11,-7,-1
1511885712977314,-2,-1,-10,-9,-5,-4,-1,-2
1511885712977314,-1,-4,-4,3,4,-3,0,0
1511885712991477,0,1,2,-4,-1,1,3,0
1511885712991477,0,0,9,4,5,6,3,-1
1511885712998372,-2,-4,-17,0,-1,-7,-3,0
1511885712998372,-2,0,2,-9,-25,-29,-5,-4
1511885713013411,0,-2,-4,0,15,-2,0,1
1511885713013411,0,1,-4,3,-16,-2,-2,-1
1511885713020444,1,3,15,0,4,2,2,2
1511885713020444,0,-6,-21,0,17,3,0,-3
1511885713037476,-2,-1,13,-5,-23,-1,0,0
1511885713037476,0,0,-5,0,-7,-5,-1,0
1511885713038475,-1,-2,2,-6,-7,-4,0,-1
1511885713038475,-2,1,3,9,9,9,-1,-1
1511885713051635,0,0,-2,-6,2,3,1,-1
1511885713051635,0,-1,-4,2,-1,1,2,0
1511885713065592,-1,-2,1,1,-3,1,-1,-2
1511885713065592,0,0,1,-5,-4,-3,-2,-1
1511885713073572,-2,-2,-3,1,8,10,0,0
1511885713073572,0,-1,-8,-6,-7,-6,-3,1
1511885713088610,0,-2,1,5,3,-3,1,1
1511885713088610,-1,-1,1,0,-1,3,0,-2
1511885713097663,-1,2,7,4,2,-1,-1,1
1511885713097663,-2,-1,-1,-7,-8,1,-3,-2
1511885713098636,0,-2,-13,5,13,24,4,-1
1511885713098636,-2,0,2,-1,2,12,0,-2
1511885713111674,1,0,5,3,0,2,1,0
1511885713111674,-7,-1,3,-3,5,2,-1,-1
1511885713118714,7,-1,-4,-10,-1,0,-3,-2
1511885713118714,0,1,3,11,-1,-5,2,0
1511885713133770,0,0,0,0,1,-1,-1,-1
1511885713133770,-2,-2,-5,-2,3,4,1,-1
1511885713140794,-2,3,1,-2,-2,-8,0,0
1511885713140794,2,0,1,-5,4,7,1,0
1511885713156834,-1,-2,3,-3,-4,-7,-1,-2
1511885713156834,0,0,1,4,-2,-4,0,1
1511885713158796,-1,-1,1,3,23,8,3,0
1511885713158796,0,-2,1,-1,3,7,-3,1
1511885713171834,1,1,-1,-1,5,-1,0,0
1511885713171834,3,-1,2,-1,-14,-5,-1,-3
1511885713177888,-2,-1,-6,-1,-2,0,-3,0
1511885713177888,-2,1,0,-1,-3,-3,0,-2
1511885713193893,1,0,-1,0,4,0,0,1
1511885713193893,1,0,-4,-5,6,0,0,-1
1511885713200907,-1,1,4,7,-13,-11,-1,-3
1511885713200907,-4,-2,-1,1,-5,-4,-1,0
1511885713216950,-1,-1,-7,-8,-8,-8,-3,-1
1511885713216950,1,-3,0,2,2,3,3,1
1511885713218955,-1,-1,2,-2,-6,-3,0,0
1511885713218955,0,-3,-3,-4,-1,-4,0,0
1511885713231989,0,1,5,6,3,0,1,0
1511885713231989,0,2,-3,-3,0,0,-3,-2
1511885713238159,-1,0,-4,-2,-5,-4,-1,-2
1511885713238159,0,-2,1,3,10,0,1,0
1511885713254291,-5,-2,0,-5,-13,-7,-2,-2
1511885713254291,5,-3,-1,-2,1,-1,2,1
1511885713260307,-1,0,1,-2,-3,2,-1,2
1511885713260307,4,3,4,9,-1,3,-3,-1
1511885713277523,-1,-1,0,-4,1,1,-1,-2
1511885713277523,-1,1,-6,-1,-2,-11,-4,0
1511885713278356,-1,-1,5,2,0,-4,-1,-2
1511885713278356,-2,0,-2,-2,9,19,5,0
1511885713290497,0,0,1,0,-2,1,-2,0
1511885713290497,-2,-1,-1,1,7,2,-2,0
1511885713299415,-1,-2,0,-5,-8,-9,-2,-1
1511885713299415,-1,-2,-1,-3,-5,-2,-4,-1
1511885713314455,0,0,1,-2,-4,0,0,0
1511885713314455,0,0,0,1,2,-5,0,-1
1511885713320467,-7,-2,-1,2,2,9,0,-2
1511885713320467,3,-1,0,-1,-5,-4,2,1
1511885713336509,-2,-1,-6,-7,7,0,-3,-1
1511885713336509,-2,0,4,5,2,-10,-1,0
1511885713337516,-1,-2,-2,0,-2,0,-3,0
1511885713337516,-4,-1,-3,-5,4,-3,8,-1
1511885713358871,0,-1,0,2,-1,-5,-14,-1
1511885713358871,5,-2,-1,-4,-1,-2,-2,-1
1511885713359698,-10,1,1,0,-7,-11,0,1
1511885713359698,-1,1,-2,-2,-2,1,-2,-1
1511885713374737,5,1,-1,-2,-3,2,3,-1
1511885713374737,-3,-3,1,-1,-7,-8,-2,-3
1511885713380795,0,-1,-1,-1,0,-2,-2,-2
1511885713380795,1,-3,-3,-6,-7,-5,-3,-1
1511885713396068,-5,-2,0,13,11,4,3,-2
1511885713396068,5,0,-1,-1,-5,7,-4,2
1511885713396967,5,2,2,3,5,11,2,0
1511885713396967,-3,-1,2,-6,-12,-14,-4,-3
1511885713419026,1,-1,-2,1,8,0,1,-1
1511885713419026,-4,2,7,-1,2,3,1,0
1511885713420029,0,-1,-5,2,-1,3,-1,0
1511885713420029,-5,1,0,-4,2,-4,0,-1
1511885713443090,0,-1,5,0,-10,2,1,-1
1511885713443090,-1,-3,-9,7,9,10,1,0
1511885713444092,-2,-2,2,-2,1,2,-1,-1
1511885713444092,6,1,-1,2,6,11,-3,2
1511885713456129,-7,-3,-2,0,-2,3,6,1
1511885713456129,5,0,-4,-10,-7,-2,-2,1
1511885713457127,2,-3,-1,1,2,2,-2,-4
1511885713457127,1,-1,-3,1,-15,-9,-3,-3
1511885713479187,-1,0,-2,-3,14,-7,1,-1
1511885713479187,-5,-1,-2,-3,-1,1,4,-1
1511885713480214,1,0,1,-7,-11,-7,-3,0
1511885713480214,1,-2,2,0,-13,-2,-3,0
1511885713495233,1,0,-3,9,13,11,4,0
1511885713495233,-3,2,3,-5,10,-1,2,1
1511885713501271,1,0,1,-1,-26,-1,6,1
1511885713501271,-2,-3,-5,-5,5,5,-3,0
1511885713516287,0,0,0,-6,-18,-27,-4,-1
1511885713516287,-1,-2,-3,4,18,18,0,-1
1511885713517287,-2,1,-1,-4,-8,-23,0,-2
1511885713517287,-2,0,-1,0,10,2,7,0
1511885713539347,2,0,-2,-1,-14,0,-9,-1
1511885713539347,-1,-1,0,-1,-2,-7,-1,-2
1511885713540391,-1,0,-3,-4,4,-10,-3,-1
1511885713540391,-1,-1,-4,-2,-19,-27,-5,-2
1511885713554418,0,-1,1,0,-5,1,1,0
1511885713554418,-2,1,2,-1,-19,-31,-2,0
1511885713560402,2,1,-1,3,4,9,-3,-2
1511885713560402,-1,0,-1,2,-1,3,-1,-1
1511885713576568,-3,-2,-3,-4,-1,-7,3,-1
1511885713576568,-3,-2,-1,-5,-18,-11,0,-1
1511885713577449,-2,-3,-3,-3,-8,-6,0,0
1511885713577449,0,-2,-1,-5,-5,-12,-4,0
1511885713598689,-3,0,-3,6,16,18,-1,-1
1511885713598689,0,0,5,3,13,-5,3,0
1511885713599688,3,-1,-10,-6,4,-5,1,0
1511885713599688,-2,-1,3,13,-7,-8,4,-3
1511885713614728,0,1,2,-7,-3,9,2,1
1511885713614728,-1,3,7,-9,-6,-1,-10,-1
1511885713620744,-1,-7,-29,9,27,9,-1,-1
1511885713620744,-2,0,4,-5,-20,-6,4,-3
1511885713636934,-1,-2,-17,-10,-18,-12,0,0
1511885713636934,-2,-1,10,3,-20,-7,0,0
1511885713636934,1,3,6,-5,9,5,-1,-1
1511885713636934,-2,-2,-5,3,17,-4,-7,-1
1511885713659278,-2,1,4,-2,-16,-7,-2,-2
1511885713659278,-3,-2,-8,-5,-6,13,2,-1
1511885713660257,-2,-1,6,2,-5,-1,-3,-1
1511885713660257,-1,0,1,-3,6,-5,2,3
1511885713675138,0,0,3,-3,1,-18,-1,-1
1511885713675138,1,-4,-8,2,16,11,1,-1
1511885713681167,1,2,6,6,-2,0,2,4
1511885713681167,-1,0,-2,-4,15,18,5,0
1511885713696308,-1,-1,0,-1,-6,-22,-13,0
1511885713696308,1,0,-2,4,-9,6,4,-1
1511885713697306,0,0,6,1,15,0,-2,-1
1511885713697306,-3,-1,-3,-7,-16,-2,3,-2
1511885713719469,-2,-1,-2,5,20,25,-2,0
1511885713719469,0,-1,-2,6,10,21,0,1
1511885713719469,1,-3,1,-5,-1,8,0,0
1511885713719469,3,3,2,5,2,2,-4,1
1511885713734537,1,0,1,4,19,5,4,-1
1511885713734537,4,-1,-2,2,21,13,-2,-1
1511885713740540,0,2,-2,-5,-9,9,2,-1
1511885713740540,0,-1,-1,2,3,10,-5,-2
1511885713763486,1,-3,1,2,-9,-30,-3,-2
1511885713763486,-2,0,-2,-5,-9,-1,2,-2
1511885713764485,-2,-1,5,2,-2,-4,-6,-1
1511885713764485,1,1,-6,-9,-2,0,-2,1
1511885713778622,-2,-2,4,-1,-25,-4,5,2
1511885713778622,-1,0,-1,2,26,-10,-5,-2
1511885713779616,0,2,3,-5,-7,9,-2,-3
1511885713779616,0,-2,4,2,1,15,0,0
1511885713794658,0,-2,-6,10,-2,1,1,-2
1511885713794658,-1,0,-1,-4,-2,18,3,-1
1511885713800811,0,2,2,3,-8,-5,-2,1
1511885713800811,-2,-2,-2,-7,8,7,2,0
1511885713815846,0,-2,-12,-14,0,6,0,1
1511885713815846,-2,-2,2,6,-14,-4,-3,-1
1511885713823857,-2,-1,1,1,11,-2,1,-2
1511885713823857,-1,-4,-4,-7,-23,-10,0,1
1511885713838863,2,2,5,10,2,-2,1,0
1511885713838863,-3,2,5,2,-11,-13,0,0
1511885713839865,-2,-2,-6,-1,-1,-13,0,0
1511885713839865,-1,-1,0,2,11,-1,0,-1
1511885713854905,-1,-1,2,-2,0,19,4,-1
1511885713854905,0,-1,-5,-9,-15,-20,1,0
1511885713860928,-1,-3,-5,-1,12,-14,0,0
1511885713860928,2,1,4,7,12,-1,-2,0
1511885713876003,0,0,0,-6,12,8,-1,2
1511885713876003,0,0,0,6,3,-2,0,-1
1511885713882981,-2,1,1,1,3,7,2,0
1511885713882981,-2,0,4,-2,0,-2,-3,0
1511885713899118,-2,-2,-16,-11,-2,-11,-2,-2
1511885713899118,-2,-2,5,13,-20,-23,-3,1
1511885713900142,0,-1,-1,1,-4,-4,2,0
1511885713900142,1,2,0,-2,1,4,2,-1
1511885713915063,-1,1,4,-4,2,6,-1,-2
1511885713915063,0,0,-3,-8,-15,-9,-1,0
1511885713921080,0,-2,-2,1,-4,4,0,0
1511885713921080,-2,-1,-2,2,3,-2,1,-1
1511885713936293,1,0,5,1,5,20,3,0
1511885713936293,-2,-2,-9,-5,40,4,-4,0
1511885713943142,-2,1,2,1,-51,-20,2,-1
1511885713943142,0,-1,-4,0,-3,-9,-1,0
1511885713959291,-1,-2,0,2,1,-6,0,-1
1511885713959291,-1,-2,1,-5,13,8,-2,0
1511885713960189,1,0,-2,-3,15,22,1,-1
1511885713960189,-2,-1,-1,2,0,13,0,-2
1511885713975243,1,1,4,1,-5,-11,1,1
1511885713975243,1,0,-7,3,-4,-1,0,-1
1511885713981245,0,-2,1,-5,-1,-9,-4,1
1511885713981245,1,1,-1,3,-1,5,-1,0
1511885713996284,-1,0,2,-1,-1,-10,-3,-2
1511885713996284,0,1,5,-2,-3,1,-1,-2
1511885714003337,-2,-2,-6,2,3,18,-1,0
1511885714003337,2,-1,1,0,2,4,1,0
1511885714019371,-2,0,8,3,-5,-6,-1,-1
1511885714019371,-1,-2,-5,-8,-1,4,1,-1
1511885714019371,-2,0,4,12,1,0,-1,-1
1511885714019371,-2,-2,-5,-13,-10,-26,-4,0
1511885714034412,-1,-2,-6,-1,-2,8,-2,1
1511885714034412,-1,1,1,3,-7,-3,0,-2
1511885714040401,0,1,4,3,5,3,-1,-1
1511885714040401,-1,-1,2,2,-2,-2,-3,-1
1511885714055439,0,-2,-2,-8,-3,-5,-3,-1
1511885714055439,-3,-1,-4,-1,1,-7,2,0
1511885714063463,0,-1,0,0,1,-1,-1,-1
1511885714063463,-2,0,2,1,7,-4,1,-2
1511885714079502,-1,-1,-3,-2,-7,13,2,0
1511885714079502,0,3,1,-7,-7,4,1,-2
1511885714079502,-2,-2,3,-1,-1,-7,-3,-1
1511885714079502,-1,-1,-6,22,7,0,2,1
1511885714094546,0,1,0,1,-1,0,0,-1
1511885714094546,0,-2,0,-8,7,-4,2,0
1511885714100599,1,1,-4,0,-11,-12,-3,-1
1511885714100599,-2,-4,1,-7,-12,-20,-6,-1
1511885714115600,1,-2,-6,-1,4,-6,0,0
1511885714115600,-1,-2,6,8,-3,1,1,0
1511885714123619,1,0,1,-10,-7,0,1,1
1511885714123619,1,0,-4,-4,-1,4,0,0
1511885714138660,-2,-1,-3,2,1,-6,1,0
1511885714138660,1,-1,-2,-2,-1,1,-3,0
1511885714139661,-1,0,0,0,7,12,1,-3
1511885714139661,-2,0,-1,0,2,2,1,0
1511885714154701,-2,0,0,-6,-29,-34,-2,-2
1511885714154701,-1,-1,-3,1,-2,6,-1,2
1511885714160718,-1,-2,-1,-1,3,-13,-3,-2
1511885714160718,0,0,0,-2,-11,3,1,-2
1511885714175874,0,2,7,6,8,-1,0,0
1511885714175874,-1,1,-3,-9,-6,-3,-1,-2
1511885714182778,-1,-4,-9,8,-1,-6,-2,0
1511885714182778,-1,-2,-3,-10,6,6,-1,-2
1511885714198821,-2,-2,3,7,8,9,0,-1
1511885714198821,0,-1,1,6,-4,8,3,0
1511885714199821,1,-2,-1,-6,17,3,-3,-2
1511885714199821,0,1,0,-3,0,9,1,1
1511885714214861,0,-1,-1,0,-16,3,0,0
1511885714214861,-1,-1,-10,-2,5,2,-1,-1
1511885714220891,0,1,4,1,19,0,0,0
1511885714220891,-2,-2,-3,0,-11,-29,-4,-3
1511885714236096,0,2,3,-3,0,3,-1,1
1511885714236096,1,-2,3,-3,3,-7,-1,-2
1511885714243036,-1,-1,-5,2,-9,0,1,1
1511885714243036,-1,-2,0,2,2,2,1,0
1511885714258981,2,2,-2,-5,10,4,-1,0
1511885714258981,-1,-2,-3,2,-1,-6,-1,-1
1511885714259981,-1,0,0,-7,1,1,0,-1
1511885714259981,0,-1,-6,-3,-9,-4,2,0
1511885714275021,-1,-4,-1,3,7,6,-1,0
1511885714275021,-1,0,3,0,5,1,-2,0
1511885714281040,-1,1,7,-1,-9,-5,1,-1
1511885714281040,1,-1,-2,-2,5,7,1,0
1511885714296080,0,0,-3,-3,4,0,-1,-1
1511885714296080,-1,1,0,0,-3,-2,-1,0
1511885714303178,-1,-3,-3,-7,-3,0,-1,-1
1511885714303178,-1,2,-1,1,7,14,-1,0
1511885714319141,-1,0,-1,2,-5,-13,-1,-2
1511885714319141,-1,-2,-1,1,0,-1,-1,-2
1511885714320145,-1,-1,-4,-1,12,-4,-1,0
1511885714320145,0,-1,2,3,5,13,3,0
1511885714335353,0,-1,4,0,-12,-23,-6,0
1511885714335353,-3,-1,-6,0,-5,-11,0,0
1511885714341322,-1,1,-1,-7,3,-4,-3,-2
1511885714341322,-1,2,0,10,3,-2,-2,0
1511885714356334,0,-1,1,-1,13,8,2,-2
1511885714356334,1,1,0,-2,-22,-7,-3,-1
1511885714363644,0,-2,-1,2,-3,-4,-1,0
1511885714363644,0,1,0,6,8,1,-1,0
1511885714378588,-1,-1,-2,-5,-7,-6,0,0
1511885714378588,-1,-1,3,-6,2,7,-1,-1
1511885714379513,-1,0,-6,6,-10,-25,0,0
1511885714379513,-1,-1,2,-5,-13,-2,-3,-1
1511885714394553,-2,-2,-1,3,5,-2,2,0
1511885714394553,1,-1,-2,-5,2,-8,-2,-1
1511885714400571,0,0,0,-3,-9,6,-2,-1
1511885714400571,-2,-2,-1,-3,11,7,-1,-2
1511885714415608,0,-1,-5,-3,-3,-1,-3,-1
1511885714415608,-3,-2,10,6,10,5,0,-1
1511885714423633,-1,-1,-10,-6,-2,10,1,0
1511885714423633,0,-1,6,14,2,-3,-1,1
1511885714438671,-1,2,-3,-13,10,12,3,2
1511885714438671,1,1,-2,2,-14,-1,-2,1
1511885714439673,-1,-2,0,-5,-33,-1,-2,-1
1511885714439673,-2,-1,-1,-7,-8,-15,-1,-1
1511885714454713,-1,-1,-4,-2,4,-2,-1,-1
1511885714454713,-1,-1,-1,0,19,16,0,-1
1511885714460768,-1,1,4,7,-2,14,2,-1
1511885714460768,0,0,-7,-9,1,-1,3,-2
1511885714475991,0,-1,1,1,-3,2,-1,0
1511885714475991,-1,0,-2,1,3,1,0,0
1511885714482829,0,0,-2,0,8,-2,-2,0
1511885714482829,-1,0,-1,-10,-7,-7,-3,-3
1511885714498872,-2,-2,0,10,11,16,-2,0
1511885714498872,-1,1,5,-4,-12,-1,0,-1
1511885714499872,0,-2,-5,8,9,-4,1,0
1511885714499872,-2,0,0,-10,-8,-3,1,1
1511885714514912,1,0,3,3,0,3,2,1
1511885714514912,0,-1,-3,-1,-2,1,-3,-1
1511885714520928,-1,0,3,-6,-2,-5,-1,-1
1511885714520928,0,0,-2,-22,9,4,4,1
1511885714536151,0,1,3,15,-17,1,1,-2
1511885714536151,0,-1,-7,-3,0,-7,-2,-1
1511885714543155,0,2,2,1,4,9,1,-1
1511885714543155,2,1,0,-1,0,0,-2,-1
1511885714559110,0,-4,-3,-6,7,-4,-1,-3
1511885714559110,0,2,-2,3,-2,8,5,2
1511885714560134,-1,-3,0,-2,2,3,0,0
1511885714560134,-2,-2,-4,4,9,5,-1,0
1511885714575073,-1,1,-4,-7,-12,-8,-3,-1
1511885714575073,-1,-2,0,6,3,-3,-2,-1
1511885714581140,-2,-1,-6,-9,5,0,-3,-1
1511885714581140,-1,0,4,12,-21,-7,1,-1
1511885714596145,-1,0,-2,0,3,-4,1,1
1511885714596145,-2,-2,-5,0,-2,-6,0,-1
1511885714603259,0,-2,3,-7,1,19,1,0
1511885714603259,0,-5,-1,12,5,-5,-2,-2
1511885714619307,1,0,-2,-8,-1,-1,0,0
1511885714619307,0,0,0,-3,4,-4,-2,-2
1511885714620295,-2,1,-3,0,1,-4,-1,-1
1511885714620295,-3,-1,-3,-5,-4,2,-2,0
1511885714635260,-2,-1,3,0,2,-5,1,-2
1511885714635260,0,-1,-2,-1,14,9,-1,1
1511885714641302,1,0,3,10,-17,-11,-1,1
1511885714641302,-1,-1,-1,-5,6,11,1,-1
1511885714655679,-1,-1,-6,-1,-3,1,-1,1
1511885714655679,-1,1,2,-1,-5,-5,-1,-1
1511885714663668,0,1,6,-5,-3,-13,1,-3
1511885714663668,0,0,-6,1,1,-5,-2,-1
1511885714678707,0,-1,0,11,14,3,2,1
1511885714678707,1,-2,-2,-10,11,-6,-1,0
1511885714679707,-2,0,-3,0,-30,1,1,-1
1511885714679707,0,0,2,6,0,-9,0,-2
1511885714694752,0,-1,-1,-10,1,2,-1,-3
1511885714694752,-2,0,2,9,-2,-7,0,-1
1511885714700895,-2,-3,-7,-3,4,-10,-3,0
1511885714700895,0,0,5,-1,0,-4,-1,1
1511885714715806,-1,0,-4,0,5,25,2,1
1511885714715806,-3,-3,2,-5,-26,-3,-3,1
1511885714722825,0,0,-1,0,23,11,0,0
1511885714722825,-1,-1,8,4,-7,0,1,-2
1511885714737865,0,-4,-9,-2,6,7,0,-2
1511885714737865,0,1,0,6,-13,-5,1,-1
1511885714745887,-2,-1,-1,1,33,3,-1,-2
1511885714745887,0,1,-1,1,-14,-2,-1,-1
1511885714754907,-1,-1,-1,0,-1,-16,-3,-2
1511885714754907,0,0,-3,-4,12,-4,-3,0
1511885714761051,-2,-3,0,-11,-10,-7,-2,-1
1511885714761051,-1,-1,0,1,-3,6,-1,-1
1511885714777093,-1,1,4,10,-22,-12,-1,-2
1511885714777093,1,-1,-1,0,4,3,0,-1
1511885714783110,0,1,4,4,1,-2,-3,0
1511885714783110,0,0,-5,-14,23,10,2,1
1511885714798153,-1,-1,2,9,-34,-10,-2,-2
1511885714798153,-4,-1,-2,-3,4,-2,-1,-2
1511885714806171,0,-1,-1,1,-5,-20,-1,-2
1511885714806171,-2,0,4,2,-1,3,0,-2
1511885714815242,-1,-1,-8,-4,0,2,-4,-1
1511885714815242,0,2,4,2,-5,-14,4,0
1511885714821212,-3,-3,-7,1,1,-4,1,2
1511885714821212,-2,-1,-2,-2,-6,-10,1,-2
1511885714836251,-1,0,8,-9,6,-5,0,-1
1511885714836251,0,-4,-7,-12,-29,1,-2,-1
1511885714843312,0,-1,3,2,66,16,-2,-1
1511885714843312,1,0,-4,-2,-9,-11,-2,-1
1511885714858313,-1,0,4,15,-4,1,1,2
1511885714858313,-1,-2,0,-8,16,5,-1,-2
1511885714865331,-1,0,4,7,-21,-5,0,-1
1511885714865331,0,0,-2,5,3,-4,-1,-1
1511885714874460,-2,-1,0,-15,18,-2,-1,0
1511885714874460,-1,-1,1,11,-15,-11,-2,0
1511885714880372,-3,-2,-5,2,-25,1,0,0
1511885714880372,0,-1,-2,-5,-1,2,-1,-1
1511885714895410,1,0,-2,-9,2,2,0,0
1511885714895410,-3,-1,-1,2,3,3,-1,0
1511885714903551,-1,-1,2,-7,-12,-6,-1,-1
1511885714903551,-2,-2,-1,4,-5,-2,-1,-1
1511885714918524,-1,1,7,7,9,-1,-1,1
1511885714918524,1,-3,-5,-7,3,-7,2,-1
1511885714925610,0,-3,-9,-1,-11,-2,-2,0
1511885714925610,-1,-1,-3,-11,-9,-24,-5,0
1511885714941642,-1,-1,-4,-3,-2,-1,-2,-1
1511885714941642,0,1,-1,2,-3,3,-2,0
1511885714942537,-1,1,5,2,6,-2,0,1
1511885714942537,0,-1,5,-4,-5,5,1,-1
1511885714955568,-2,0,-10,-4,-7,-3,-1,-2
1511885714955568,-2,-2,4,2,7,2,0,0
1511885714963772,0,-1,-7,-8,-2,1,-1,-3
1511885714963772,2,1,1,2,6,7,0,1
1511885714977752,-2,-2,6,-4,-17,-13,-1,0
1511885714977752,-1,-1,-5,9,-3,1,3,-1
1511885714985949,-1,-2,0,-2,7,5,0,-1
1511885714985949,-1,2,1,3,-2,-3,-2,0
1511885715001885,-1,-2,-2,-7,9,5,1,-1
1511885715001885,-1,-2,-3,-6,-6,2,-2,1
1511885715002822,-1,0,2,2,-4,-5,-2,-1
1511885715002822,-2,-3,-5,-2,-4,-5,1,-1
1511885715015853,-2,-2,5,0,4,-4,1,-3
1511885715015853,2,2,-4,-3,-2,0,-1,1
1511885715022910,0,-1,-4,2,-3,1,1,1
1511885715022910,-2,-2,-1,-1,5,6,-2,0
1511885715038019,0,0,-2,-6,-7,-1,-1,-1
1511885715038019,-2,-1,4,15,8,1,0,-1
1511885715046071,1,1,1,-9,-13,-4,1,2
1511885715046071,-1,0,-1,1,2,-2,-2,0
1511885715061111,-1,-3,-4,-5,0,0,0,0
1511885715061111,-1,-2,-3,-7,-3,-2,-2,-2
1511885715062109,0,0,1,-1,-4,-5,0,-2
1511885715062109,-1,-2,-2,-5,0,-5,-1,-1
1511885715076300,-1,1,0,10,5,3,0,0
1511885715076300,-2,-3,-2,-9,1,-2,1,0
1511885715083297,1,-3,5,2,-10,-3,-1,-2
1511885715083297,0,0,-4,-1,2,2,1,-1
1511885715098337,-1,1,-1,-1,-3,0,-3,-2
1511885715098337,2,0,-3,0,2,2,-2,1
1511885715105392,-1,0,-4,-4,2,2,0,-2
1511885715105392,-1,-2,3,8,2,2,1,0
1511885715121590,0,-2,-3,0,3,0,2,0
1511885715121590,-1,-1,0,-6,-1,0,-1,-1
1511885715122428,2,0,-1,-1,1,2,-1,1
1511885715122428,0,-1,0,-2,-2,2,0,-1
1511885715135436,-2,-1,-1,-2,0,-3,-2,1
1511885715135436,0,-2,-1,-3,1,-2,-1,0
1511885715143573,0,-1,2,6,0,1,1,-1
1511885715143573,-2,2,-3,-2,0,-3,0,0
1511885715158541,0,-1,-2,1,-2,-1,0,0
1511885715158541,0,-1,0,-5,-3,-5,1,-3
1511885715165517,-1,0,1,8,0,1,-1,-1
1511885715165517,-1,-1,-1,-1,-3,-5,0,-3
1511885715181559,-2,0,2,-4,-1,0,0,0
1511885715181559,0,-1,1,3,1,2,1,0
1511885715182563,-2,1,-2,-5,-2,-5,-3,0
1511885715182563,-1,0,-1,-3,-2,-1,-1,0
1511885715195634,-2,-3,-1,-4,-1,-4,-1,-2
1511885715195634,0,1,1,5,1,0,1,0
1511885715203648,-1,-3,-3,-15,-6,-3,0,0
1511885715203648,0,2,0,13,7,4,0,1
1511885715218692,-2,-1,0,11,1,-5,-2,0
1511885715218692,-3,1,-1,-7,-3,-1,0,-3
1511885715225676,-1,-2,-1,-1,-1,-3,-1,-1
1511885715225676,0,-2,-2,-4,-2,4,-2,-1
1511885715241917,0,0,-2,-6,1,-7,1,0
1511885715241917,0,1,4,5,-1,-1,-2,-1
1511885715242759,-2,0,-2,-3,-4,-1,0,-1
1511885715242759,0,-1,0,-2,-3,-3,0,0
1511885715255753,0,0,-1,3,1,5,0,-2
1511885715255753,-1,-2,-1,0,-2,0,-2,-2
1511885715262774,0,-1,1,-3,-1,2,-1,-2
1511885715262774,-1,-1,-3,0,0,-6,1,-2
1511885715278014,-1,0,0,2,-4,-1,1,-1
1511885715278014,-2,-1,-2,-7,-1,-1,-1,1
1511885715286031,-1,1,1,7,-2,0,0,0
1511885715286031,-1,-1,1,4,0,-2,-1,-1
1511885715301262,-2,-2,-1,-6,-1,1,-1,-1
1511885715301262,-1,-3,-2,-5,0,-1,-1,0
1511885715302074,0,1,0,3,-2,-1,-1,-1
1511885715302074,-1,1,-1,-6,-7,-18,-1,-2
1511885715317114,0,0,1,-4,3,4,0,0
1511885715317114,-2,0,0,0,2,-5,0,1
1511885715323132,-2,-1,-5,-2,-2,-2,0,-1
1511885715323132,1,0,-1,-6,-10,-3,-2,0
1511885715338173,0,-1,-3,-7,3,-1,-3,-2
1511885715338173,1,1,3,3,-4,7,1,-1
1511885715346195,-1,-3,-2,-10,-43,-39,-7,-2
1511885715346195,-3,-1,-1,2,8,6,-5,-1
1511885715361356,1,1,3,1,-7,-1,2,1
1511885715361356,0,-2,-2,-4,-6,-9,12,-2
1511885715362360,-1,1,-1,5,15,3,-28,1
1511885715362360,-2,-4,0,3,0,3,-1,-3
1511885715377399,-1,0,-1,0,-7,-12,0,-1
1511885715377399,0,1,0,5,7,5,-8,-1
1511885715383458,0,-3,-1,-6,5,6,10,1
1511885715383458,-1,-1,-2,-1,1,-2,4,-1
1511885715398498,-1,-4,-2,3,5,5,0,0
1511885715398498,-4,-1,-2,-4,-3,-3,0,-1
1511885715405497,5,0,3,2,12,7,4,0
1511885715405497,1,0,0,3,-4,-6,-3,1
1511885715421676,1,1,1,4,1,7,5,0
1511885715421676,-2,-3,-5,-3,-13,-13,-5,0
1511885715422547,-3,0,2,1,0,4,2,-3
1511885715422547,0,0,-1,6,12,12,4,1
1511885715437559,0,-1,-3,-11,-7,-10,-11,-4
1511885715437559,2,1,3,7,8,-2,0,0
1511885715443575,-2,0,-2,1,-3,14,4,1
1511885715443575,1,-1,-1,-8,-1,-5,3,0
1511885715458742,-3,-1,-2,2,-5,-4,0,-1
1511885715458742,-1,-2,-1,-1,-5,-3,-2,1
1511885715465875,-2,-1,-1,1,0,-6,5,0
1511885715465875,-1,-2,-3,-5,-11,-2,-5,-2
1511885715481808,0,0,1,4,9,13,0,1
1511885715481808,-1,-1,-2,-4,-31,-15,2,-2
1511885715481808,-1,-3,-4,-2,2,-2,1,-1
1511885715481808,0,1,-1,-1,3,2,1,-1
1511885715496847,1,1,1,-3,-3,-14,-4,-2
1511885715496847,1,1,3,-2,2,7,-1,-1
1511885715502863,-2,-2,-6,-9,19,4,2,-1
1511885715502863,-2,-3,-1,5,-21,-7,-3,0
1511885715518910,0,2,3,1,7,2,2,-1
1511885715518910,0,0,-3,-4,7,-1,2,1
1511885715526044,0,2,5,6,24,22,2,0
1511885715526044,0,1,5,-7,1,5,-1,-1
1511885715541972,-2,-4,-9,3,9,2,-1,-1
1511885715541972,2,3,18,-1,13,10,0,0
1511885715541972,-6,-10,-27,29,-2,-8,-2,-3
1511885715541972,-1,0,2,-21,-7,-4,0,0
1511885715557008,1,0,-1,15,-6,-3,-1,2
1511885715557008,-1,-2,-1,-17,6,4,0,-1
1511885715563043,0,2,9,-10,-14,-22,-1,-4
1511885715563043,2,3,-1,11,-9,-1,-3,-1
1511885715578102,-3,-3,1,-10,-4,-9,-1,-1
1511885715578102,1,2,-4,6,2,0,0,1
1511885715586165,-2,0,-6,-3,4,7,2,1
1511885715586165,1,-1,-2,-1,-8,-16,-1,0
1511885715601313,1,1,5,-9,0,0,1,-1
1511885715601313,-3,-3,-3,6,-9,-10,-1,-2
1511885715602213,0,-2,7,-5,5,15,0,0
1511885715602213,-1,-2,-4,-4,7,4,-1,-1
1511885715617287,-2,-1,5,9,-6,-7,-3,0
1511885715617287,1,-1,-3,9,6,4,-2,-1
1511885715623287,-3,-3,-11,-8,-5,-9,-4,0
1511885715623287,-4,-7,-3,-6,9,0,-1,-2
1511885715638292,3,4,2,-5,17,20,3,2
1511885715638292,-2,4,42,33,-3,-5,-2,-1
1511885715646314,-1,-5,-42,-10,-6,-3,-2,-1
1511885715646314,-2,-2,-5,-11,-12,-21,1,0
1511885715660393,-2,-3,-2,-7,25,13,-1,-1
