timestamp,emg1,emg2,emg3,emg4,emg5,emg6,emg7,emg8
1511885796250658,-1,-1,-2,0,0,3,-3,-1
1511885796250658,-1,-1,0,0,0,-1,-1,-2
1511885796251626,-1,1,1,0,-1,0,-1,-2
1511885796251626,0,0,1,-1,-1,1,1,0
1511885796252632,-1,-1,0,-1,-1,-3,0,-1
1511885796252632,0,-1,-1,-2,0,-2,0,0
1511885796256644,1,-1,-1,-1,-1,-3,1,3
1511885796256644,-2,-1,0,0,-2,-1,-1,-3
1511885796262692,-2,1,0,-1,-1,-2,0,-2
1511885796262692,0,0,0,0,-1,-3,0,0
1511885796271679,-2,0,-1,0,2,-1,-1,-1
1511885796271679,0,-2,-2,-1,0,-2,-1,-1
1511885796278696,-1,-4,-3,-1,-1,0,-1,-2
1511885796278696,-1,-1,1,0,1,-2,0,-1
1511885796293759,0,-1,-2,-1,-1,2,1,-3
1511885796293759,1,0,-1,-1,0,-2,-1,-4
1511885796302787,0,1,0,1,-1,1,-2,1
1511885796302787,-1,-3,-1,0,-1,0,-1,-1
1511885796307950,-1,-1,-1,-1,-1,-4,0,-1
1511885796307950,-1,-1,1,1,-1,-1,1,-2
1511885796322579,0,0,1,-3,-3,2,0,0
1511885796322579,-2,0,-2,1,0,1,-1,0
1511885796330778,-3,0,1,-1,0,-3,0,-2
1511885796330778,-2,-1,-3,-2,0,-3,-1,0
1511885796371385,0,0,0,-1,-2,-2,1,-2
1511885796371385,1,0,-1,0,-1,-2,0,0
1511885796371385,-2,-2,-2,-2,0,1,0,-1
1511885796371385,-1,1,9,3,0,1,-1,0
1511885796372391,0,-1,-8,-2,-2,2,-1,-2
1511885796372391,0,-2,-9,-9,1,0,-1,0
1511885796375437,1,-1,2,2,-1,-5,-1,0
1511885796375437,-1,3,21,7,0,-4,0,-1
1511885796382420,-2,0,-13,-7,-2,2,-1,0
1511885796382420,-2,-9,-26,4,0,-2,-1,-1
1511885796389441,0,0,6,-4,-1,-3,0,-2
1511885796389441,-2,-3,-1,-1,-3,-1,-1,-1
1511885796398464,-3,-2,6,-2,0,-3,0,-1
1511885796398464,-1,2,9,-1,-1,3,-2,0
1511885796412498,-1,-2,-8,-1,-1,1,-1,-2
1511885796412498,2,1,5,-2,-1,2,-1,-1
1511885796419520,2,0,1,1,2,3,-3,1
1511885796419520,0,-1,-2,-1,-1,0,-1,0
1511885796427617,-1,0,4,1,2,-2,-1,0
1511885796427617,-2,-2,-9,-4,-2,0,-2,0
1511885796442758,-3,-1,-1,1,0,2,0,0
1511885796442758,-1,-1,3,2,-2,-1,-2,-3
1511885796449600,1,0,-2,-1,-1,1,-2,-2
1511885796449600,-1,-1,-16,-7,1,2,0,1
1511885796458652,2,3,35,13,1,-2,2,1
1511885796458652,0,1,-5,10,-1,2,0,-1
1511885796472831,-4,-5,-41,-17,1,-12,2,-3
1511885796472831,0,-2,1,-6,-2,-4,-4,-2
1511885796479677,0,5,38,-5,-2,2,-3,-1
1511885796479677,-2,-6,-19,7,2,-2,0,0
1511885796487776,0,0,17,6,0,-2,-1,1
1511885796487776,-1,-1,-7,-7,-1,-2,0,-1
1511885796501980,0,3,16,13,3,5,3,0
1511885796501980,-1,1,4,0,-6,-4,0,-2
1511885796509996,0,0,-1,-1,-21,1,1,1
1511885796509996,0,-2,1,3,-3,-8,1,-1
1511885796518964,2,0,-5,-7,-12,-2,-1,-1
1511885796518964,2,3,12,-4,23,2,-2,2
1511885796533127,-1,-1,13,4,-17,-3,-2,-2
1511885796533127,-2,-5,-36,2,30,6,4,-1
1511885796540142,-4,-7,-12,1,2,-2,-2,-2
1511885796540142,-2,-3,0,-12,-16,-10,-1,1
1511885796547240,1,2,28,11,2,6,-3,0
1511885796547240,2,5,5,-10,-1,4,0,2
1511885796562205,-1,1,4,-2,-3,1,-1,-3
1511885796562205,-4,-6,-48,-5,7,-2,0,-3
1511885796570245,0,4,34,2,1,-9,2,0
1511885796570245,-3,-2,-1,-3,14,8,-2,-2
1511885796579255,-1,-11,-39,-10,-4,-8,-10,0
1511885796579255,2,1,5,-10,-9,3,14,3
1511885796593473,-1,-4,-27,-5,-6,-6,-3,-2
1511885796593473,4,6,14,-5,-3,-9,-5,-1
1511885796600306,-5,-2,15,8,-26,6,-3,-4
1511885796600306,-3,0,2,0,21,-6,0,-2
1511885796607471,2,-3,-11,2,3,16,11,2
1511885796607471,-5,-7,11,-1,-14,-12,-3,-1
1511885796622447,5,0,-20,-6,13,-10,0,1
1511885796622447,0,3,22,3,-10,-5,-7,-3
1511885796630386,-5,1,-9,-2,6,-12,-6,-2
1511885796630386,11,31,31,6,-8,20,14,3
1511885796638542,1,-15,-15,-5,10,4,13,2
1511885796638542,-15,-8,17,6,-25,1,0,-3
1511885796653488,-2,-25,-69,-11,33,-14,-7,-6
1511885796653488,-3,1,14,10,-1,5,-4,0
1511885796660507,1,8,0,3,3,-5,-7,0
1511885796660507,2,4,-1,-14,-7,6,-1,1
1511885796667672,2,11,24,10,1,12,9,1
1511885796667672,1,-6,-5,2,-12,-12,-10,-2
1511885796682855,-2,0,-4,-5,-6,1,9,-1
1511885796682855,0,-4,12,6,6,-7,-2,-1
1511885796689956,-1,3,-6,-6,-6,5,-6,0
1511885796689956,0,-8,-20,-5,2,-6,-9,-3
1511885796698877,1,3,11,2,-5,-3,12,2
1511885796698877,-2,3,2,2,2,2,-3,0
1511885796721034,0,4,5,-2,2,-10,2,-1
1511885796721034,-4,-6,-3,-3,-7,-10,2,-2
1511885796723104,-5,-6,4,-3,-5,7,0,-2
1511885796723104,5,7,-14,10,35,0,7,-1
1511885796736059,4,17,8,-7,-4,1,-7,0
1511885796736059,-13,-33,-1,9,-1,7,-4,-2
1511885796742343,1,-2,-7,0,6,-11,1,0
1511885796742343,-4,0,10,-5,-9,-10,-10,-3
1511885796750341,1,12,20,2,-7,9,2,0
1511885796750341,2,-3,-6,4,2,-11,-1,-1
1511885796758372,-2,-11,-42,-14,6,4,-1,-1
1511885796758372,4,2,11,-1,-12,-6,-4,0
1511885796773391,1,1,5,7,12,1,-3,5
1511885796773391,1,8,9,-2,-7,9,2,-2
1511885796780408,-1,3,10,4,6,-4,10,1
1511885796780408,-1,-1,-3,-3,-3,3,-10,-3
1511885796795482,-1,2,4,4,-4,2,2,0
1511885796795482,4,11,-5,-2,2,-5,0,1
1511885796802519,-10,-7,-16,-8,-19,-16,-8,-4
1511885796802519,-6,-13,10,-8,22,14,-9,-4
1511885796809536,-4,-16,-33,-2,-36,-21,6,-4
1511885796809536,13,5,11,5,21,14,1,6
1511885796818509,2,11,2,-2,4,2,5,1
1511885796818509,4,3,-1,1,-15,1,5,3
1511885796833612,-2,-5,11,-2,-1,-4,-4,-1
1511885796833612,1,4,-7,-2,-5,-4,-4,-3
1511885796839590,-2,5,10,1,-1,-3,-9,-2
1511885796839590,5,0,-13,-2,0,1,-1,2
1511885796855631,-1,0,11,-4,8,0,3,0
1511885796855631,-9,-10,-28,-2,-6,-9,3,-2
1511885796862650,1,3,20,5,9,6,-2,-3
1511885796862650,-3,0,-14,1,-5,-3,4,0
1511885796884726,2,3,7,0,8,5,-1,-1
1511885796884726,-3,-2,-11,-8,-5,-5,1,0
1511885796893733,-3,-4,-6,2,0,-4,-6,-3
1511885796893733,1,2,1,0,0,-4,0,-1
1511885796907940,-1,-4,0,-1,-1,1,-10,0
1511885796907940,-3,-2,8,-1,-3,3,-1,0
1511885796915794,3,2,-5,-1,4,-1,-5,1
1511885796915794,-3,0,0,2,-6,-5,-1,0
1511885796917796,-2,-3,-2,-2,3,1,-5,-3
1511885796917796,-5,-2,4,-2,-5,-4,7,-3
1511885796921973,0,0,3,-5,2,-3,-3,0
1511885796921973,1,-2,-8,-4,-2,6,-1,0
1511885796929989,-2,-7,-19,-10,-2,-2,0,-1
1511885796929989,0,3,7,22,2,-4,1,0
1511885796939014,1,-2,-11,-4,-2,-1,-2,0
1511885796939014,-1,-1,22,0,0,-4,3,-1
1511885796953053,-2,-1,1,5,1,-7,1,-2
1511885796953053,1,0,-10,-8,1,10,-2,-2
1511885796960259,1,-1,6,8,-1,-3,-3,0
1511885796960259,-1,-2,0,0,-4,0,-1,0
1511885796975109,-2,-1,-3,-2,1,-1,0,1
1511885796975109,-3,0,5,-3,-1,-2,1,0
1511885796982131,-3,-4,-6,5,2,-2,-3,-1
1511885796982131,1,1,-3,-5,-3,-4,0,-1
1511885796990237,0,-2,3,1,-1,-1,0,0
1511885796990237,0,0,5,-4,-16,-4,-6,0
1511885797005426,-3,-2,-3,1,22,7,1,0
1511885797005426,0,0,0,1,-4,1,3,-3
1511885797013310,0,-1,-6,0,1,-2,-2,1
1511885797013310,0,1,14,-5,-30,-5,-1,-1
1511885797019329,2,-1,-20,-6,15,-4,0,0
1511885797019329,0,-1,8,4,-1,1,1,0
1511885797035369,-3,1,5,1,2,0,-1,-1
1511885797035369,0,0,-8,-15,-3,1,0,-2
1511885797042579,2,4,10,6,-15,-4,-3,1
1511885797042579,-3,-4,-10,9,4,-2,-5,0
1511885797050410,-2,-2,0,-3,-1,1,1,-2
1511885797050410,-1,-1,-8,-8,8,-6,1,-1
1511885797064448,-3,0,7,-5,-6,-2,-2,0
1511885797064448,1,0,-2,6,-2,-3,0,-1
1511885797073471,1,-1,0,3,-4,1,-7,0
1511885797073471,1,-1,-3,-1,10,0,5,0
1511885797079490,1,-1,1,-4,-2,-2,1,-1
1511885797079490,0,-2,-3,-9,-4,-2,0,-3
1511885797095537,-2,-1,2,7,3,0,3,-1
1511885797095537,-1,-1,-2,2,5,-4,-2,0
1511885797102586,2,1,3,-1,-6,1,-1,-1
1511885797102586,0,0,3,-4,2,1,16,4
1511885797109599,0,-4,-3,1,1,0,-3,-1
1511885797109599,-1,-2,-6,0,5,-1,-3,-1
1511885797124606,-2,-1,2,-1,-6,-4,1,-1
1511885797124606,-3,1,3,4,-1,0,-5,-2
1511885797132627,1,0,3,0,-1,-4,0,-1
1511885797132627,0,-2,-4,2,1,-2,1,0
1511885797139646,-1,-2,0,2,-4,-1,-1,0
1511885797139646,-1,0,2,-4,1,-3,-6,-1
1511885797155693,1,2,0,1,-1,1,2,-1
1511885797155693,-2,-2,-2,-3,0,-3,-4,-1
1511885797162711,0,-1,1,-3,2,5,0,0
1511885797162711,-1,0,-2,0,-5,-3,-3,-2
1511885797169769,-3,-1,-3,-7,-2,-1,1,1
1511885797169769,0,-2,1,13,3,-10,3,-3
1511885797184769,1,1,-5,0,-3,10,-1,0
1511885797184769,-1,1,2,-3,-1,1,-2,-1
1511885797193030,0,1,1,-1,0,1,1,0
1511885797193030,-2,1,-2,-2,0,-8,-4,-2
1511885797199932,-3,0,-1,-5,-5,2,-8,-1
1511885797199932,0,0,-2,0,1,5,25,1
1511885797215976,-1,-2,1,-1,-2,0,-1,0
1511885797215976,1,0,0,2,2,5,8,2
1511885797222029,0,-1,-3,1,-1,-17,-4,-4
1511885797222029,0,-1,0,-4,-3,3,-8,0
1511885797230169,0,-1,0,1,2,1,0,-1
1511885797230169,-2,-2,-3,-2,1,0,1,-1
1511885797245186,-2,-2,-1,1,-1,4,2,0
1511885797245186,-1,1,-3,-1,0,-4,-4,0
1511885797253133,0,-2,0,-2,-3,-1,1,-1
1511885797253133,-3,0,0,1,5,7,-5,-1
1511885797260171,-1,2,1,-1,0,1,2,2
1511885797260171,0,-3,-2,-2,-1,-2,-5,-1
1511885797275208,0,-1,0,4,10,11,2,-1
1511885797275208,0,-1,-1,-3,-2,-4,-4,-1
1511885797282226,0,1,1,-1,-1,0,0,-1
1511885797282226,-1,-1,0,-1,2,-3,-2,0
1511885797290213,1,0,-2,1,0,-1,-1,0
1511885797290213,0,-2,-3,-6,-8,-1,3,-2
1511885797305284,-1,-2,2,-1,-5,-2,5,-1
1511885797305284,-2,2,3,6,15,7,-11,0
1511885797313273,-3,-2,0,-7,-14,-12,-3,-2
1511885797313273,-1,0,-2,3,3,-8,-4,3
1511885797320313,-2,1,-3,-2,-4,-5,-4,0
1511885797320313,0,-1,-1,-1,0,10,11,0
1511885797335333,-2,1,0,-1,-2,-6,-3,-2
1511885797335333,0,-1,-1,-1,1,-6,2,-1
1511885797342390,-1,-2,-1,-3,3,6,2,1
1511885797342390,1,0,-2,0,-4,-10,-5,-1
1511885797358442,0,1,-2,-2,4,-4,0,0
1511885797358442,-2,-1,-1,-3,-14,-9,-5,-2
1511885797364405,-2,-2,-1,0,1,-1,-1,-2
1511885797364405,-2,-2,-2,-10,-4,-10,2,-1
1511885797381453,-2,0,-1,9,-6,-8,-8,-3
1511885797381453,0,0,0,-3,5,2,-2,-4
1511885797382457,1,0,-1,3,-2,-6,-3,4
1511885797382457,-3,-1,-5,-5,-16,-21,-9,-3
1511885797395525,1,-2,-1,-4,2,13,12,-1
1511885797395525,-2,0,-2,-1,-1,0,-6,0
1511885797402740,-1,-2,0,1,6,0,2,-3
1511885797402740,-1,-2,-2,1,3,-14,-6,0
1511885797417582,-1,-2,-1,-4,6,18,4,-1
1511885797417582,2,-2,1,3,0,6,0,0
1511885797424606,0,0,1,-6,-8,-4,9,-2
1511885797424606,0,-1,-1,-1,-27,-27,-12,-2
1511885797441783,0,-1,-2,-2,2,1,-4,-1
1511885797441783,0,-1,1,3,2,2,0,-1
1511885797442650,1,-1,0,2,6,-5,-25,0
1511885797442650,-1,2,1,3,10,25,32,0
1511885797454788,-1,-3,-1,-4,-1,-9,-5,2
1511885797454788,-1,-2,0,-2,-14,-2,9,0
1511885797463705,-2,0,-1,0,2,-8,-1,0
1511885797463705,-2,0,0,1,20,9,1,0
1511885797477849,-2,0,-4,-4,-52,-30,-7,-1
1511885797477849,-1,-1,0,-1,2,-1,-2,2
1511885797484764,1,-1,-1,-1,2,2,18,2
1511885797484764,-2,-1,-2,-6,-13,-30,-28,-4
1511885797500872,-1,-1,0,-2,4,-17,-4,0
1511885797500872,-1,-1,-1,-2,-22,12,24,-2
1511885797502877,0,-3,-1,4,26,28,-8,-1
1511885797502877,2,-1,0,4,16,17,2,3
1511885797514989,-1,1,2,2,12,12,-2,-1
1511885797514989,-1,1,0,0,-8,-22,-13,-1
1511885797523933,-1,-1,-1,-1,-15,8,-1,0
1511885797523933,1,-3,-5,-6,7,8,4,1
1511885797546164,-1,-3,-1,0,2,6,6,2
1511885797546164,-1,3,2,-3,10,4,-27,-2
1511885797547999,0,-2,-2,-3,-20,-27,-6,-4
1511885797547999,1,1,1,2,-13,3,-55,-1
1511885797561104,0,1,0,0,4,-3,29,0
1511885797561104,-3,-2,-3,0,4,-6,-11,-4
1511885797563037,-1,1,-1,-3,2,16,-3,2
1511885797563037,0,0,0,3,6,0,12,0
1511885797575152,-6,-5,-4,-7,-31,-4,-38,-5
1511885797575152,0,-1,0,-1,36,0,10,3
1511885797584093,-1,0,-1,0,-24,-23,-2,-5
1511885797584093,-1,0,0,1,2,34,19,-2
1511885797598133,4,2,1,-2,-33,-9,3,3
1511885797598133,-2,-3,-4,-2,-5,0,-3,-5
1511885797605152,-1,-1,-1,-1,-1,-7,-1,-2
1511885797605152,-3,-3,1,-1,15,21,6,1
1511885797621191,0,1,1,3,16,6,4,1
1511885797621191,1,0,-2,-2,0,-6,-5,2
1511885797623197,-1,-2,-2,-4,7,-26,10,-1
1511885797623197,-2,-2,-1,1,-35,-25,-26,2
1511885797635229,-1,-1,0,-3,47,-14,0,-5
1511885797635229,2,2,3,7,36,16,8,2
1511885797644253,1,3,1,0,-33,20,0,2
1511885797644253,1,-2,-2,-4,2,-18,15,-2
1511885797658290,-2,-2,-2,-2,-6,0,-1,0
1511885797658290,-2,-1,0,-6,0,-8,-5,-1
1511885797666311,0,-1,0,1,18,-6,3,1
1511885797666311,1,2,2,0,-18,-2,2,0
1511885797681353,3,0,-1,1,12,12,-37,2
1511885797681353,-3,-4,-4,-5,-6,-2,36,-2
1511885797683358,-1,-1,0,2,4,14,-10,-2
1511885797683358,0,-3,0,1,8,1,-3,-3
1511885797695422,0,1,1,0,13,28,52,3
1511885797695422,-1,0,0,0,-31,-9,-15,0
1511885797703459,0,-2,-2,-4,-28,-8,-1,-2
1511885797703459,-1,-1,-2,-3,-13,-4,13,2
1511885797718519,3,1,1,3,-6,-4,-5,0
1511885797718519,0,-2,-1,-2,-5,9,-3,1
1511885797724468,-4,-2,-2,2,14,0,14,-1
1511885797724468,0,1,0,1,-9,11,-9,0
1511885797741721,0,0,0,-2,1,-9,14,0
1511885797741721,1,1,-2,1,-15,6,-24,2
1511885797742515,2,0,-2,0,11,2,-16,-1
1511885797742515,-1,-2,1,-2,4,-15,5,-1
1511885797754546,-3,-2,-1,-3,-4,9,1,0
1511885797754546,0,-4,0,7,76,-19,5,-1
1511885797763570,0,3,3,-1,-67,11,5,2
1511885797763570,0,-1,0,1,14,11,2,-2
1511885797778642,-3,-1,-2,-3,-5,-7,3,0
1511885797778642,-2,0,-3,-2,-13,-6,-18,-3
1511885797784626,-3,-2,-1,0,27,-5,-3,-3
1511885797784626,-1,1,-1,0,8,-5,9,-1
1511885797801697,2,2,2,0,-28,0,-11,1
1511885797801697,1,1,0,1,-5,20,8,1
1511885797802680,-3,-2,-4,-2,15,-17,-2,-4
1511885797802680,-2,0,-4,-3,-5,2,2,-1
1511885797814710,-1,-1,1,5,20,-4,-2,-3
1511885797814710,2,1,0,-5,-37,15,4,3
1511885797823731,0,0,-2,1,51,-3,-1,1
1511885797823731,0,1,1,-3,-33,-18,-3,0
1511885797837811,1,-1,-2,-1,0,-1,-4,-1
1511885797837811,-1,-1,0,-3,-12,-13,5,-1
1511885797844826,0,1,-1,-3,-7,9,-5,0
1511885797844826,-2,-4,-1,3,35,6,2,-2
1511885797861834,0,0,-2,-1,3,4,-4,-1
1511885797861834,1,3,2,2,12,-14,-1,-1
1511885797862837,1,-2,0,-2,3,-1,3,2
1511885797862837,-3,-4,-1,-2,-1,2,-1,-1
1511885797874867,-1,-1,0,-3,-9,-9,-8,-2
1511885797874867,-3,0,0,3,-9,-4,1,-1
1511885797884054,2,3,0,1,2,8,10,-1
1511885797884054,0,0,0,-2,-9,0,4,0
1511885797898095,-2,-2,-1,-1,-3,3,5,-2
1511885797898095,0,-4,0,-3,-21,-13,-4,0
1511885797905112,-1,-3,-3,-7,10,1,5,-2
1511885797905112,4,9,4,10,-1,1,0,1
1511885797921190,-2,-7,-6,3,12,7,0,-1
1511885797921190,-3,-5,-5,-5,-29,1,5,-3
1511885797923265,-7,1,-2,0,1,0,-2,0
1511885797923265,1,0,-2,-6,0,11,-2,-1
1511885797935191,-1,2,4,1,12,-8,-4,1
1511885797935191,0,-2,-5,0,9,3,-3,-1
1511885797944212,-2,-2,0,0,-38,-16,-6,-1
1511885797944212,1,1,1,-1,13,13,1,1
1511885797958252,1,3,1,-8,1,5,1,0
1511885797958252,-3,-9,-19,-3,-72,-12,-2,-1
1511885797964265,4,5,0,7,51,7,-3,1
1511885797964265,6,7,4,7,8,-10,1,0
1511885797980311,-10,-12,0,-3,-6,-5,1,-1
1511885797980311,-7,-13,-3,-5,7,13,-1,-3
1511885797987330,3,2,-4,-4,-7,-6,-5,-3
1511885797987330,3,9,7,-4,0,-7,-1,0
1511885797995357,10,-16,-6,9,2,-10,-1,2
1511885797995357,-4,10,0,0,15,2,-3,-2
1511885798003372,-2,-9,-5,-2,-2,4,1,-1
1511885798003372,-10,-7,0,-4,-4,-3,-6,-2
1511885798018413,1,11,2,-4,-22,-4,0,0
1511885798018413,3,-2,8,4,17,1,2,2
1511885798024427,3,7,2,0,0,8,-2,2
1511885798024427,1,-1,4,-9,-7,3,1,1
1511885798039510,-1,0,-14,-1,2,-5,-3,0
1511885798039510,-1,0,9,6,7,-8,-2,-1
1511885798047532,2,4,1,-1,-7,7,-2,0
1511885798047532,-3,-11,-3,3,2,3,1,-2
1511885798062573,-5,-5,2,-3,1,-17,-4,-5
1511885798062573,5,10,-4,-8,-8,-11,-2,0
1511885798063575,-4,-10,-2,1,-5,-4,-1,-1
1511885798063575,-1,-7,-4,2,-2,-5,-2,-1
1511885798078614,5,9,2,4,14,-6,-1,0
1511885798078614,-3,0,-1,-2,-34,8,2,0
1511885798084630,-6,-6,0,-1,49,2,-2,-2
1511885798084630,-1,2,-1,8,3,-6,-2,-2
1511885798099673,-2,-1,0,0,-10,6,-2,-1
1511885798099673,1,4,8,4,6,7,3,2
1511885798107863,0,-3,12,-3,-15,-3,3,2
1511885798107863,-1,-5,-29,-5,-32,-2,2,1
1511885798122735,-2,3,1,-5,34,13,-1,-2
1511885798122735,-5,-6,-6,-1,8,-3,1,-1
1511885798123735,-2,1,8,2,-1,-2,-2,-2
1511885798123735,2,16,8,0,9,4,-1,0
1511885798138775,-2,-22,-3,4,-6,1,0,0
1511885798138775,-4,-2,-6,-4,14,5,-2,-2
1511885798145021,1,-1,-8,-2,-16,-15,-2,-1
1511885798145021,-1,4,5,3,2,-2,-2,-1
1511885798160041,-4,1,-5,-7,-11,-10,1,0
1511885798160041,7,3,6,-2,10,18,4,2
1511885798176085,1,1,-6,-4,-5,-2,1,-1
1511885798176085,-4,-14,-9,-3,2,9,-1,-1
1511885798182931,-1,9,13,13,5,0,-2,1
1511885798182931,0,-2,5,2,-34,-24,-3,1
1511885798183931,-2,-3,-29,-8,-1,5,2,1
1511885798183931,3,2,8,-4,1,2,-1,2
1511885798198971,0,5,11,-3,-5,0,0,-1
1511885798198971,-1,-4,-9,-1,19,2,0,-2
1511885798205168,-1,0,3,-1,6,-2,-4,-1
1511885798205168,-4,-6,-7,-2,-1,-10,-1,-2
1511885798220193,-2,3,4,-1,-8,4,1,-1
1511885798220193,2,4,5,1,15,-1,-3,0
1511885798227120,-3,-2,3,3,-2,8,-1,-2
1511885798227120,-1,-4,-3,1,7,-1,2,1
1511885798243285,-1,6,-1,0,-8,-6,0,-2
1511885798243285,6,3,-2,-4,9,-1,-1,-3
1511885798244334,-6,-8,-4,-1,-10,-10,-3,-1
1511885798244334,-4,-4,10,1,-2,1,-1,-3
1511885798259334,3,0,-9,-1,-2,1,-2,-1
1511885798259334,-2,-2,-8,1,5,-10,-3,-2
1511885798265350,5,5,15,-5,-28,-2,1,0
1511885798265350,-1,0,-9,7,-44,-21,-4,-1
1511885798280387,-1,-4,-8,8,-1,1,1,0
1511885798280387,-2,-1,-5,-4,-35,-1,-1,-1
1511885798287407,1,4,15,6,31,7,0,-1
1511885798287407,0,-2,-9,-6,30,5,0,0
1511885798318487,-3,-1,-1,-8,-10,-9,-3,-2
1511885798318487,-1,-1,8,7,4,12,0,2
1511885798320537,1,-2,-4,-1,-7,-5,-1,0
1511885798320537,1,3,-10,-8,0,-5,-2,0
1511885798339571,1,-2,-1,-2,2,3,0,-1
1511885798339571,-9,-4,3,-1,31,3,0,-2
1511885798348567,6,2,-1,-1,-10,1,0,-1
1511885798348567,1,-2,6,2,17,7,0,-1
1511885798371696,1,1,-3,3,-15,-10,-3,1
1511885798371696,-1,-1,3,-4,13,1,1,-2
1511885798372627,-6,-4,-6,0,-3,-9,0,-1
1511885798372627,-3,2,-1,-2,-10,-1,2,-2
1511885798394886,-2,0,4,-3,4,8,-8,-1
1511885798394886,2,-1,-2,1,-12,-9,-3,0
1511885798395762,-1,-2,-1,3,-19,9,-1,-1
1511885798395762,1,-1,-2,-12,-18,-8,-1,1
1511885798414742,-1,-2,5,6,-14,-8,-1,-2
1511885798414742,2,0,0,-1,3,-4,0,0
1511885798423765,-1,3,-3,-1,-29,-2,-3,0
1511885798423765,-4,-3,4,-2,6,-3,-2,0
1511885798430785,-1,1,4,-5,13,10,3,0
1511885798430785,-1,-3,-18,0,-16,-11,-4,0
1511885798431784,-2,-3,6,-1,12,-14,-2,-2
1511885798431784,-1,-1,5,2,5,16,0,-1
1511885798432787,0,0,-5,0,9,-4,2,-1
1511885798432787,1,2,6,1,9,4,-1,-1
1511885798438806,-1,0,-5,-9,-21,-1,0,-1
1511885798438806,-1,1,8,14,21,2,0,-2
1511885798439809,-1,-3,-10,-3,7,-8,4,0
1511885798439809,0,2,16,1,-18,3,0,0
1511885798444822,0,2,-1,3,34,1,-3,0
1511885798444822,-3,-3,-16,-5,9,-22,-4,-3
1511885798459862,5,-1,4,-7,-55,14,2,1
1511885798459862,1,1,2,1,34,6,5,2
1511885798466881,-2,0,4,6,-23,1,0,0
1511885798466881,3,2,7,-2,6,10,2,3
1511885798482923,-3,-2,-11,2,22,-8,-1,0
1511885798482923,0,-4,-4,0,-5,9,0,-1
1511885798483923,2,-1,3,-2,10,2,-1,-2
1511885798483923,-14,1,-1,0,-24,-8,0,-2
1511885798521026,0,0,2,-2,8,0,-3,1
1511885798521026,-1,1,-1,-4,2,2,-1,0
1511885798523027,-2,-2,-1,-3,-4,5,1,-1
1511885798523027,2,-1,0,8,23,4,-1,-2
1511885798528043,-1,-2,-3,-4,36,21,2,-1
1511885798528043,-2,-1,-6,-7,-39,-6,-6,-1
1511885798529043,0,1,4,9,14,0,1,1
1511885798529043,3,0,-1,-6,-23,0,-2,0
1511885798543391,-1,0,-5,-1,-32,2,10,1
1511885798543391,3,1,-1,2,63,10,1,-1
1511885798544323,-2,-1,-5,-4,12,5,-2,-2
1511885798544323,1,-5,0,-1,-18,-1,1,-1
1511885798559251,-7,0,-4,3,5,-3,-5,-2
1511885798559251,-3,0,0,3,-19,-10,-3,1
1511885798565267,1,1,-1,-1,7,1,4,1
1511885798565267,2,0,2,-2,-10,0,2,1
1511885798581311,1,-1,7,-2,1,-8,-6,-1
1511885798581311,0,1,-6,5,18,0,2,0
1511885798587350,-2,-3,0,-9,-20,-4,0,0
1511885798587350,0,1,9,5,8,4,-1,-1
1511885798603406,0,-1,-18,-5,-18,-11,-4,0
1511885798603406,-2,-4,21,2,24,9,3,0
1511885798603406,-1,-2,-20,-5,-2,-6,-4,-2
1511885798603406,3,-1,1,1,12,7,-3,0
1511885798618408,0,3,8,-10,-47,-8,0,0
1511885798618408,-1,0,-5,2,44,-15,-4,-1
1511885798624424,0,0,4,-2,-35,-2,1,0
1511885798624424,-3,-3,-8,0,17,0,-2,-3
1511885798641471,-2,-1,3,0,17,-1,-2,-3
1511885798641471,-1,-2,-5,-1,-31,-19,-5,-2
1511885798647485,-1,-1,2,1,12,-2,0,0
1511885798647485,0,0,-4,1,15,-5,-1,0
1511885798685777,-3,-2,0,1,74,5,-2,0
1511885798685777,6,-3,-5,-12,-63,2,0,0
1511885798692608,2,1,-1,2,25,6,0,0
1511885798692608,1,0,6,15,9,-2,-1,0
1511885798708651,-1,-1,-1,-1,-20,-2,-2,0
1511885798708651,-5,-3,-3,-3,7,-1,1,-1
1511885798710654,-1,0,3,4,0,21,1,-2
1511885798710654,2,1,-2,-4,14,5,2,2
1511885798723688,0,1,5,-1,-11,-12,-3,-3
1511885798723688,-4,-2,-10,-3,-15,5,-1,0
1511885798725694,-2,-3,5,3,-14,-5,-5,-1
1511885798725694,0,4,28,0,65,25,1,-3
1511885798745750,-1,-10,-49,0,-34,11,-1,-2
1511885798745750,-1,1,8,-3,14,10,2,-2
1511885798747752,2,-1,0,-3,-3,-2,-3,-1
1511885798747752,0,-2,-6,-12,-24,-1,-2,0
1511885798760789,1,1,17,6,26,23,-2,-2
1511885798760789,-1,-3,-4,1,-24,7,-3,-1
1511885798762792,-4,-2,-8,-2,-5,8,-1,-1
1511885798762792,-3,-3,-4,-6,-49,-6,-1,0
1511885798776831,-3,-1,2,-3,19,10,-4,-2
1511885798776831,-1,-3,-7,-5,-12,1,-1,2
1511885798776831,1,1,7,4,15,7,0,0
1511885798776831,-1,-1,-12,-8,-21,0,-4,-3
1511885798790867,3,0,1,8,-11,6,-1,-2
1511885798790867,19,4,4,0,24,6,-2,3
1511885798790867,-12,-4,-6,-10,-23,5,-1,-1
1511885798790867,-8,-2,-5,3,-5,7,-2,-3
1511885798812955,-6,-2,0,-4,1,6,0,0
1511885798812955,10,2,16,6,7,9,0,-3
1511885798813957,-25,-7,-29,0,26,-6,-1,2
1511885798813957,-2,-4,-7,-16,-99,-19,-5,-1
1511885798826994,5,-4,0,3,39,18,2,-1
1511885798826994,-9,0,5,-4,-17,10,-3,-3
1511885798835015,11,1,4,1,-2,8,-1,-1
1511885798835015,-1,-3,2,7,-4,3,-2,0
1511885798850055,0,1,6,-5,-3,-15,0,-3
1511885798850055,-4,-3,-7,7,22,34,4,0
1511885798851054,2,0,8,-2,5,12,1,-2
1511885798851054,5,0,-10,6,22,19,2,-1
1511885798873137,2,0,4,-9,-32,0,-2,2
1511885798873137,-7,-5,-10,-13,4,1,0,0
1511885798874118,4,-1,4,0,-9,-2,-6,-2
1511885798874118,1,2,9,7,10,10,2,3
1511885798887273,-2,-1,-11,-1,-11,-7,-4,0
1511885798887273,-5,-1,1,3,-10,6,1,-1
1511885798896208,4,2,1,0,17,4,0,3
1511885798896208,3,-3,-2,4,-4,6,0,-1
1511885798910339,-3,2,2,2,29,4,-3,-1
1511885798910339,-5,-2,-6,-3,-26,-3,-3,-3
1511885798911263,6,-2,0,-1,-21,-9,-3,1
1511885798911263,-2,-1,-3,-3,16,8,0,-2
1511885798933276,-2,0,7,1,18,13,2,-2
1511885798933276,-3,0,-1,10,16,-4,-3,-1
1511885798934277,4,2,0,-2,-15,7,0,-1
1511885798934277,-8,0,-1,-2,4,4,0,-1
1511885798947319,-5,0,14,-4,-33,19,2,4
1511885798947319,-2,-5,-23,-8,-40,-24,-1,0
1511885798955374,-2,-1,1,2,-10,5,2,1
1511885798955374,3,3,1,5,19,-1,1,3
1511885798970416,1,0,7,6,-45,-3,2,1
1511885798970416,0,-4,-20,-1,26,4,0,0
1511885798971375,4,3,8,5,4,3,2,0
1511885798971375,4,2,4,-4,10,-5,-1,0
1511885798993590,2,4,7,1,-20,10,2,3
1511885798993590,2,3,11,3,7,-7,-1,1
1511885798993590,1,-1,-4,-1,-1,-13,-1,-1
1511885798993590,-2,-5,0,-6,24,-5,1,-3
1511885799007500,2,-2,-7,-4,-18,-43,-3,-1
1511885799007500,0,1,5,0,31,-1,1,-2
1511885799015524,22,4,-3,-8,-7,-8,-3,-2
1511885799015524,-44,-4,6,5,-14,-17,0,-2
1511885799030689,2,2,-5,-10,-33,-22,-4,-3
1511885799030689,-4,0,7,8,-13,-17,1,-1
1511885799031692,-3,-3,2,4,41,3,0,-2
1511885799031692,12,-3,-13,-12,-1,-2,-3,-3
1511885799052747,-1,-5,-6,2,41,-3,0,0
1511885799052747,-2,0,3,-6,5,6,2,0
1511885799053747,-7,-3,-1,-1,-16,-17,-2,-2
1511885799053747,7,0,-1,1,21,-5,-2,-1
1511885799067818,-3,-2,-2,-3,21,-1,-2,-1
1511885799067818,4,-1,2,-1,-5,-4,-3,-1
1511885799075994,-6,0,1,6,13,1,1,-1
1511885799075994,4,1,-3,-3,-11,3,3,3
1511885799091004,0,0,1,6,26,4,0,0
1511885799091004,-3,-1,1,-5,-29,-9,-6,-2
1511885799091848,-3,-3,-5,-11,-18,6,-1,-2
1511885799091848,2,-3,-7,1,-1,1,-2,0
1511885799113086,1,2,9,6,6,8,0,1
1511885799113086,0,3,-2,11,81,8,1,-1
1511885799113908,-5,-4,-3,-5,-8,-4,1,-1
1511885799113908,5,-1,1,-6,-6,-4,-2,0
1511885799126945,-1,1,-4,-1,24,19,3,0
1511885799126945,-3,1,4,-5,-9,-3,-4,-1
1511885799135965,-1,0,2,3,-9,3,-2,-1
1511885799135965,4,1,-5,2,17,-2,2,1
1511885799150184,-1,-1,0,0,-56,-6,-2,0
1511885799150184,0,1,2,6,2,3,0,0
1511885799151183,-2,0,0,0,6,6,1,1
1511885799151183,1,-1,-1,1,-19,0,0,1
1511885799173242,0,-1,-5,-3,38,-1,-1,-2
1511885799173242,1,1,5,-8,-21,-4,-1,-1
1511885799174246,-2,-3,-16,-6,11,-1,0,0
1511885799174246,-1,0,8,6,-20,-7,-1,-2
1511885799187279,-1,0,-8,-2,80,-8,0,0
1511885799187279,-1,-3,-4,-8,-1,-12,1,-1
1511885799195482,0,3,11,2,-20,-1,-1,1
1511885799195482,1,1,-13,-6,24,5,-1,0
1511885799210343,-1,-3,5,-8,-102,-26,-6,-3
1511885799210343,-1,-2,-3,2,-7,7,-1,-1
1511885799211344,0,1,5,9,23,-6,-1,-1
1511885799211344,0,-3,3,-11,-76,-18,-2,-3
1511885799233404,-1,2,0,3,-9,0,0,0
1511885799233404,-1,1,-3,-3,-5,-1,0,2
1511885799233404,-3,0,3,-5,-11,5,1,1
1511885799233404,-3,-1,-1,5,14,6,0,-1
1511885799256505,1,-1,4,6,3,0,2,-1
1511885799256505,1,0,-3,2,-10,4,0,-1
1511885799257472,-1,3,9,7,16,-6,1,0
1511885799257472,-1,2,13,-3,-14,1,-4,-2
1511885799270543,-1,-7,-47,-8,24,2,2,2
1511885799270543,-1,3,23,2,-22,-18,-3,-2
1511885799271541,-1,-2,-4,4,4,-9,0,-2
1511885799271541,0,4,26,-7,15,-1,1,0
1511885799293566,-3,-6,-25,1,-17,-3,0,-1
1511885799293566,2,0,-3,-7,-6,-4,0,1
1511885799293566,-3,-2,-4,-3,-19,-10,0,-1
1511885799293566,-2,-5,-4,-26,-10,-18,-1,0
1511885799307765,2,3,24,25,19,-7,-1,-2
1511885799307765,-3,-1,-4,2,-11,-8,0,1
1511885799315623,0,2,21,-4,58,-3,-2,-2
1511885799315623,2,1,-24,7,9,2,2,1
1511885799322643,-1,-4,-25,-26,0,-1,0,-1
1511885799322643,-2,-3,11,10,-4,-11,-1,-2
1511885799329657,1,3,37,2,-4,-3,-2,0
1511885799329657,-3,-5,-41,-15,-27,-14,-3,-4
1511885799345855,2,10,42,0,32,7,4,3
1511885799345855,0,-4,-13,1,-38,-9,-1,0
1511885799345855,-3,-7,-31,-2,21,2,-1,-1
1511885799345855,0,7,56,17,15,0,-1,-2
1511885799361077,-1,-7,-45,-8,-21,-3,1,-2
1511885799361077,-1,-3,7,6,10,-8,0,0
1511885799366916,-1,-2,-10,-5,-8,-10,-2,-2
1511885799366916,2,-2,-6,4,-5,1,0,-2
1511885799381953,-1,2,18,-3,14,-15,-4,-1
1511885799381953,-1,0,5,-9,0,14,0,-2
1511885799390038,-2,-3,-24,-4,-22,-19,-2,-1
1511885799390038,0,2,6,1,22,27,-1,0
1511885799406081,0,2,20,8,1,5,3,0
1511885799406081,-1,-3,-40,-11,-36,-7,-1,-2
1511885799406081,-2,1,5,-3,-22,-7,-2,-2
1511885799406081,1,-4,-12,2,10,-10,-2,-1
1511885799421127,-2,1,18,7,-16,-1,-3,-3
1511885799421127,0,-1,4,1,14,-6,-1,-2
1511885799427253,0,1,-6,-12,-2,8,1,-1
1511885799427253,-3,-1,-5,-5,-17,-1,2,0
1511885799442180,0,-1,1,-5,-5,-4,0,0
1511885799442180,-1,0,6,4,18,2,0,0
1511885799450199,2,0,-10,12,-12,-3,-1,1
1511885799450199,0,-2,0,-1,27,10,2,2
1511885799465259,-1,1,5,-6,-18,-5,-1,0
1511885799465259,-2,-3,-14,-14,8,3,-2,0
1511885799466276,-1,-5,9,13,-6,-2,-2,-1
1511885799466276,-1,-2,0,8,-6,-17,-1,-2
1511885799481282,-1,0,-4,3,-5,5,-3,-1
1511885799481282,3,4,13,-5,1,6,6,4
1511885799487414,1,-2,-21,-10,0,9,3,0
1511885799487414,0,0,-5,1,-1,-16,-4,0
1511885799502382,0,0,-3,-3,-2,5,-6,-1
1511885799502382,0,3,7,15,13,2,7,1
1511885799509506,0,1,8,2,3,5,-1,2
1511885799509506,1,0,2,4,-4,-7,-2,-1
1511885799525620,-1,1,29,-8,-12,-3,-6,-1
1511885799525620,-5,-11,-48,-8,3,-6,-12,-4
1511885799526589,1,3,10,1,5,-1,16,-3
1511885799526589,1,0,5,-4,-7,-2,1,-2
1511885799541661,-2,1,21,1,-3,4,-3,-2
1511885799541661,-3,-7,-30,3,4,3,-1,-1
1511885799547760,0,-3,3,21,3,-15,-5,-1
1511885799547760,-2,-1,7,-19,-3,1,-2,-1
1511885799562792,-1,-1,-10,-1,-12,-4,2,-1
1511885799562792,0,2,24,-14,-8,-8,-3,-2
1511885799577825,1,-1,-5,-1,-2,11,0,-1
1511885799577825,-1,-2,-7,11,4,6,8,2
1511885799585742,-1,-1,-2,4,3,-4,-5,-1
1511885799585742,1,2,8,1,4,2,-4,-1
1511885799585742,-1,-4,-10,-9,-4,-7,-2,-1
1511885799585742,-1,1,20,7,0,2,-3,0
1511885799601785,-2,-3,-31,-3,0,-8,3,-2
1511885799601785,-1,-2,9,2,2,20,-2,-2
1511885799607879,-3,1,8,-7,-8,-11,-4,-2
1511885799607879,1,-2,-7,-1,-1,2,3,0
1511885799621921,1,5,22,7,0,-5,-2,-3
1511885799621921,-4,-5,-17,6,7,-6,0,-1
1511885799629971,1,7,31,-5,-13,5,-1,0
1511885799629971,-3,-15,-62,-14,-12,-2,0,1
1511885799645014,2,0,6,-1,19,-4,0,3
1511885799645014,0,7,32,9,3,5,2,-1
1511885799646013,-2,0,12,14,-4,-1,3,1
1511885799646013,3,3,11,-3,-2,0,0,0
1511885799661054,-1,0,-5,-8,-9,-5,-3,-3
1511885799661054,0,-3,-18,7,0,-8,-3,-3
1511885799667070,-9,1,-13,-3,-6,1,-6,-2
1511885799667070,9,1,10,17,31,11,8,4
1511885799682113,2,0,17,-2,-7,-5,2,1
1511885799682113,0,-2,7,-1,-1,-1,3,2
1511885799690186,-5,-7,-38,-18,-3,-3,-9,-5
1511885799690186,-5,2,5,-1,-6,-15,-2,-4
1511885799705305,-3,-7,-11,-2,3,16,-1,0
1511885799705305,3,3,11,-5,-6,-13,6,-3
1511885799706228,2,-3,0,0,5,-5,4,0
1511885799706228,-2,-1,1,-2,-2,24,-6,0
1511885799721378,0,-1,7,3,-1,-4,9,2
1511885799721378,-1,2,-15,-8,-4,-3,-13,-1
1511885799727397,3,1,-3,-2,2,1,2,2
1511885799727397,-1,-3,6,2,-3,-12,-3,-3
1511885799742687,-4,-2,-15,-2,-6,1,-2,-2
1511885799742687,1,3,18,4,1,-1,1,1
1511885799749601,1,-2,0,4,2,-4,-1,1
1511885799749601,-1,3,-5,-2,-3,-2,-3,-1
1511885799765643,-1,4,29,17,1,4,2,-4
1511885799765643,-6,-10,-45,-21,-1,-3,4,0
1511885799766648,17,7,-4,1,3,7,0,9
1511885799766648,-3,-8,-3,0,-5,-3,5,-3
1511885799781683,1,-1,-7,-2,0,-5,-9,3
1511885799781683,-2,1,16,1,-1,0,-7,-7
1511885799787702,-4,0,12,-6,-4,-1,-3,-5
1511885799787702,-1,1,-2,4,-8,-3,-3,0
1511885799802743,-1,-3,-30,-7,-2,-1,11,1
1511885799802743,-1,3,18,1,-2,-1,-3,1
1511885799809938,-3,-5,-11,-6,1,-2,-4,-2
1511885799809938,-1,1,7,-2,-1,3,-3,-1
1511885799832913,-1,-5,-5,2,-2,-2,-6,-3
1511885799832913,2,1,3,-1,-1,3,1,1
1511885799833822,-4,-4,1,-3,1,-1,1,-1
1511885799833822,1,0,-1,-1,0,-5,-4,-1
1511885799840841,-1,0,2,-1,-2,0,-2,-2
1511885799840841,3,-1,-6,2,3,2,3,1
1511885799846971,0,0,-1,-4,-4,-2,-4,0
1511885799846971,-2,2,1,-1,-1,-4,0,-1
1511885799862011,-2,-2,-12,1,2,-2,0,-2
1511885799862011,-1,-1,9,-3,-3,-9,-2,-1
1511885799870035,-3,-3,3,2,-4,-3,-3,-3
1511885799870035,0,2,-3,0,0,-1,1,2
1511885799885075,-2,2,2,-3,-4,-6,2,-1
1511885799885075,-1,1,5,2,1,9,4,2
1511885799892329,0,1,-2,2,6,0,0,1
1511885799892329,-1,-1,4,-3,-2,-5,-4,-2
1511885799901392,-1,0,9,4,1,9,-4,0
1511885799901392,-4,-3,-19,-2,-4,-12,0,-1
1511885799907408,0,1,4,0,0,0,3,1
1511885799907408,1,2,1,2,-1,-6,-4,-1
1511885799922640,-2,0,8,-1,-1,1,15,2
1511885799922640,2,2,7,1,2,3,-2,1
1511885799929467,0,-1,-3,0,-1,-5,0,-1
1511885799929467,0,0,1,-1,-1,8,7,1
1511885799944510,0,-3,-10,-3,0,0,-2,-1
1511885799944510,-2,-3,-1,-3,0,2,-2,-3
1511885799952531,-3,-2,-5,-1,-2,-2,1,-1
1511885799952531,1,1,4,2,-2,-6,-2,0
1511885799961552,-3,-3,-13,-2,-2,-4,-1,-1
1511885799961552,3,0,-3,-3,2,1,4,-1
1511885799967568,-1,1,-5,-1,-3,-3,-8,-2
1511885799967568,-3,-3,5,-1,-2,0,-2,-1
1511885799982735,0,-2,1,2,0,-1,-2,0
1511885799982735,1,1,4,-2,-2,-9,-1,-1
1511885799989749,-1,-2,-1,0,0,2,3,0
1511885799989749,0,-1,-7,1,0,-4,1,0
1511885800004892,1,-1,-5,-4,0,-4,-3,-1
1511885800004892,0,0,4,-1,-1,-4,-1,2
1511885800012812,-1,0,0,-1,0,1,-1,1
1511885800012812,-1,0,6,1,-3,-2,0,0
1511885800027855,0,-4,-24,-4,-2,-5,-2,-1
1511885800027855,-1,-2,-5,-3,0,3,11,2
1511885800028854,-1,-1,1,0,-1,-3,-1,-3
1511885800028854,-1,0,-2,-2,-1,-8,-3,-1
1511885800041893,1,0,11,1,-3,5,4,-1
1511885800041893,-5,-5,-2,-1,-2,-1,-3,-1
1511885800050008,2,-2,-5,-3,0,-4,-3,-3
1511885800050008,1,1,-2,1,-1,-3,1,1
1511885800064953,1,0,2,-3,1,-3,-4,0
1511885800064953,0,0,-1,3,-2,-2,-2,-1
1511885800071973,-1,0,4,1,-2,-4,1,-1
1511885800071973,-4,0,-5,-2,-1,3,0,-4
1511885800088015,2,0,0,-2,0,11,-5,5
1511885800088015,0,-3,3,-2,0,45,-9,0
1511885800089014,-2,-4,-4,2,3,26,22,-2
1511885800089014,0,1,-2,-3,0,-25,0,3
1511885800102048,-5,3,-3,-1,-2,-60,-42,-6
1511885800102048,-1,5,3,1,-3,-64,19,-1
1511885800110097,2,5,3,-1,1,-34,15,3
1511885800110097,-3,0,-5,0,2,-8,24,0
1511885800125149,1,-1,2,1,1,6,3,-1
1511885800125149,2,0,1,1,0,21,-10,1
1511885800132152,-1,-2,-4,-2,-4,33,-4,-3
1511885800132152,0,-6,-2,-2,-2,33,-20,-3
1511885800148195,-2,-4,-4,-1,-3,35,-3,0
1511885800148195,-1,-2,-2,-2,1,32,-10,-1
1511885800148195,0,-2,-1,-1,-3,20,-7,0
1511885800148195,8,-1,-2,0,-3,15,-9,-3
1511885800162208,4,6,3,-2,-2,5,3,-1
1511885800162208,-4,-4,-3,-1,-1,-20,6,-1
1511885800169254,-3,9,2,-3,-1,-32,-10,-2
1511885800169254,-3,-6,-4,0,-3,-9,-2,0
1511885800184294,-9,-33,-3,0,2,9,17,0
1511885800184294,3,11,-1,0,-4,-12,-6,-3
1511885800192312,3,-7,-2,0,-3,2,-6,0
1511885800192312,3,14,1,0,2,5,2,0
1511885800208358,3,7,4,-1,-1,-6,6,-2
1511885800208358,-3,-6,3,2,0,-11,-4,1
1511885800208358,2,2,2,-1,0,-9,-5,-1
1511885800208358,-1,1,1,1,0,-4,2,0
1511885800222368,-5,2,0,3,2,6,0,1
1511885800222368,-2,-5,-2,0,-1,2,-1,-2
1511885800229387,-2,-2,-3,-3,-3,7,-1,-1
1511885800229387,-3,-6,9,0,-1,5,-5,-1
1511885800244427,10,17,-6,-6,-1,6,1,1
1511885800244427,7,-2,18,13,2,1,-2,2
1511885800252476,-17,-13,48,-4,-2,0,0,-1
1511885800252476,-10,-35,-107,-20,1,-7,-3,-5
1511885800267516,-5,3,40,-2,-5,-27,0,-4
1511885800267516,9,8,30,-1,1,-3,3,1
1511885800268490,10,30,24,9,1,-15,1,7
1511885800268490,7,22,46,7,0,5,-1,1
1511885800282528,-20,-38,-17,6,1,6,4,-6
1511885800282528,-3,-17,-58,-14,-5,14,4,3
1511885800289574,3,-4,-18,-8,9,-2,-11,0
1511885800289574,4,23,23,6,-6,-2,2,3
1511885800304709,14,18,-3,2,2,13,5,3
1511885800304709,-6,-6,22,4,-20,-6,2,-2
1511885800312730,-4,-7,-19,6,37,1,-2,-4
1511885800312730,0,4,11,0,-6,-43,1,0
1511885800327675,1,14,-3,-1,0,-20,2,2
1511885800327675,-2,-11,5,0,-1,2,-2,-1
1511885800328650,-1,3,-26,-14,-18,14,-1,-1
1511885800328650,0,0,50,5,-1,19,-6,-3
1511885800342688,-9,-23,-67,6,7,2,-2,-2
1511885800342688,5,20,21,-4,2,-4,-2,-1
1511885800349707,8,0,7,3,-9,3,4,4
1511885800349707,-13,-34,-20,-7,5,-3,2,-3
1511885800364747,-6,8,14,11,-18,-9,-4,-3
1511885800364747,-4,5,-17,-38,22,-3,-2,-1
1511885800371793,4,-2,5,-2,-12,-13,5,1
1511885800371793,4,7,27,-23,-15,1,-1,2
1511885800387808,2,1,-15,16,15,-2,2,3
1511885800387808,-8,6,-11,-8,-14,-12,0,1
1511885800388811,0,-2,33,8,1,-3,-1,-1
1511885800388811,1,4,-73,-10,2,2,0,1
1511885800401869,8,2,11,0,-13,-9,0,1
1511885800401869,-5,-28,6,7,5,-11,-5,-2
1511885800409867,-6,16,-2,3,-15,-2,-18,-4
1511885800409867,2,1,59,7,16,37,9,-2
1511885800424906,3,28,-21,-20,3,29,14,-1
1511885800424906,2,-25,9,21,6,-4,-3,1
1511885800431925,-16,-11,-14,-2,-15,-13,-5,-1
1511885800431925,3,11,-20,14,-1,-20,-8,0
1511885800447967,-1,-2,15,-11,-8,-12,-2,0
1511885800447967,5,14,26,7,2,7,2,2
1511885800448970,-5,-9,-37,-20,-8,1,3,-4
1511885800448970,-3,3,50,16,-2,0,-1,-1
1511885800462005,5,4,-49,-6,7,2,-2,-1
1511885800462005,3,6,-6,-1,-7,4,-3,-2
1511885800470026,4,-12,39,15,8,8,5,0
1511885800470026,-14,-8,-48,-11,-2,-7,3,-3
1511885800485067,-1,-13,47,11,8,-6,-7,-2
1511885800485067,9,22,40,3,-4,5,-3,5
1511885800492086,7,15,-64,-13,8,3,2,1
1511885800492086,-6,-37,-4,15,4,-7,0,0
1511885800509130,-2,8,15,-14,-10,-2,-1,-1
1511885800509130,-3,5,-18,15,1,-5,3,-2
1511885800510134,-4,0,22,-4,1,-4,1,-2
1511885800510134,-2,-9,-22,-6,-4,-6,-2,-2
1511885800522226,-5,-19,0,-4,0,-5,-4,-2
1511885800522226,4,24,2,-3,0,2,2,1
1511885800530338,10,21,30,20,6,9,1,2
1511885800530338,-13,-44,-71,-21,-3,-10,-4,-5
1511885800545255,-5,4,11,1,-3,-5,-1,0
1511885800545255,-1,2,4,-12,-2,-3,1,-2
1511885800552298,0,1,4,10,-4,1,-3,-1
1511885800552298,8,16,15,3,1,7,5,2
1511885800568291,0,1,11,-5,3,9,-2,-1
1511885800568291,-3,-4,-16,-2,0,-1,0,0
1511885800569298,0,-4,6,6,1,-9,-5,0
1511885800569298,2,8,20,-3,-4,20,-2,-1
1511885800613413,-2,-6,-9,-11,-1,-2,1,-2
1511885800613413,-6,-4,-6,8,2,6,-3,-4
1511885800615415,-5,-10,-18,-5,0,1,2,-1
1511885800615415,2,10,13,4,-2,-1,-6,-1
1511885800628575,-2,0,8,0,-3,10,-4,-2
1511885800628575,-5,-10,-21,-6,-1,8,-4,-3
1511885800630462,0,-9,-8,-6,2,0,1,-1
1511885800630462,2,9,8,5,0,-11,0,0
1511885800634494,3,0,1,3,-4,-7,0,3
1511885800634494,-3,-7,-17,-3,0,-5,-1,-3
1511885800644493,-4,-4,7,-4,1,7,-1,-1
1511885800644493,-2,4,-11,1,0,-1,2,0
1511885800645498,0,-4,2,3,0,-7,1,-1
1511885800645498,-4,-1,-4,-5,-1,-2,-2,-1
1511885800649509,-2,-6,1,-2,12,10,8,-2
1511885800649509,-1,7,9,1,-15,9,-3,-1
1511885800664547,0,-3,-4,-1,1,6,3,-1
1511885800664547,1,-3,0,8,-3,3,2,0
1511885800672564,-1,-5,-19,-19,4,3,0,-1
1511885800672564,1,4,9,12,1,6,-3,0
1511885800687608,-1,-3,-1,0,8,3,-2,0
1511885800687608,-1,0,-2,-3,-1,-5,-4,-2
1511885800688608,-1,-4,-3,4,-6,-9,-2,-1
1511885800688608,0,2,0,-7,1,-3,-1,0
1511885800702692,1,-1,1,2,-4,-8,-4,0
1511885800702692,-3,-4,-3,1,2,2,3,-1
1511885800709751,-1,-2,-5,-4,-5,-10,-5,0
1511885800709751,1,1,3,-1,4,8,-2,-1
1511885800724753,0,3,4,2,1,0,-2,0
1511885800724753,0,-3,-8,-3,-1,1,0,-2
1511885800732083,1,-2,-4,2,-3,4,1,2
1511885800732083,-9,-1,2,-3,0,-9,-1,-3
1511885800748045,11,0,14,2,3,10,2,1
1511885800748045,0,-5,-29,-10,2,-4,-3,0
1511885800748930,-6,-1,7,7,-10,0,1,-2
1511885800748930,-1,0,0,2,13,10,-3,2
1511885800762967,-8,-2,0,-10,-28,-16,2,-3
1511885800762967,-1,-1,3,2,-1,5,-7,-1
1511885800769989,-1,-2,-5,4,3,-2,-3,0
1511885800769989,0,1,1,-2,0,-11,-3,-1
1511885800785029,-2,-1,-4,-1,4,13,19,0
1511885800785029,-2,0,5,-2,4,-1,2,1
1511885800792166,-2,-4,-6,-5,-9,-4,-3,-2
1511885800792166,1,0,1,-9,-4,-8,4,-1
1511885800807113,-2,0,-3,8,2,-7,-12,-1
1511885800807113,-1,-1,1,3,-1,-5,4,-1
1511885800815105,2,-2,2,0,-1,-3,-3,0
1511885800815105,1,-1,-3,-1,-4,-2,3,1
1511885800822124,-3,-1,-5,-6,-8,-14,-8,-2
1511885800822124,2,4,5,5,26,6,2,2
1511885800830265,-2,-3,-5,-1,18,9,1,-1
1511885800830265,0,0,0,-1,-30,-2,7,2
1511885800845296,-1,0,-3,-1,7,2,2,-1
1511885800845296,-2,-2,1,-2,-10,-4,-6,-2
1511885800852207,1,-2,-1,-2,15,1,-2,2
1511885800852207,1,-1,-2,2,-18,-5,-1,-5
1511885800867362,0,1,0,-1,3,-4,2,1
1511885800867362,-1,-1,2,1,-8,-8,4,-2
1511885800875568,0,0,-2,2,2,2,-20,-1
1511885800875568,0,-2,-2,-8,14,1,8,-1
1511885800882500,-1,1,1,3,-5,1,-6,-2
1511885800882500,-1,1,1,2,21,9,-3,2
1511885800889565,-4,0,0,2,-9,-8,5,-2
1511885800889565,3,1,1,5,15,3,-11,4
1511885800904518,-2,-4,-3,-2,7,8,22,-3
1511885800904518,1,-1,-2,-3,0,8,-10,-2
1511885800912656,3,1,4,5,8,14,11,2
1511885800912656,-3,-3,-2,-3,-4,-3,-4,0
1511885800927620,1,0,-2,-1,17,3,-4,2
1511885800927620,-3,-1,-1,0,-25,-10,1,-4
1511885800935600,2,-1,-1,0,29,-2,3,-1
1511885800935600,1,-1,-1,2,7,4,-10,0
1511885800942618,0,-2,-2,0,-2,11,1,1
1511885800942618,0,-2,-4,-4,-5,-2,11,-3
1511885800949637,0,1,0,-4,-29,-3,-14,0
1511885800949637,-4,-1,0,0,10,-7,-21,-4
1511885800964677,-3,-2,0,1,9,9,5,0
1511885800964677,0,1,1,2,10,-1,-11,0
1511885800972700,0,-2,-2,0,-14,0,-2,1
1511885800972700,-2,1,-2,-1,-3,2,30,-2
1511885800987739,-1,0,-3,-5,-9,3,-10,-2
1511885800987739,-5,-1,-4,-6,-43,11,-34,1
1511885800995945,0,2,-3,-2,11,-16,68,3
1511885800995945,0,-1,-2,-3,-3,4,2,0
1511885801010974,-2,0,5,8,7,8,-3,-1
1511885801010974,1,0,-5,-8,3,0,16,0
1511885801011829,0,-1,-4,-1,-11,-3,-16,-4
1511885801011829,0,0,3,-2,9,-17,13,0
1511885801024860,-2,-2,-5,-2,-15,-13,-22,2
1511885801024860,-1,-2,1,2,-2,17,-4,-1
1511885801031856,-3,0,-1,-1,2,-3,-15,-3
1511885801031856,1,0,-1,3,4,22,7,0
1511885801047005,0,0,-1,0,-28,-9,-9,-3
1511885801047005,0,0,1,2,-35,-12,5,-1
1511885801055120,-1,-3,-2,4,76,10,-1,-1
1511885801055120,0,1,2,0,-6,-3,-34,3
1511885801070111,-1,1,-1,1,9,6,44,-4
1511885801070111,1,-1,1,-2,8,-5,-9,2
1511885801071072,-3,-1,-2,-1,-17,4,3,-4
1511885801071072,-1,0,-1,3,9,-13,-18,0
1511885801085139,-1,-1,-4,-10,-27,-14,-8,2
1511885801085139,-1,-1,0,1,14,-7,27,-2
1511885801092167,-2,-1,0,-8,-41,-33,-37,-3
1511885801092167,0,-1,0,-3,-6,-21,2,-3
1511885801107189,-2,-2,-4,-8,-12,-4,-2,-2
1511885801107189,-1,0,3,-1,16,0,18,-1
1511885801115220,1,0,-1,5,-60,9,0,1
1511885801115220,-2,-3,-6,0,66,7,5,-1
1511885801130365,1,1,3,1,-12,-4,-2,0
1511885801130365,-1,-1,-5,-4,-12,-2,-13,-2
1511885801131239,-2,-1,2,-4,-37,-1,-1,-1
1511885801131239,0,1,8,5,52,1,0,-2
1511885801153291,-1,-1,-6,2,-6,-4,-3,1
1511885801153291,-3,-3,-1,2,6,12,-3,1
1511885801154290,0,1,4,4,47,23,3,2
1511885801154290,-1,-1,-13,-8,-64,-45,4,-2
1511885801167349,0,-2,5,3,35,3,-10,-1
1511885801167349,2,1,0,-1,17,7,-1,-2
1511885801175346,-2,-2,-2,-3,-38,-4,3,-1
1511885801175346,-2,1,5,12,7,10,4,0
1511885801190420,-2,-1,1,-9,15,0,0,-4
1511885801190420,-1,-3,-4,-2,-16,-13,-32,-1
1511885801191393,-1,-2,-1,0,14,-3,3,1
1511885801191393,1,0,0,0,-11,12,6,1
1511885801205432,3,0,-1,-2,-27,-16,-15,1
1511885801205432,1,0,1,2,-13,-4,34,1
1511885801212563,-3,-3,-5,-5,12,-10,-4,-3
1511885801212563,-2,0,2,4,-29,-2,-9,0
1511885801227509,0,-1,1,6,-5,38,5,0
1511885801227509,0,0,-2,-2,-1,-38,-9,-2
1511885801234505,2,0,-5,-3,-26,4,4,2
1511885801234505,-1,-2,-4,-4,-26,14,7,-1
1511885801250571,0,1,-1,-2,-20,-14,-4,0
1511885801250571,0,0,2,2,1,1,-24,1
1511885801251553,-1,0,-1,1,26,4,50,2
1511885801251553,1,0,-2,-4,3,2,-3,-1
1511885801264587,-3,-3,-1,1,21,-25,1,-2
1511885801264587,-1,1,0,-2,-33,14,1,0
1511885801272608,1,0,-1,-1,9,-16,-13,-1
1511885801272608,1,2,2,-1,-29,7,13,2
1511885801287649,-2,-2,-2,-1,4,10,-11,2
1511885801287649,-1,-5,-2,1,69,-25,3,-2
1511885801294666,-1,-1,-2,-7,-57,-4,-10,-2
1511885801294666,1,1,3,13,17,13,10,1
1511885801310868,-1,-3,-1,0,-17,-4,-2,-2
1511885801310868,-1,0,1,-3,4,18,1,1
1511885801311775,-1,-1,0,-1,19,7,-7,-1
1511885801311775,-1,-2,-3,-7,16,-12,-8,-1
1511885801324861,3,1,2,7,21,14,4,0
1511885801324861,-2,0,-3,-3,-53,4,5,-2
1511885801331765,1,0,4,6,79,-1,-2,-2
1511885801331765,-3,-2,-4,-2,-9,20,0,-1
1511885801347805,4,0,-1,-4,-1,-9,-9,-2
1511885801347805,2,-1,-1,0,21,-6,7,0
1511885801354827,1,1,0,2,-42,14,-7,1
1511885801354827,0,0,1,-3,-2,-12,-6,-2
1511885801371032,-1,0,-1,-1,46,-1,5,0
1511885801371032,-2,-1,-1,4,-3,-4,-14,-2
1511885801371870,-1,0,0,-1,28,5,-2,-1
1511885801371870,-1,1,2,0,-10,0,-2,1
1511885801384928,-4,-1,-3,-6,-19,-1,2,-2
1511885801384928,1,0,0,0,5,1,3,-2
1511885801392019,-2,-2,-1,1,-14,-2,-2,0
1511885801392019,0,0,-3,-6,-4,-6,-1,-3
1511885801406962,-2,-2,-1,0,-17,-9,-1,1
1511885801406962,-1,-2,0,-1,-15,1,3,-1
1511885801414986,2,0,-2,-4,0,-20,-7,-1
1511885801414986,0,-3,-1,-4,0,-6,0,0
1511885801430077,3,3,2,-3,8,3,-4,1
1511885801430077,-2,2,4,0,-48,-2,-2,-1
1511885801431076,-3,-1,-5,5,-18,16,1,0
1511885801431076,-1,-3,-3,-3,14,0,-3,0
1511885801445202,0,-1,2,2,-3,-4,0,-2
1511885801445202,-1,-3,-1,-4,23,6,4,-1
1511885801452135,-1,-2,0,-7,-70,-24,-5,-1
1511885801452135,-1,0,0,2,23,6,6,-1
1511885801467172,-4,-2,-4,2,3,-22,-22,-1
1511885801467172,1,0,1,-2,-15,2,7,-2
1511885801475194,-1,0,-1,-3,-3,-3,-1,-1
1511885801475194,0,1,-2,-2,-28,8,-4,-1
1511885801490234,-2,-3,-3,3,9,5,6,-1
1511885801490234,-1,0,-1,0,12,-8,-1,-1
1511885801491236,-1,0,0,1,3,-3,-3,-3
1511885801491236,-3,-3,-3,-4,-25,-50,-4,-3
1511885801505306,0,1,1,2,20,14,3,3
1511885801505306,2,0,1,5,-3,-1,-1,2
1511885801512491,-2,-2,1,-4,12,6,0,-1
1511885801512491,0,-1,-5,-1,23,7,-3,1
1511885801527502,-2,-3,0,-2,-9,-2,3,-1
1511885801527502,0,0,0,-6,-72,-2,-2,0
1511885801534545,6,1,0,-1,16,-5,0,4
1511885801534545,1,1,-2,-5,13,5,-2,0
1511885801550587,-1,1,-1,8,-2,17,2,-2
1511885801550587,0,-1,15,-7,9,-1,1,-3
1511885801551588,-3,-5,-31,-5,16,8,-1,0
1511885801551588,1,1,15,11,2,13,1,-1
1511885801564832,1,3,3,-7,-23,-14,0,1
1511885801564832,0,0,2,2,24,6,2,1
1511885801572836,-2,0,3,-9,5,-1,0,-2
1511885801572836,-2,-1,-6,1,-11,-5,-3,0
1511885801587774,0,-1,-3,0,4,5,3,0
1511885801587774,-3,-1,-1,1,0,6,1,-1
1511885801594791,-2,-1,3,-1,51,10,0,0
1511885801594791,1,-2,-6,0,-6,8,4,1
1511885801610907,-4,-1,-2,-5,-21,-19,-1,-2
1511885801610907,-2,-2,-9,-4,6,-7,-3,0
1511885801610907,0,2,4,-1,-17,-3,2,-1
1511885801610907,-1,3,6,12,-4,2,-3,1
1511885801624944,-2,-7,-3,-2,4,-1,2,-4
1511885801624944,-1,-4,-6,-2,14,-7,0,-1
1511885801631893,6,0,-1,0,-1,2,-2,-1
1511885801631893,2,4,5,-3,4,0,0,0
1511885801669994,1,5,-1,6,-9,-6,1,3
1511885801669994,-2,3,13,10,7,10,4,2
1511885801679016,-2,4,5,5,11,0,1,-1
1511885801679016,-3,-4,-22,-14,-52,-7,-4,-2
1511885801694217,-1,-5,-5,1,16,-3,1,-1
1511885801694217,0,-1,-4,-3,20,0,-3,0
1511885801695058,-3,-1,14,5,-8,-3,-6,2
1511885801695058,0,1,8,-1,15,0,0,0
1511885801709217,1,-2,-12,-6,-14,3,-2,1
1511885801709217,-2,-1,-3,1,25,-7,-4,-3
1511885801710098,0,1,0,-5,-28,-23,-3,-1
1511885801710098,-1,-1,1,3,4,-1,-2,-2
1511885801731157,-6,0,4,-4,-10,21,3,-3
1511885801731157,-1,-4,-4,0,13,9,3,-1
1511885801733162,0,-2,-5,3,-24,7,-1,-4
1511885801733162,-7,-4,-3,-5,-1,4,0,-3
1511885801754255,0,-4,2,3,10,9,0,-2
1511885801754255,0,1,-8,-9,-3,15,-2,0
1511885801755220,-2,-1,1,-4,5,9,0,0
1511885801755220,2,0,1,-5,-14,3,-3,-1
1511885801761353,-2,0,1,6,-8,-8,0,-3
1511885801761353,-2,-3,-5,-3,-2,11,-1,0
1511885801763246,-1,-1,12,11,-5,10,-2,0
1511885801763246,2,1,-5,-2,9,7,1,0
1511885801775272,-2,-7,-23,-12,-4,-5,-5,-2
1511885801775272,-1,1,10,-1,-9,11,0,0
1511885801784302,1,1,-5,3,-5,2,-3,-2
1511885801784302,0,-2,16,5,17,16,1,-1
1511885801798336,-2,3,9,-6,-10,0,0,0
1511885801798336,-4,-6,-27,-9,51,7,-2,-2
1511885801800338,-2,-1,7,12,-9,-13,-4,-3
1511885801800338,-4,-2,-3,0,3,20,0,-2
1511885801821397,1,3,7,2,9,10,-5,1
1511885801821397,-1,3,4,-1,-19,3,-2,-1
1511885801822564,0,-4,-20,-4,8,8,-2,0
1511885801822564,-5,-6,-2,1,0,-1,-1,-3
1511885801835458,0,-2,-3,-10,-9,1,0,-1
1511885801835458,0,-1,2,-3,-14,15,1,1
1511885801843514,-2,2,9,2,1,4,2,-2
1511885801843514,2,4,31,6,-4,3,0,0
1511885801858697,-1,-12,-68,-12,-5,8,-1,-2
1511885801858697,2,3,7,4,0,-4,-3,0
1511885801860498,-1,-6,-9,-7,0,13,2,-1
1511885801860498,1,3,3,-5,4,8,-1,2
1511885801881559,2,6,37,21,27,18,2,1
1511885801881559,1,-1,-14,6,29,5,-1,0
1511885801882556,-2,-3,-4,-11,-28,11,-1,-2
1511885801882556,-1,-2,-5,0,10,0,1,1
1511885801894597,-1,2,7,4,-1,2,-1,-1
1511885801894597,-1,-4,-5,0,-14,-2,0,-1
1511885801903669,-7,0,4,0,6,3,-1,-1
1511885801903669,3,-4,-14,-2,2,7,-1,-1
1511885801918704,0,1,10,-7,-10,-1,-2,0
1511885801918704,2,-1,4,8,-20,-7,0,-1
1511885801920713,0,-2,-4,-1,10,0,-3,2
1511885801920713,-1,-4,-7,-1,-10,2,-1,-2
1511885801940797,1,1,2,5,7,1,-2,2
1511885801940797,-3,-6,-4,-29,-5,4,-2,1
1511885801942798,0,1,0,24,6,-7,0,-1
1511885801942798,0,0,-10,-4,-59,-1,0,1
1511885801954840,0,1,23,7,23,13,0,0
1511885801954840,-2,-1,-5,2,-9,-3,3,2
1511885801963822,1,-1,-2,-5,29,9,-1,1
1511885801963822,0,1,-3,-6,18,-21,-4,3
1511885801979051,-1,-2,-7,-8,-32,13,2,0
1511885801979051,1,3,8,5,-13,-6,2,3
1511885801980025,-3,-4,-7,-10,14,-3,1,0
1511885801980025,0,2,7,7,5,-6,0,0
1511885802000921,1,3,1,-2,7,-6,0,0
1511885802000921,0,-1,2,6,-2,-6,-1,-5
1511885802002927,4,4,11,-4,-8,1,2,1
1511885802002927,-3,1,-6,-2,12,1,-3,0
1511885802014961,7,-2,-14,-7,-41,-6,2,2
1511885802014961,1,3,15,16,81,21,2,1
1511885802023983,0,-3,-16,-20,-52,-19,2,-3
1511885802023983,-2,-3,7,8,13,-4,-1,-3
1511885802039025,-2,1,-4,-6,-6,-15,-4,-3
1511885802039025,-3,-2,4,-1,-35,-25,-2,0
1511885802040025,-1,-2,-3,-3,38,-5,1,-1
1511885802040025,-2,-2,-7,-6,-4,-6,0,-1
1511885802061246,-2,1,8,5,17,10,5,0
1511885802061246,0,0,-5,-2,-21,-1,-1,-1
1511885802063166,-5,-2,0,2,1,3,-3,-2
1511885802063166,2,1,-4,-5,-14,-10,-2,-1
1511885802075146,-1,0,5,4,30,-7,-3,-3
1511885802075146,-3,-1,-2,-5,-47,-8,0,0
1511885802084149,-2,1,9,-4,-16,-8,4,-2
1511885802084149,1,-1,-19,8,55,12,0,0
1511885802098221,-1,2,16,5,-11,-9,-5,-2
1511885802098221,0,-3,-10,-3,-21,-5,0,0
1511885802100187,0,-2,1,-1,-1,0,-2,0
1511885802100187,0,-3,-5,-7,-15,-7,3,-1
1511885802121245,-1,0,11,4,51,7,0,-2
1511885802121245,0,1,0,0,-12,-9,-2,-1
1511885802123253,0,-2,0,4,31,20,6,0
1511885802123253,1,1,7,-5,-8,-8,-1,1
1511885802135283,-3,-6,-19,0,-16,-9,0,0
1511885802135283,-2,-1,4,4,8,-4,-2,-1
1511885802144312,-2,2,-5,-5,-14,-4,-4,-2
1511885802144312,-2,1,5,-1,-2,3,-1,1
1511885802159351,-2,-2,-7,-9,-7,-7,-3,-1
1511885802159351,2,0,-5,-3,-7,1,-1,-2
1511885802160353,0,1,-1,13,-5,-14,-1,1
1511885802160353,0,-3,2,-5,-22,8,1,-1
1511885802181404,-1,-1,1,1,13,-16,-2,-1
1511885802181404,-1,1,6,-4,-24,-5,-1,-1
1511885802182408,0,-3,-11,-5,-9,2,0,-2
1511885802182408,-1,1,6,-2,5,-5,1,-2
1511885802194707,-2,-1,1,-2,-25,6,1,-1
1511885802194707,-1,1,0,5,15,-14,-4,-2
1511885802203549,1,-1,4,-2,-28,2,-2,0
1511885802203549,-1,-3,-5,0,11,-7,2,-1
1511885802225608,-2,2,2,-6,-11,3,1,1
1511885802225608,1,0,0,7,57,6,1,0
1511885802232629,2,2,2,3,-9,-6,0,-1
1511885802232629,-1,-3,-9,-3,-2,0,-2,-1
1511885802264718,1,0,1,-2,3,0,2,0
1511885802264718,-1,-1,-4,-3,-36,-1,-3,-1
1511885802266722,-2,-1,-2,-4,52,14,1,0
1511885802266722,0,2,6,3,-11,-7,-2,0
1511885802277856,0,2,9,6,12,0,-1,1
1511885802277856,0,-1,1,-3,6,2,0,-1
1511885802284774,0,1,11,0,-8,-2,0,0
1511885802284774,-3,-2,-6,7,-4,-3,-1,0
1511885802292796,0,0,-4,-8,-10,-4,-3,-3
1511885802292796,-1,-2,3,-14,-19,-6,-2,0
1511885802299848,-7,1,1,11,2,-7,-2,-2
1511885802299848,9,2,1,-1,3,-9,0,1
1511885802315896,1,-1,-7,1,-6,5,1,2
1511885802315896,-1,-1,-2,2,10,-11,2,-1
1511885802317857,1,0,-2,-6,-34,1,2,0
1511885802317857,-2,0,5,-8,-18,-17,-2,-2
1511885802330931,-1,0,4,11,53,-10,-1,-1
1511885802330931,-2,-1,1,-6,-53,-17,1,-1
1511885802332900,2,-1,-13,-2,10,-10,-1,0
1511885802332900,-1,2,18,6,6,-4,1,0
1511885802354067,1,-2,-12,-3,-24,-16,0,0
1511885802354067,0,2,-2,-1,23,-11,1,0
1511885802354951,0,0,17,-7,-2,-15,-3,-2
1511885802354951,1,0,-8,-8,12,-9,2,0
1511885802368992,-3,-3,-16,-1,-1,-15,1,0
1511885802368992,-2,-1,2,3,9,-3,0,-2
1511885802369991,-1,0,-6,-12,5,-8,1,0
1511885802369991,0,1,0,1,-33,-11,-1,0
1511885802384029,1,2,16,12,49,-7,1,1
1511885802384029,2,0,-10,-5,-18,-11,1,0
1511885802385031,2,1,20,5,5,-13,-1,1
1511885802385031,-3,-4,-24,-4,10,-13,2,0
1511885802398206,-1,1,8,-3,5,-11,0,-1
1511885802398206,-2,1,5,0,-9,-8,1,0
1511885802405292,-1,-2,-17,5,24,-8,2,-1
1511885802405292,0,3,7,-8,-9,-8,-2,-2
1511885802421283,-2,-1,0,7,-17,-14,-2,-2
1511885802421283,-1,-1,-1,3,34,-10,-2,-2
1511885802423271,-2,-1,-4,-8,-8,-22,-4,-1
1511885802423271,-2,0,-8,-6,-21,11,0,-2
1511885802443342,-1,-1,2,-1,-16,-15,-1,-1
1511885802443342,-1,0,-2,-4,2,1,-1,-1
1511885802445307,1,-1,-6,2,-3,-4,-2,-2
1511885802445307,-3,-3,1,10,9,-7,1,-1
1511885802458344,1,1,0,-6,-10,12,1,0
1511885802458344,-2,0,2,9,10,3,0,0
1511885802464360,-2,-3,-11,-1,-7,3,-3,1
1511885802464360,-1,-1,4,2,27,6,0,-1
1511885802481405,1,1,-2,-11,1,2,0,-1
1511885802481405,1,2,6,9,-6,-1,-2,0
1511885802482411,0,-2,-12,6,34,18,2,0
1511885802482411,-2,-3,9,-7,9,-1,-2,-2
1511885802503463,-2,0,-15,-1,-34,-6,-2,-2
1511885802503463,-1,0,-1,2,-3,7,-1,0
1511885802505469,0,1,12,-5,-42,3,1,2
1511885802505469,-2,0,5,12,40,-1,-2,0
1511885802517536,-1,-1,-2,-11,-14,-4,1,0
1511885802517536,-1,-4,-1,0,8,5,1,1
1511885802526543,1,0,3,3,-41,-7,3,0
1511885802526543,-1,0,-6,-3,-25,-3,-3,-2
1511885802540753,2,0,1,-2,7,0,-2,-3
1511885802540753,-1,-1,-4,-1,12,4,-2,0
1511885802542759,-2,-3,1,-1,9,0,-2,-3
1511885802542759,-1,-3,-6,-1,-1,-1,1,-1
1511885802563813,4,0,5,4,-4,2,-2,-1
1511885802563813,-3,-2,-2,-4,-18,-7,-2,0
1511885802564816,-4,-2,-4,-3,-18,-3,-1,-3
1511885802564816,-1,-3,-5,5,2,-3,-4,-2
1511885802576887,3,1,6,2,-12,9,1,2
1511885802576887,-2,0,-4,0,2,0,0,0
1511885802585869,1,3,2,0,-6,-9,0,-1
1511885802585869,-2,-2,-7,-5,3,7,-1,-1
1511885802600913,-3,-3,-3,3,3,5,1,-3
1511885802600913,-1,-5,-5,-4,0,2,-2,-4
1511885802602916,-1,1,4,0,24,4,-2,-1
1511885802602916,1,1,0,-1,-20,1,-2,1
1511885802623969,-2,1,3,0,-9,2,0,0
1511885802623969,2,-1,-2,-3,10,6,-1,1
1511885802625002,-4,-6,-7,-1,-28,-4,-2,-4
1511885802625002,1,0,3,0,48,-1,-1,-2
1511885802637007,-4,-3,-2,1,4,2,-1,-2
1511885802637007,1,0,-3,-1,-15,-4,0,1
1511885802646028,3,2,6,2,3,4,0,2
1511885802646028,0,-2,-9,-11,-26,-9,-1,0
1511885802661072,-2,-1,6,8,2,-3,-1,-1
1511885802661072,1,-2,-13,-2,-2,0,-2,-2
1511885802663074,2,-1,0,-2,17,-6,-4,0
1511885802663074,1,1,5,-5,-7,3,0,0
1511885802683130,-3,0,0,-6,-6,1,1,-1
1511885802683130,1,0,3,-2,15,-8,-2,-1
1511885802685132,0,1,-3,1,-17,0,-1,0
1511885802685132,-1,-1,0,2,7,7,2,-2
1511885802697167,-3,-3,-7,-11,-24,-9,-3,-1
1511885802697167,-1,-2,6,5,8,0,2,-2
1511885802706188,1,1,2,2,29,-1,0,-3
1511885802706188,1,2,4,5,-12,3,0,1
1511885802721231,0,-2,-3,-1,6,-2,1,-1
1511885802721231,-2,-1,0,-2,1,-5,-1,-1
1511885802723283,0,-1,0,1,9,-1,0,-1
1511885802723283,-1,-2,1,2,-15,-3,1,1
1511885802744328,-1,-2,-8,-5,19,-8,-5,-1
1511885802744328,-1,3,6,-2,17,2,-2,-1
1511885802745335,0,3,1,-8,4,8,1,0
1511885802745335,-4,-5,-15,-19,-4,-5,-1,-1
1511885802757366,-1,0,7,24,10,5,0,1
1511885802757366,1,0,0,9,9,-7,0,-1
1511885802766389,-2,-2,0,-4,-27,3,-1,-1
1511885802766389,-3,2,4,2,10,-6,-3,-2
1511885802781534,0,-1,-4,-14,-14,-3,-4,-4
1511885802781534,-3,-3,-3,-6,-22,1,-3,-4
1511885802782518,1,-1,-1,3,9,-11,-3,-2
1511885802782518,-1,2,4,-2,-7,5,-2,2
1511885802803576,-6,-10,-7,3,-15,-13,-1,-3
1511885802803576,-2,-3,-17,-7,7,12,1,-3
1511885802805582,-2,-2,1,4,-11,3,-2,0
1511885802805582,-1,-3,6,5,-3,-8,-7,-3
1511885802817610,2,4,7,-5,-58,6,-4,2
1511885802817610,-2,-6,0,-2,23,6,0,-1
1511885802833653,-4,-3,-14,-8,-47,-4,-2,-2
1511885802833653,0,1,3,4,7,10,2,0
1511885802840672,0,-2,-1,-3,7,11,1,1
1511885802840672,-2,-2,-1,-16,20,21,2,2
1511885802842677,-1,2,9,8,-32,8,0,2
1511885802842677,1,0,-2,22,-2,13,1,0
1511885802863737,-1,-2,-6,-8,30,10,-1,0
1511885802863737,3,5,6,5,-6,10,0,-1
1511885802864739,3,-1,-9,-10,54,28,3,0
1511885802864739,0,1,-4,-5,7,10,-1,-3
1511885802877841,1,4,8,7,3,2,2,1
1511885802877841,2,5,36,4,-23,5,-3,2
1511885802886803,-3,-9,-52,-3,22,0,-2,-1
1511885802886803,0,1,5,7,38,2,-1,0
1511885802900832,-2,-1,-3,-8,-3,1,-1,0
1511885802900832,0,0,3,5,-14,2,0,-1
1511885802902837,0,2,20,6,30,2,2,2
1511885802902837,2,2,3,-2,-13,9,1,1
1511885802923922,1,-3,0,2,54,-2,-1,-1
1511885802923922,0,-1,-8,-2,-36,-8,-1,0
1511885802924997,1,2,16,4,11,-11,-3,-2
1511885802924997,-2,-3,-12,10,-15,14,2,-1
1511885802937038,2,1,1,-1,-13,-4,0,0
1511885802937038,0,-1,-11,-5,-2,-7,-2,-1
1511885802945952,1,3,9,-8,1,-1,-2,1
1511885802945952,-2,-7,-12,2,-8,-15,0,0
1511885802961061,-1,2,-14,-20,-6,-3,-1,0
1511885802961061,-1,0,0,31,6,-5,1,-2
1511885802962997,0,3,30,-1,-4,-3,-2,-1
1511885802962997,1,4,-18,1,-4,-1,2,1
1511885802984055,-4,-4,13,2,-48,-13,0,-1
1511885802984055,-2,-3,-23,-36,18,-5,1,1
1511885802985056,-1,-2,0,37,-5,-3,-1,-1
1511885802985056,2,5,33,4,-5,-5,-1,-1
1511885802990069,-3,-6,-22,-54,-9,-5,-1,-2
1511885802990069,1,6,15,43,0,-2,0,1
1511885802998095,-2,-1,5,-9,4,-10,1,-1
1511885802998095,-2,-4,-6,-12,-11,-9,1,1
1511885803012131,2,5,0,17,8,-7,2,1
1511885803012131,0,-4,-13,-45,3,-9,-2,-3
1511885803020174,0,-1,0,2,1,-6,0,-1
1511885803020174,-1,-3,-4,-1,20,-10,0,-1
1511885803035193,-2,0,4,8,-6,-1,0,-1
1511885803035193,1,3,15,-1,-11,-19,-2,-2
1511885803036211,-3,-7,-18,-1,-8,-3,0,0
1511885803036211,3,5,2,-10,-1,-3,3,4
1511885803050318,3,2,13,25,33,3,-1,1
1511885803050318,-2,-11,-22,-28,-14,-10,-1,-2
1511885803058341,0,-2,4,-35,-4,1,-2,-1
1511885803058341,-2,0,2,42,-28,-7,2,-2
1511885803072378,0,1,1,24,20,-1,1,0
1511885803072378,0,-1,5,13,-7,13,-2,0
1511885803080400,-1,0,-6,-20,-3,-1,0,1
1511885803080400,-3,-2,11,-17,10,-1,-4,-1
1511885803095479,0,-2,-16,-1,-4,-6,-1,-1
1511885803095479,-2,-3,-5,7,9,-2,1,-2
1511885803096459,1,0,-2,-6,-1,-4,-1,-3
1511885803096459,0,-2,-6,-9,-13,-8,-1,-1
1511885803109477,0,-1,5,8,70,18,1,1
1511885803109477,1,1,-1,-12,-15,-11,0,0
1511885803117500,-3,1,11,16,-9,3,0,-1
1511885803117500,-1,-2,-11,0,0,-6,-3,-1
1511885803132550,-2,-1,1,-11,-13,8,-2,-3
1511885803132550,-1,1,-6,-9,1,3,0,0
1511885803140581,-2,-10,-29,12,12,-9,0,-1
1511885803140581,-1,-1,1,-13,-1,-2,-3,-3
1511885803155714,1,0,-2,-2,-14,0,1,0
1511885803155714,-1,1,10,4,-8,-4,-2,1
1511885803156717,2,2,6,7,27,6,-2,0
1511885803156717,-1,-4,-13,-13,-14,-6,1,-2
1511885803169636,1,0,15,2,-22,4,-1,-2
1511885803169636,-1,-6,-20,1,7,1,-1,-1
1511885803177843,-1,2,1,-3,-12,-2,0,0
1511885803177843,-2,-3,3,-5,6,0,-1,-4
1511885803192867,2,3,10,2,1,-1,2,0
1511885803192867,-2,1,-2,5,4,0,1,0
1511885803200719,-2,-2,-3,-5,-15,-5,-2,-2
1511885803200719,1,0,10,0,5,5,-2,-1
1511885803215759,-2,-3,-13,-2,-25,-9,-2,0
1511885803215759,0,1,6,5,8,-1,-2,-2
1511885803216759,-3,-1,-1,-6,4,-5,-2,-1
1511885803216759,-1,1,0,3,-6,0,-1,1
1511885803229918,0,-1,-2,5,23,12,2,-1
1511885803229918,1,-2,-1,1,-5,2,-1,-1
1511885803238047,0,-1,7,2,-1,7,0,1
1511885803238047,0,-2,-5,-9,-7,-2,-1,-1
1511885803252062,-3,-1,-5,-4,-6,-4,-3,-1
1511885803252062,-2,-1,8,7,4,-3,0,1
1511885803261029,-1,-1,-5,-1,-11,-3,0,-1
1511885803261029,0,-2,3,-1,6,0,0,0
1511885803284063,-2,0,-6,-2,-9,-10,-2,-1
1511885803284063,1,2,3,3,-3,0,0,0
1511885803284063,-1,-1,-1,-1,3,2,1,1
1511885803284063,0,0,0,-3,5,4,-1,0
1511885803290085,-2,0,5,0,-4,-5,2,0
1511885803290085,-2,-1,-4,-2,-2,7,-1,-2
1511885803298103,0,0,-1,2,1,6,1,-1
1511885803298103,-1,-2,1,0,-17,-21,-4,-1
1511885803312323,0,-1,-2,-3,-10,-6,-2,-3
1511885803312323,-1,0,2,1,0,-2,0,-2
1511885803320162,-1,0,0,0,1,0,1,-1
1511885803320162,-1,1,-2,-2,4,2,1,1
1511885803335202,-1,-2,-2,-3,-1,-7,-3,1
1511885803335202,-1,0,-4,-1,-1,-4,0,0
1511885803336201,0,0,1,1,-4,-3,-3,-2
1511885803336201,-2,-1,1,1,2,4,-1,0
1511885803349239,-1,-1,-1,-2,-2,-3,-2,-1
1511885803349239,0,-1,3,3,7,2,1,0
1511885803358289,0,-3,-3,-2,-7,4,0,0
1511885803358289,1,1,0,1,1,-2,0,0
1511885803372340,-1,-1,-3,-3,-2,-3,-2,-2
1511885803372340,-1,0,0,-1,-1,1,-2,0
1511885803380322,-2,-2,-2,-2,-6,-12,-1,0
1511885803380322,0,-1,-2,-1,3,1,1,-2
1511885803396362,-2,-1,0,0,-1,-4,0,-1
1511885803396362,-1,0,-1,-1,-4,-2,-2,-2
1511885803396362,-1,0,-1,0,2,-2,-1,0
1511885803396362,0,0,0,1,2,2,0,1
1511885803409399,1,0,0,-1,-3,1,0,-2
1511885803409399,0,-1,-1,0,-1,-1,-2,1
1511885803418423,-1,0,-1,1,1,-1,-1,0
1511885803418423,-2,0,-1,0,2,0,-1,-2
1511885803432588,-2,0,-1,-3,-1,-1,1,-3
1511885803432588,0,-2,-3,0,-3,-1,0,-2
1511885803440617,-1,-1,0,-1,0,0,0,-1
1511885803440617,-2,0,0,0,-3,0,0,1
1511885803455939,-1,1,0,1,1,2,-1,0
1511885803455939,-1,-1,2,-3,-6,-3,-2,-1
1511885803456787,1,-2,-7,3,6,3,-1,-1
1511885803456787,-1,-3,-1,-5,-11,-9,-3,-1
1511885803469887,0,0,5,3,2,-2,0,2
1511885803469887,-3,-4,-11,-7,-4,-4,-1,-2
1511885803476817,-1,1,9,1,3,0,-2,-2
1511885803476817,0,0,0,0,2,4,-1,-1
1511885803492147,-2,-7,-24,-1,-2,-9,1,1
1511885803492147,0,1,5,2,2,-1,3,1
1511885803500167,2,3,19,2,-4,-3,0,1
1511885803500167,-4,-10,-41,-8,0,-1,-1,-2
1511885803515142,0,0,11,-3,-7,-4,-3,-2
1511885803515142,0,-3,-5,0,14,1,0,-2
1511885803516035,-2,-1,3,-3,-2,-1,-1,1
1511885803516035,2,5,18,4,2,4,0,1
1511885803530280,2,1,3,10,2,-2,-1,0
1511885803530280,-1,1,-5,-22,-12,4,1,3
1511885803537118,0,-7,-21,-2,-1,1,0,0
1511885803537118,-1,-2,-2,2,4,-3,2,-1
1511885803552135,-1,-1,3,-2,1,-2,0,-2
1511885803552135,1,3,19,9,1,-2,-1,-1
1511885803560416,0,1,2,-1,-2,-1,-1,-1
1511885803560416,1,-1,4,-6,3,6,-3,1
1511885803575421,0,-1,-5,10,5,1,0,-1
1511885803575421,0,1,4,-3,-8,-5,2,0
1511885803576329,0,-1,-10,-7,-2,-5,0,-1
1511885803576329,-1,0,-1,3,-2,-10,-1,-2
1511885803589387,1,2,6,-8,-1,-3,1,-1
1511885803589387,-1,-2,-9,-1,0,-8,1,0
1511885803597386,-1,-2,-3,6,-5,-9,-1,-1
1511885803597386,0,4,13,1,-3,-12,2,0
1511885803612429,-2,1,-2,-4,1,-10,3,0
1511885803612429,0,0,-2,5,1,-14,3,-1
1511885803620567,-1,2,-2,-4,0,-18,2,0
1511885803620567,1,1,2,2,0,1,2,0
1511885803634505,0,-7,-7,-4,-4,83,-12,2
1511885803634505,-2,-3,-5,3,-1,4,-9,-2
1511885803643505,-5,9,5,-2,2,-93,16,3
1511885803643505,-1,20,5,3,3,-128,47,6
1511885803649547,0,32,10,6,9,-128,73,14
1511885803649547,6,16,9,7,9,16,43,13
1511885803657573,9,-22,-7,0,3,116,-36,-1
1511885803657573,1,-40,-14,-7,-6,127,-84,-15
1511885803672683,-4,-42,-16,-14,-15,127,-95,-21
1511885803672683,-9,-25,-12,-5,-11,106,-65,-19
1511885803680703,-8,-7,-4,-6,-6,37,-26,-11
1511885803680703,-4,-2,0,-3,-5,-9,-6,-5
1511885803694928,0,3,3,-2,-3,-65,5,-1
1511885803694928,1,6,3,2,0,-72,13,1
1511885803702939,0,9,4,2,2,-65,22,2
1511885803702939,1,10,4,1,3,-76,21,4
1511885803709877,2,10,3,1,3,-87,23,4
1511885803709877,2,6,3,0,4,-65,16,1
1511885803716810,2,3,1,1,0,-11,11,2
1511885803716810,1,3,3,-1,0,-1,9,3
1511885803731839,0,-1,-2,-1,-1,27,0,0
1511885803731839,1,-6,-3,1,-1,44,-2,0
1511885803741003,-1,-3,0,-4,0,34,-3,-1
1511885803741003,-2,-1,1,-4,-1,20,-6,-1
1511885803755010,-2,-3,-3,-2,-2,4,-10,-1
1511885803755010,-1,-5,-2,-1,-2,-3,-6,-1
1511885803762918,-2,3,2,3,-2,0,-2,0
1511885803762918,-2,0,-1,0,-2,5,3,-1
1511885803769941,-3,-3,-11,-2,-1,-9,1,-3
1511885803769941,1,4,19,-5,-1,-43,1,0
1511885803776959,0,-1,-15,7,2,-31,6,-1
1511885803776959,0,1,-1,-4,1,-14,5,1
1511885803791999,-1,1,-1,-6,0,-15,3,1
1511885803791999,-2,1,4,10,0,-23,6,1
1511885803800020,0,4,11,-2,0,-22,4,2
1511885803800020,1,-3,-5,0,0,16,-3,2
1511885803815061,0,0,6,2,0,-5,12,2
1511885803815061,-2,-1,-1,-3,-1,0,-4,-4
1511885803823120,1,0,-4,-3,-1,5,1,0
1511885803823120,-1,-1,2,4,-3,-12,2,-1
1511885803838161,1,1,4,1,0,3,-3,-1
1511885803838161,0,0,-8,-1,0,-4,-2,-1
1511885803839145,0,1,1,0,-1,-4,0,-2
1511885803839145,-1,0,1,0,-1,2,0,1
1511885803852198,2,4,10,-5,-3,10,-4,0
1511885803852198,-5,-11,-38,-2,5,-2,-2,-2
1511885803860291,-1,-3,-4,-8,-1,-1,-1,1
1511885803860291,-3,-2,-2,0,0,2,0,-2
1511885803875380,-2,-5,6,2,-2,2,-3,-1
1511885803875380,2,1,2,-6,-3,0,-2,-2
1511885803883313,-1,-2,-4,6,1,5,-1,-1
1511885803883313,-1,-2,3,-1,-1,1,-2,1
1511885803898353,1,3,-6,-1,-2,9,-1,0
1511885803898353,-1,-1,1,0,-2,-2,2,-1
1511885803898353,-1,-2,2,4,-1,-10,-7,-3
1511885803898353,0,3,14,2,-1,7,7,1
1511885803912564,0,-3,-19,5,1,5,-2,-1
1511885803912564,0,-1,5,-6,-2,-7,0,1
1511885803920503,-1,0,4,-3,-1,3,-1,-1
1511885803920503,0,0,9,11,4,6,-2,-1
1511885803934450,-2,-5,-29,-11,1,2,-3,-2
1511885803934450,-1,1,15,3,-2,-1,-2,1
1511885803942467,1,3,6,-1,-4,-2,-1,0
1511885803942467,-1,-3,12,-3,-3,-4,-3,-1
1511885803958554,-1,3,-31,-1,1,1,6,1
1511885803958554,0,-3,4,-3,-1,-4,-2,-1
1511885803958554,2,17,8,0,-1,2,-2,-1
1511885803958554,0,-17,2,2,1,1,-2,-3
1511885803972601,-18,-11,5,-5,-10,-3,-3,-4
1511885803972601,-2,-1,0,9,-1,-3,-2,-3
1511885803980610,2,7,27,-8,-10,-7,0,1
1511885803980610,4,-4,-58,-7,-10,3,4,2
1511885803994649,7,5,11,6,39,0,1,1
1511885803994649,2,12,37,3,-8,-7,-3,1
1511885804002669,1,-2,-53,-5,1,7,-6,-1
1511885804002669,-4,4,25,-3,1,9,8,2
1511885804017696,5,8,34,12,-12,4,0,1
1511885804017696,-2,-9,-15,9,10,-7,-4,1
1511885804018703,-4,-16,10,-3,2,-8,0,-2
1511885804018703,-4,0,-8,-4,-10,-3,2,-3
1511885804032732,3,6,-7,-6,-5,6,-3,1
1511885804032732,6,26,24,7,15,11,0,1
1511885804040728,-10,-33,-9,-1,-14,-7,-3,-2
1511885804040728,-5,-4,-26,-6,4,-5,-6,-4
1511885804054885,-1,-1,15,-12,-10,-9,4,-1
1511885804054885,8,11,-11,1,-5,6,1,1
1511885804062787,8,24,7,4,3,5,2,5
1511885804062787,-9,-21,3,2,-2,-7,-5,-1
1511885804077830,-3,-6,17,-3,-5,-2,-5,-3
1511885804077830,-8,-19,-64,-11,1,1,-3,-5
1511885804078829,-2,-4,8,-5,3,-1,4,-2
1511885804078829,10,21,18,11,5,7,-2,2
1511885804092900,6,8,-5,5,-3,-11,-1,3
1511885804092900,-2,-1,15,-5,-5,5,2,-2
1511885804100888,-7,-10,2,6,3,-8,0,-1
1511885804100888,-4,-2,1,-8,-2,-13,-2,-1
1511885804114929,-2,-10,-20,0,3,-9,-1,-2
1511885804114929,-2,-1,-7,-7,-5,-7,3,2
1511885804123135,5,12,15,3,5,4,3,1
1511885804123135,6,7,24,4,1,3,-1,1
1511885804138149,1,-2,-38,-11,10,11,-2,1
1511885804138149,9,12,6,-11,-19,3,-1,1
1511885804138994,-4,-27,-4,9,2,11,-4,-4
1511885804138994,-10,-11,-17,-9,5,10,-6,-1
1511885804152179,0,2,20,7,-12,8,-4,-3
1511885804152179,5,16,11,10,4,13,-6,0
1511885804160046,-6,-8,-18,-19,-3,-8,0,-4
1511885804160046,-2,-4,3,6,2,-15,2,-3
1511885804175280,-2,3,7,2,0,-26,4,1
1511885804175280,-11,-11,-27,-13,1,-35,3,-4
1511885804183106,-4,12,11,3,-1,-18,6,3
1511885804183106,12,42,11,2,3,-7,2,2
1511885804197145,-8,-29,14,6,-2,-26,4,3
1511885804197145,-12,-21,-3,-6,1,-52,8,0
1511885804206177,5,14,-7,2,7,-42,10,4
1511885804206177,5,7,-14,2,0,-16,7,2
1511885804212236,8,8,6,3,-2,86,-9,3
1511885804212236,0,-28,1,-2,-4,124,-26,-5
1511885804221212,1,-16,-15,-9,-7,127,-32,-10
1511885804221212,6,-8,-4,-26,-9,109,-30,-11
1511885804235251,8,14,16,35,-2,24,-13,-10
1511885804235251,-1,-22,-11,8,2,-41,2,-4
1511885804243459,-4,-6,-12,2,3,-99,11,-2
1511885804243459,-2,9,-7,-19,-17,-120,15,2
1511885804257307,-7,3,6,3,8,-57,16,4
1511885804257307,-2,13,5,-2,-4,-38,11,6
1511885804266328,1,9,4,5,-2,-8,2,5
1511885804266328,-4,-10,-2,2,11,14,5,4
1511885804272461,-5,-6,-10,-15,-4,15,-2,-1
1511885804272461,-2,6,6,3,-1,1,0,0
1511885804281631,1,3,-2,-5,0,-1,0,0
1511885804281631,-4,-9,3,7,2,-2,-1,0
1511885804294790,1,1,-7,-9,-9,-12,0,-1
1511885804294790,0,3,-2,1,2,-12,3,-2
1511885804303691,-3,-4,3,-1,0,-3,3,-2
1511885804303691,-3,-4,-3,3,-2,-11,0,-4
1511885804317724,-2,2,-4,-4,0,-9,1,0
1511885804317724,0,0,0,-14,2,-5,0,2
1511885804334769,3,3,7,9,1,3,0,0
1511885804334769,0,0,-1,10,-3,-1,-1,2
1511885804334769,-2,-3,-7,-6,1,-6,-1,-2
1511885804334769,1,-1,1,-9,-3,6,0,-2
1511885804341787,1,3,-1,-6,-2,-2,-2,-2
1511885804341787,0,-1,-2,5,-3,-7,1,0
1511885804354822,-4,-4,5,-4,-2,-1,-2,-1
1511885804354822,-2,0,-8,-4,2,-1,-2,1
1511885804363878,-2,0,-2,-10,-17,9,-1,0
1511885804363878,-1,-1,5,12,1,3,-3,-1
1511885804377884,-1,0,0,-3,0,-12,-3,-2
1511885804377884,1,2,4,6,1,0,-1,-1
1511885804385908,-2,0,-1,-2,-2,-2,-1,-1
1511885804385908,-2,-5,-6,-8,-2,-4,-3,-1
1511885804392155,-1,0,3,4,-2,4,-1,-1
1511885804392155,2,-1,-1,-6,6,5,2,1
1511885804401210,-3,1,5,12,5,1,-1,1
1511885804401210,-4,-2,-4,-2,2,4,1,-2
1511885804415255,0,-2,-6,-6,-3,-3,0,-1
1511885804415255,-2,-4,1,2,10,1,2,-2
1511885804423273,2,0,-1,-4,-25,2,-9,1
1511885804423273,0,0,-1,-2,1,-1,1,-1
1511885804437360,1,0,-4,0,7,5,7,0
1511885804437360,-1,0,3,4,2,-1,-12,0
1511885804446337,1,0,-2,1,0,-6,7,3
1511885804446337,5,-1,1,2,7,18,-28,-7
1511885804452390,-6,-1,-2,-4,-4,-15,0,3
1511885804452390,-6,1,0,0,-14,-11,-11,-4
1511885804461374,-1,-2,-3,-4,-7,-13,26,-1
1511885804461374,-2,-1,-2,-2,0,1,-22,2
1511885804474413,0,-2,-4,-9,-17,-2,-9,0
1511885804474413,1,3,4,11,6,16,19,4
1511885804483464,-2,-1,1,-10,6,-15,-26,-4
1511885804483464,-1,-2,-2,-2,2,-6,24,1
1511885804497505,0,0,-3,-5,-4,1,1,-2
1511885804497505,-1,1,0,1,-11,-1,-2,2
1511885804506491,1,-2,-1,-1,-6,8,3,-3
1511885804506491,1,-1,-1,-1,23,2,1,0
1511885804512509,-4,-2,-2,-1,19,1,8,-1
1511885804512509,-3,-2,0,-6,-32,-22,-15,-6
1511885804521531,1,1,-1,4,20,10,0,1
1511885804521531,-4,-3,-4,-6,-34,-25,18,1
1511885804534589,1,-1,0,2,-7,-6,-7,-7
1511885804534589,7,-2,-1,0,7,5,0,3
1511885804543627,-12,1,1,3,4,4,-2,-1
1511885804543627,1,1,3,2,9,6,-32,5
1511885804557662,9,-4,-4,-11,-2,8,69,5
1511885804557662,2,-2,3,11,-1,-8,-7,-1
1511885804566685,2,1,-3,-2,2,-12,-8,0
1511885804566685,1,-2,4,10,11,18,10,-2
1511885804572708,-2,0,1,1,-1,-21,-18,1
1511885804572708,2,0,-1,-3,-6,13,5,1
1511885804581696,2,-2,-2,4,10,-12,11,-1
1511885804581696,-2,1,0,-3,-8,5,10,-3
1511885804594841,-1,0,1,1,10,-11,-45,-3
1511885804594841,-2,-2,-2,-2,0,3,7,-1
1511885804603749,-2,0,-1,-1,-2,1,-8,-3
1511885804603749,1,1,1,-4,1,-5,5,-2
1511885804617787,0,0,-2,-1,-6,3,-6,-3
1511885804617787,-3,-1,-2,1,8,-3,8,2
1511885804626009,1,-1,-1,-2,0,3,-14,-1
1511885804626009,2,0,0,1,-11,14,5,0
1511885804631827,-2,-1,1,-2,10,-19,-3,-2
1511885804631827,-3,0,-5,-8,7,-8,-7,-1
1511885804640856,-3,1,5,17,4,0,7,0
1511885804640856,-1,-4,-5,-19,-69,-42,-2,-3
1511885804655104,-4,-2,4,10,1,-2,-11,-3
1511885804655104,0,0,-4,3,26,11,6,-1
1511885804664145,-1,0,1,-6,7,10,0,0
1511885804664145,-4,-7,-10,-1,19,4,-2,-1
1511885804677275,0,-1,-8,-12,-12,4,2,-2
1511885804677275,-1,0,3,8,-3,-13,-7,-2
1511885804686187,3,-4,-2,-4,-12,8,5,0
1511885804686187,-1,1,1,-7,-11,-4,-3,2
1511885804692280,1,-1,-1,3,11,7,-3,-1
1511885804692280,-1,-2,0,-3,32,18,12,2
1511885804701389,0,-2,-4,-11,-27,3,-24,-1
1511885804701389,2,3,4,8,22,7,4,1
1511885804714704,-1,-1,3,15,-12,4,-3,-1
1511885804714704,-3,0,-1,3,7,-5,-2,-3
1511885804723635,0,-1,-1,2,3,2,5,0
1511885804723635,-1,0,-1,-4,8,7,0,-2
1511885804737716,-1,-1,-1,-5,6,11,-2,1
1511885804737716,-1,0,-1,-2,-49,-1,-4,-1
1511885804746783,1,-1,2,-6,6,-16,-14,-1
1511885804746783,0,0,-1,12,16,8,-7,-2
1511885804760862,2,-1,-1,0,4,22,3,2
1511885804760862,1,0,1,-7,-3,18,6,1
1511885804762821,-3,-3,-7,-10,6,1,-8,-3
1511885804762821,-2,1,5,0,-7,-12,5,-1
1511885804774855,-2,-1,2,10,-13,-1,-1,1
1511885804774855,2,1,-2,-3,26,3,-20,-1
1511885804783879,2,1,-1,-1,8,5,19,1
1511885804783879,-1,-3,-3,-8,4,10,-24,2
1511885804796911,2,1,1,-3,14,-6,4,2
1511885804796911,-1,-1,2,-3,43,-6,4,-2
1511885804806937,-1,1,-2,-2,-16,5,5,-2
1511885804806937,0,-2,-1,4,-14,-2,10,-2
1511885804821071,-3,0,0,2,-6,-3,-8,2
1511885804821071,1,-1,2,-2,-17,2,1,-1
1511885804822980,-1,-1,0,1,-27,-14,2,0
1511885804822980,-8,-3,-4,3,1,15,10,-1
1511885804835128,6,4,0,-5,-9,0,5,1
1511885804835128,1,2,2,7,-8,-3,-31,1
1511885804844035,-2,-2,-1,-2,18,0,25,-1
1511885804844035,-1,-2,-1,0,5,1,2,-1
1511885804857158,-2,-1,1,0,-11,-12,-2,-1
1511885804857158,-2,-2,4,4,59,0,4,-3
1511885804866181,3,-1,0,6,33,-7,-8,1
1511885804866181,1,-1,-1,-6,-44,-12,-1,0
1511885804881224,-1,-2,-2,-8,-9,3,6,-3
1511885804881224,2,-1,-4,-1,26,9,5,3
1511885804883227,-1,-2,0,-2,-31,32,11,1
1511885804883227,2,-1,1,2,-1,1,-2,-2
1511885804895262,1,-1,-4,-2,11,10,-1,-1
1511885804895262,-4,-2,-3,-4,-35,0,-21,-2
1511885804904288,-3,1,0,2,-35,-4,19,-3
1511885804904288,-1,0,-1,-1,-33,8,-7,-1
1511885804917320,-1,-1,-1,-3,2,-12,2,-2
1511885804917320,-3,-1,-1,-1,-22,-7,-2,-2
1511885804926346,7,-2,-4,-1,12,-7,-11,1
1511885804926346,0,0,0,0,2,-6,6,0
1511885804941390,-4,-4,-1,-1,7,-15,-20,-1
1511885804941390,1,-1,0,-6,-45,-17,26,-2
1511885804942385,-3,2,2,2,-1,15,-6,1
1511885804942385,3,1,1,3,24,-4,5,5
1511885804955419,-2,-5,-7,-8,7,-1,1,-3
1511885804955419,0,0,-1,-4,-20,-6,4,0
1511885804963439,-2,1,4,7,11,-20,-12,-3
1511885804963439,4,1,-3,-2,7,4,-4,0
1511885804977480,-2,-1,-2,1,0,-7,1,-2
1511885804977480,-1,-2,-2,-12,-5,1,3,-1
1511885804986505,2,-1,0,5,-50,-4,-5,-1
1511885804986505,4,-2,-2,-8,-21,-36,-8,-4
1511885805001544,-1,0,-2,-1,-28,0,19,0
1511885805001544,-2,-2,-3,-2,3,-4,-42,-1
1511885805002547,-1,-1,-2,-7,-29,-2,-3,0
1511885805002547,-2,-1,-3,-6,20,5,2,1
1511885805014578,-4,-2,3,2,-2,2,2,0
1511885805014578,3,-2,-3,5,-21,-2,12,1
1511885805023600,-2,-1,0,0,26,0,-3,0
1511885805023600,-4,0,-1,5,15,14,-4,-2
1511885805037639,7,4,3,2,-9,5,2,5
1511885805037639,-4,0,-2,-1,-14,13,6,1
1511885805046665,-2,-6,-4,-8,-58,-50,-12,-3
1511885805046665,0,1,2,-1,31,9,6,0
1511885805061729,-4,0,-1,1,8,-2,0,0
1511885805061729,1,0,1,2,-3,-7,9,-1
1511885805062703,-3,-1,-3,0,11,-13,-3,1
1511885805062703,2,0,1,-4,4,-5,-1,-2
1511885805074922,-3,1,-1,-2,-9,-4,-9,0
1511885805074922,3,-2,-2,1,-6,0,13,2
1511885805083759,-2,0,-3,3,42,14,-13,-1
1511885805083759,-3,-1,3,-12,-2,-2,-5,-3
1511885805097831,0,0,2,14,16,-5,-3,-1
1511885805097831,-1,-1,-2,-1,-6,1,5,-2
1511885805106820,-1,-3,-3,1,51,27,4,1
1511885805106820,-1,0,2,4,-31,5,3,1
1511885805120966,0,-1,-1,-10,-13,6,-5,-1
1511885805120966,-2,-2,-1,1,17,-3,1,0
1511885805122863,1,1,1,-6,-18,-3,0,-2
1511885805122863,-3,-3,-4,-1,-4,-4,0,-3
1511885805134905,0,-2,0,-4,6,-3,1,-1
1511885805134905,-1,2,4,3,8,5,7,-2
1511885805143921,1,0,2,1,15,8,2,3
1511885805143921,-2,0,-1,3,7,-3,2,-1
1511885805156954,1,2,2,-5,-6,0,-6,-2
1511885805156954,-3,-5,-5,-5,-9,-13,-1,-3
1511885805165978,-2,1,0,4,-2,6,1,-1
1511885805165978,-1,-2,-5,-11,-1,-2,1,1
1511885805181018,0,-2,3,13,0,3,4,-2
1511885805181018,-1,2,1,-4,-17,6,-5,3
1511885805183122,3,-3,-1,-1,24,11,3,-1
1511885805183122,-2,1,-1,2,-4,-3,-5,1
1511885805195058,0,2,-6,-11,2,-18,-6,-3
1511885805195058,2,-1,3,5,6,9,-2,1
1511885805204238,-9,2,1,-3,-19,5,8,-3
1511885805204238,0,-1,-1,-1,6,-15,-9,-3
1511885805217211,-1,-4,-6,-3,-1,-3,-1,-4
1511885805217211,3,2,4,6,22,8,-2,0
1511885805226137,1,-2,-2,-2,36,0,1,1
1511885805226137,-2,0,-1,-6,-10,2,1,0
1511885805241266,1,-1,1,10,-7,-6,-2,1
1511885805241266,-5,4,1,11,2,-4,-4,-2
1511885805243182,6,-1,-3,-9,-1,-6,-3,1
1511885805243182,1,1,5,-1,7,1,2,-1
1511885805255346,-1,-4,-4,-1,2,5,0,0
1511885805255346,1,-1,1,-8,-13,-4,1,-1
1511885805263463,-1,0,0,4,-12,4,-2,0
1511885805263463,-2,-2,-2,6,0,1,-1,-1
1511885805277619,-2,0,-3,-8,57,-27,-4,-2
1511885805277619,-2,0,-1,4,6,15,3,0
1511885805286527,-1,-1,2,-4,1,-9,2,0
1511885805286527,-1,-1,-1,0,-6,0,-1,0
1511885805300589,2,1,5,4,-4,12,-2,4
1511885805300589,-1,-1,4,-2,-8,-15,-3,-1
1511885805307618,0,0,-3,-1,-5,-1,1,-2
1511885805307618,-1,-3,-3,1,4,-2,2,-2
1511885805314603,-9,-3,-3,-5,-14,5,3,0
1511885805314603,1,-1,-5,-8,-8,-8,1,-1
1511885805323643,8,-1,0,4,-8,-2,-4,-1
1511885805323643,-12,1,0,-5,-6,-3,5,1
1511885805337665,0,-3,3,0,-10,5,-2,0
1511885805337665,-1,-3,-6,-3,4,9,-3,0
1511885805346812,-2,0,-2,-5,2,-10,2,-2
1511885805346812,6,2,0,12,13,7,0,1
1511885805361028,4,2,6,1,1,4,0,1
1511885805361028,-2,-3,-8,-2,-23,-7,0,0
1511885805366866,-5,-2,4,-9,-45,3,-4,-2
1511885805366866,1,3,-2,7,43,-10,0,0
1511885805406972,-2,2,0,3,-2,26,4,-1
1511885805406972,7,-4,0,-1,11,0,-1,-1
1511885805408978,0,2,2,-1,-19,-10,-3,0
1511885805408978,3,-1,-5,-9,3,6,0,2
1511885805420010,-4,-5,-3,13,-39,-7,1,-2
1511885805420010,-1,1,-8,-14,-13,-8,-4,-1
1511885805429032,-2,0,6,6,17,-4,-1,0
1511885805429032,-6,-7,1,-2,-6,-7,-3,-4
1511885805444090,-2,-2,-9,-26,7,-8,-1,-1
1511885805444090,-2,3,21,19,1,9,1,-2
1511885805445075,-3,-1,-26,9,5,6,1,-1
1511885805445075,3,8,-1,4,-2,-6,1,0
1511885805458187,-3,-5,19,-8,-15,-6,-1,-2
1511885805458187,-6,-10,-22,-10,17,-11,-3,-4
1511885805459176,-1,0,-13,-6,-17,-4,-2,-2
1511885805459176,-1,1,-2,6,-2,-7,-2,0
1511885805473325,2,5,-1,-7,48,17,-1,1
1511885805473325,0,3,14,-2,6,2,-2,2
1511885805480167,2,0,4,6,22,20,0,-2
1511885805480167,3,-8,-11,-9,-11,7,-2,-1
1511885805487322,-2,2,-1,1,-20,2,-4,-3
1511885805487322,9,-4,-4,10,0,5,2,-3
1511885805496210,-10,-2,3,-1,21,5,-2,0
1511885805496210,3,3,5,2,-2,8,1,-1
1511885805503231,2,-5,-7,-5,-10,0,1,-2
1511885805503231,-1,-5,-11,-5,-6,-1,-2,0
1511885805505234,-3,-5,-6,5,-8,0,-6,0
1511885805505234,1,2,8,-10,-2,6,-2,-2
1511885805517271,0,1,-5,14,2,11,-1,-1
1511885805517271,-4,1,-2,-6,-11,-3,-1,-1
1511885805526289,1,0,13,0,33,9,-1,0
1511885805526289,-7,-10,-9,-4,-46,-1,-2,-3
1511885805540331,2,4,5,-2,-11,6,1,0
1511885805540331,-4,0,-13,-1,-19,5,-2,-2
1511885805548349,-3,1,1,-1,23,10,2,-2
1511885805548349,-1,0,0,3,-5,0,-2,0
1511885805554407,0,0,2,1,-6,-13,0,0
1511885805554407,-3,0,4,-6,11,-7,-2,-3
1511885805563389,3,-2,-1,-2,-29,-3,0,-1
1511885805563389,-1,-5,-8,-2,23,17,-1,-1
1511885805577614,-3,-1,-1,9,-16,-9,0,-1
1511885805577614,5,1,5,-1,6,-5,-2,1
1511885805586450,0,-1,-5,-15,-4,-14,-2,-2
1511885805586450,-2,-2,1,-2,-5,3,-1,-2
1511885805600487,-4,-3,-12,-10,9,-7,-1,0
1511885805600487,-3,0,7,6,-6,11,2,-2
1511885805607794,1,2,-6,-1,2,-1,-1,0
1511885805607794,-1,-1,13,9,-4,-7,-1,-1
1511885805614839,4,-3,-7,-2,-1,9,-2,-1
1511885805614839,-3,-1,-2,-8,12,-3,-2,-1
1511885805623839,-5,1,3,-2,-35,-16,0,-2
1511885805623839,-2,1,1,3,13,4,-2,-1
1511885805636876,8,-1,-2,4,18,-5,-1,-2
1511885805636876,-26,-2,-7,0,-31,6,5,3
1511885805645897,-1,-1,4,-2,11,11,1,0
1511885805645897,3,1,-2,3,12,-6,0,-1
1511885805660957,-4,-3,8,3,-11,-3,-3,0
1511885805660957,8,-1,-7,-12,5,-8,-2,-1
1511885805666953,1,1,2,4,8,-5,-1,-1
1511885805666953,-1,-1,-5,15,-22,0,2,2
1511885805707063,-3,-2,0,-11,-7,5,0,-1
1511885805707063,-1,0,8,7,22,3,0,-1
1511885805709065,-1,-2,-3,-6,0,-2,-3,-1
1511885805709065,3,0,-15,-16,-56,-11,-2,0
1511885805720152,0,0,-1,9,-12,5,2,0
1511885805720152,2,0,2,10,42,13,1,1
1511885805729121,2,-1,2,0,-7,-2,7,1
1511885805729121,-4,-1,6,-7,-14,-3,-13,-1
1511885805744207,-2,1,1,6,16,10,2,0
1511885805744207,-11,-2,-4,-7,-15,-15,1,-3
1511885805744207,9,0,1,0,10,-19,-4,2
1511885805744207,0,1,0,-1,35,18,9,1
1511885805758205,-2,3,-5,-4,-5,-24,0,0
1511885805758205,0,1,-1,-7,1,-15,-5,0
1511885805759200,-1,5,7,12,1,-7,-1,-1
1511885805759200,-2,-1,4,-3,13,-16,2,-2
1511885805773361,-5,-4,-17,-10,-40,-15,-2,-1
1511885805773361,7,3,3,2,-24,-15,2,-1
1511885805775287,-2,-3,-4,2,23,-14,0,-1
1511885805775287,4,1,2,-1,14,-12,4,0
1511885805787318,-1,3,4,-3,-1,-11,-1,-1
1511885805787318,4,2,4,5,-1,-16,-4,-3
1511885805796308,-3,-2,-9,-3,13,-15,-5,-3
1511885805796308,-6,-7,-12,-16,-59,-26,-5,-3
1511885805811457,-1,-1,10,8,26,-7,1,-1
1511885805811457,2,-1,-3,1,-27,-5,1,-2
1511885805812342,-2,3,8,5,18,0,2,2
1511885805812342,-2,-2,-9,-7,31,4,-3,-3
1511885805824411,-8,-4,-21,-8,-42,-14,1,-4
1511885805824411,-2,-4,-2,-13,-15,-8,-3,-2
1511885805833402,0,1,4,2,-6,4,-2,-1
1511885805833402,-3,-4,-2,2,7,-9,0,-3
1511885805848442,3,0,3,2,1,7,-1,0
1511885805848442,-7,-1,-4,-15,22,6,-3,-1
1511885805850445,2,0,1,10,-28,3,1,2
1511885805850445,3,0,7,-1,0,-2,-2,2
1511885805871548,-1,2,-1,-2,21,-2,-3,-2
1511885805871548,0,-3,-7,3,-3,9,0,0
1511885805872504,0,-3,-2,-9,-3,3,-2,-2
1511885805872504,0,3,4,6,0,5,0,-1
1511885805884535,2,-2,-3,-13,7,-7,0,0
1511885805884535,0,0,0,10,-8,5,-2,-1
1511885805893590,-1,-1,-3,-4,2,7,-1,-1
1511885805893590,-2,2,3,11,17,2,1,-1
1511885805908599,4,-3,-2,-4,46,20,-1,-2
1511885805908599,-4,0,-2,1,6,3,-2,0
1511885805910606,-2,0,8,-2,-41,2,-1,1
1511885805910606,1,1,0,0,9,-2,0,0
1511885805930657,-2,0,6,4,-11,4,-3,-2
1511885805930657,2,-1,-1,3,-4,-2,0,-2
1511885805932659,0,-3,-6,-5,14,11,-2,-2
1511885805932659,-1,-3,1,-4,8,17,0,1
1511885805944693,-3,-1,-16,-2,-6,-9,-1,-1
1511885805944693,2,-1,0,6,70,2,-3,-1
1511885805953715,-4,0,5,-5,-45,-16,-2,-3
1511885805953715,3,1,-10,-3,19,7,2,1
1511885805967756,-3,-1,11,4,8,16,-4,0
1511885805967756,4,-4,-4,-8,-34,-13,-3,0
1511885805975004,-3,-2,-18,-7,-13,-2,-1,-2
1511885805975004,-5,0,7,4,-2,1,-2,-2
1511885805991035,7,-1,1,0,-1,6,-1,2
1511885805991035,-1,0,-11,-10,-10,2,0,-1
1511885805992963,6,0,12,13,2,4,-2,-2
1511885805992963,-5,-8,-12,6,-17,0,2,1
1511885806013999,-3,0,-1,-3,-8,-4,-1,0
1511885806013999,3,1,7,3,11,17,3,0
1511885806014997,1,-1,-5,1,36,9,0,0
1511885806014997,-1,3,9,-8,-24,-2,-1,-1
1511885806028139,1,-1,10,6,-4,0,0,-2
1511885806028139,1,-1,-14,-4,34,13,0,-1
1511885806035054,-3,1,2,-2,-23,13,1,0
1511885806035054,-1,3,2,6,45,5,-1,-3
1511885806051096,-2,1,3,-2,-49,-7,1,-1
1511885806051096,1,-1,3,0,-72,-7,-1,-1
1511885806053103,-3,-3,-6,-4,33,6,0,-4
1511885806053103,0,1,4,0,-2,2,-2,-1
1511885806073254,1,0,-5,2,20,1,-1,-1
1511885806073254,-3,-1,5,3,-5,-1,1,0
1511885806075157,-2,-2,0,-4,-5,-8,-3,-2
1511885806075157,-1,-2,-5,0,6,3,0,0
1511885806088305,-3,0,-9,-4,9,3,-2,-3
1511885806088305,-2,-3,7,9,26,-1,0,-1
1511885806095255,-2,0,1,-9,-34,-2,-1,0
1511885806095255,0,-2,-2,-3,10,3,-1,-1
1511885806111374,0,-1,-4,1,3,-1,-4,-1
1511885806111374,-2,1,10,-3,-8,-4,-3,-2
1511885806112264,-1,-1,-9,0,31,4,0,0
1511885806112264,-1,0,4,1,-33,-9,-2,1
1511885806133316,-1,-1,14,-2,-8,-11,-3,0
1511885806133316,1,-4,-22,-5,9,-2,-3,-2
1511885806135317,-1,-3,0,-3,-49,-9,-1,-1
1511885806135317,-9,-1,-3,-6,18,4,-2,-3
1511885806148354,6,-1,0,0,31,4,1,2
1511885806148354,1,1,5,1,-46,-10,0,0
1511885806154493,-3,-2,-3,1,12,14,2,-2
1511885806154493,-2,-2,-2,-4,-14,-13,0,-4
1511885806171417,-2,0,0,0,-13,-4,-3,-2
1511885806171417,-4,1,3,7,16,2,1,2
1511885806172444,-2,-6,-9,-4,-1,-5,-4,-1
1511885806172444,1,-1,0,1,26,2,1,2
1511885806193589,-3,-4,-3,2,14,11,2,0
1511885806193589,2,1,0,-4,-5,7,0,2
1511885806195477,-2,1,3,0,6,6,0,1
1511885806195477,0,-1,1,2,-2,10,-1,0
1511885806207510,-1,-1,-4,-2,-10,1,3,0
1511885806207510,0,1,1,-6,6,5,-1,0
1511885806214531,1,2,3,15,-24,0,-1,-2
1511885806214531,-1,-2,1,0,23,4,-1,-3
1511885806231574,0,-2,-8,-4,-32,3,0,1
1511885806231574,1,-1,1,-6,-10,0,-1,-2
1511885806232576,-1,-2,-2,-4,-42,3,2,-1
1511885806232576,4,-2,0,0,-14,-7,-3,-2
1511885806253731,-2,-1,0,-2,3,-15,-5,-2
1511885806253731,-1,0,-7,2,32,9,1,-2
1511885806255721,-1,1,3,-1,25,4,-1,-3
1511885806255721,2,0,1,0,-17,10,-1,0
1511885806267673,2,0,2,-1,-10,4,0,2
1511885806267673,-2,-4,2,6,-1,-13,-2,-3
1511885806274692,1,0,-15,-1,33,8,3,1
1511885806274692,-1,-2,2,-6,-5,1,-2,0
1511885806290731,-2,-1,-4,3,4,6,1,-1
1511885806290731,1,0,-2,-1,-6,2,-3,-1
1511885806292737,-1,1,5,-5,-8,-18,-5,-2
1511885806292737,2,1,-1,0,4,5,1,-1
1511885806313957,-2,-2,5,15,21,11,5,0
1511885806313957,-2,-3,2,-6,3,1,0,-2
1511885806314944,2,-1,-2,-7,-1,-8,-1,2
1511885806314944,2,3,0,2,20,-4,0,0
1511885806327829,0,1,-1,-5,20,-2,-2,-1
1511885806327829,-7,-1,-2,-3,-16,-5,2,-2
1511885806335926,6,1,4,1,14,-3,-1,1
1511885806335926,6,-1,-4,-6,-19,-1,0,0
1511885806350891,-2,0,2,7,7,1,0,3
1511885806350891,3,-2,-4,-3,3,-4,0,2
1511885806352896,-8,-2,-6,0,-3,1,1,0
1511885806352896,0,1,16,27,-16,-14,0,1
1511885806373984,-1,2,-6,-11,3,-4,0,-2
1511885806373984,0,0,10,14,-17,-5,-4,0
1511885806374984,-1,-3,-18,-17,-26,-14,0,0
1511885806374984,-1,-2,-11,-9,-9,-4,3,0
1511885806387104,-3,1,3,-2,-15,-16,1,-2
1511885806387104,1,0,6,3,-3,-3,1,0
1511885806396011,0,2,6,5,18,-1,0,-1
1511885806396011,-1,1,3,-4,5,-10,-1,-2
1511885806411250,-1,-1,-1,-7,-47,-4,-1,0
1511885806411250,2,-3,-4,-1,13,-4,1,2
1511885806412257,7,0,4,1,1,-6,-2,1
1511885806412257,-1,-1,-7,-6,12,-12,-1,-2
1511885806433216,1,-1,0,-2,7,13,-5,-4
1511885806433216,-7,1,-2,5,-8,1,-1,0
1511885806435222,4,0,0,1,-14,-9,-1,0
1511885806435222,-2,0,5,10,-3,-9,-1,-1
1511885806447299,0,-3,-6,-9,4,-11,0,0
1511885806447299,-2,0,-1,-4,-2,-5,2,-1
1511885806456273,-5,-3,1,3,8,-2,-1,-1
1511885806456273,1,1,0,-6,-26,-12,-1,2
1511885806471313,1,1,2,-1,-1,-12,0,2
1511885806471313,0,-1,4,5,-23,-10,1,-1
1511885806472320,-1,1,8,-4,11,-8,0,-2
1511885806472320,0,-2,-16,-2,1,-1,0,0
1511885806494510,-2,0,3,-1,-2,-24,-2,-1
1511885806494510,0,0,-3,-10,-26,-25,-5,-3
1511885806499486,0,1,2,1,-27,-6,0,1
1511885806499486,-5,-2,3,-3,2,-3,-1,-2
1511885806507421,2,1,5,4,6,1,2,0
1511885806507421,2,2,-9,-4,23,-3,-1,-1
1511885806516434,-5,-2,-4,3,42,-10,1,-2
1511885806516434,-2,-1,-4,-10,-32,-8,2,-1
1511885806530646,0,2,6,-1,20,-6,1,1
1511885806530646,1,0,4,14,26,1,4,1
1511885806532646,1,1,2,2,21,2,-2,-2
1511885806532646,1,1,-3,-1,-3,-1,-1,-1
1511885806553705,-3,-3,-9,-7,7,1,-1,-5
1511885806553705,-2,0,-1,-10,-43,-2,-4,-1
1511885806555708,-5,-1,-1,-4,-22,-6,-1,-2
1511885806555708,-3,-1,0,-1,14,0,-1,0
1511885806566973,-1,-3,-3,2,-10,-1,1,0
1511885806566973,-1,-3,-2,-4,1,-5,-2,-2
1511885806575948,-1,-2,-2,-1,-22,1,0,0
1511885806575948,0,-2,2,-1,7,-3,-2,-1
1511885806591227,-1,-1,0,2,-19,12,0,-1
1511885806591227,-1,-3,-9,-5,19,8,-1,-2
1511885806593117,-1,-2,2,4,9,18,0,-2
1511885806593117,1,-1,-5,9,7,5,-2,1
1511885806613142,-1,-1,3,2,-4,1,-4,-1
1511885806613142,-1,0,3,-1,4,7,0,-1
1511885806615147,0,4,28,1,23,10,-4,-1
1511885806615147,-4,-7,-42,-23,-13,1,-3,-3
1511885806627352,-3,-6,14,21,5,2,-1,-2
1511885806627352,2,2,4,-2,-24,10,-1,-1
1511885806636203,-1,-2,-2,5,15,13,0,2
1511885806636203,0,1,18,3,1,21,0,0
1511885806651246,-1,-2,-13,-15,3,3,-4,-1
1511885806651246,-1,-2,-10,-5,-13,6,-3,-2
1511885806652249,-1,-3,3,3,-2,15,-2,-2
1511885806652249,0,0,2,-1,-3,5,-1,-1
1511885806705390,0,0,-9,-4,-3,11,-2,0
1511885806705390,-2,-4,-4,3,24,12,-1,-1
1511885806707398,0,-1,-12,-7,-7,5,1,-1
1511885806707398,-1,-2,2,2,2,6,-2,-1
1511885806713409,0,2,-3,2,-3,11,1,0
1511885806713409,1,1,27,7,14,15,1,0
1511885806714414,-1,-3,-34,-5,0,13,-2,2
1511885806714414,1,-3,-1,-2,-3,4,0,-1
1511885806715418,4,8,28,9,9,6,0,2
1511885806715418,1,0,21,4,0,-8,-1,-1
1511885806717420,-4,-17,-68,-18,3,-1,0,-3
1511885806717420,-1,1,15,-17,-36,-12,2,0
1511885806726448,0,3,0,17,-3,-6,0,-1
1511885806726448,1,-1,19,-7,16,2,-4,0
1511885806727445,2,7,17,6,-4,-3,2,2
1511885806727445,0,-6,-14,-6,18,8,-1,-1
1511885806739478,-1,-4,-12,-11,1,6,-3,-2
1511885806739478,0,4,1,9,-11,6,2,2
1511885806748533,1,1,11,-3,-4,-5,-1,0
1511885806748533,0,1,0,8,15,7,1,0
1511885806762618,-1,-3,-5,-3,-6,-5,-1,-1
1511885806762618,0,-2,-13,5,-21,-11,2,0
1511885806769561,0,-1,15,-2,-1,14,-2,-1
1511885806769561,0,7,30,8,-7,-8,1,-1
1511885806786603,-4,-16,-43,-7,11,-3,-1,-4
1511885806786603,-3,-1,-17,-13,4,-9,-1,-1
1511885806787605,0,0,9,2,5,-7,0,-2
1511885806787605,2,4,17,9,-7,-7,-3,-2
1511885806799641,2,2,11,0,11,13,3,1
1511885806799641,-2,-5,-18,-4,7,6,0,-2
1511885806808666,-2,-1,8,0,-22,-9,0,0
1511885806808666,-3,-4,-8,1,12,-4,-3,0
1511885806822704,0,1,-2,-4,-13,-1,1,1
1511885806822704,-1,1,-4,0,4,1,1,1
1511885806829756,-1,1,10,3,-9,-13,-3,-2
1511885806829756,-2,-6,-12,-7,-16,7,0,0
1511885806845799,0,3,0,-1,6,-5,3,-1
1511885806845799,0,2,5,2,3,-1,-1,0
1511885806847773,1,-1,-3,-2,7,-10,0,-1
1511885806847773,0,-1,-6,2,3,-13,0,0
1511885806859907,-1,2,8,-1,-2,4,1,2
1511885806859907,-1,-1,-7,-3,3,-11,1,-1
1511885806868821,-2,0,-1,-2,7,-2,1,0
1511885806868821,-2,1,-1,4,3,-9,-3,-1
1511885806882862,0,0,4,1,-4,-8,-1,-1
1511885806882862,0,-1,-3,-5,3,-5,-1,0
1511885806889881,-2,1,2,-2,-8,-19,1,1
1511885806889881,-2,0,-3,9,0,-2,3,1
1511885806906097,-1,-5,-12,-10,-2,-12,-2,-2
1511885806906097,-1,-1,-4,-2,3,-10,-3,-3
1511885806907927,1,0,10,4,-4,-5,-3,-2
1511885806907927,1,2,-5,-3,3,1,4,-2
1511885806920071,-1,-1,0,1,0,-8,-5,-2
1511885806920071,-2,-3,-8,-1,-6,-6,-4,-1
1511885806929093,-3,0,-1,-1,-2,17,8,-1
1511885806929093,-5,-2,-2,-2,1,-6,-3,-1
1511885806943235,-1,-1,0,-1,-1,4,-2,0
1511885806943235,-1,0,-1,-3,-1,6,-1,-2
1511885806950150,-1,-1,-1,1,-2,-6,-8,-2
1511885806950150,0,-2,0,1,1,10,2,-1
1511885806966194,-2,-1,-1,-1,-4,-6,2,-3
1511885806966194,-1,-2,0,3,-2,8,-3,0
1511885806968200,-1,-1,-2,0,0,5,-1,0
1511885806968200,0,-3,-6,-4,-1,9,-3,-2
1511885806980230,2,1,2,-1,-1,7,-2,0
1511885806980230,0,-2,-1,2,1,12,1,-2
1511885806989254,0,-1,-3,0,-3,4,-2,-1
1511885806989254,1,-1,1,-1,-1,2,-1,-1
1511885807003333,-3,-2,0,1,-1,9,-3,0
1511885807003333,-2,-1,-1,-1,1,6,0,1
1511885807009348,-2,-4,-5,-3,-4,5,-2,-3
1511885807009348,-1,-3,-1,-2,-1,10,-3,0
1511885807026481,1,0,1,0,0,10,-2,-2
1511885807026481,1,-1,-2,-2,-1,10,0,-2
1511885807027356,0,-1,1,2,1,9,-2,-1
1511885807027356,-4,-4,-2,-4,-2,8,-1,0
1511885807039389,-2,-1,-2,-2,0,3,0,-1
1511885807039389,-2,0,2,0,-1,-1,1,0
1511885807048410,1,-2,-5,-2,-3,-3,0,-1
1511885807048410,1,1,3,0,-4,7,-1,-2
1511885807062448,0,0,5,3,-2,-5,-1,0
1511885807062448,-1,-2,-9,-5,0,-1,1,-2
1511885807069469,-2,2,4,1,2,-7,-1,-1
1511885807069469,-1,-2,4,2,1,20,0,0
1511885807086515,-2,0,-7,-3,-1,-9,-2,-1
1511885807086515,1,-1,3,1,-1,3,0,-1
1511885807087514,0,0,-2,-1,0,-6,0,-1
1511885807087514,-1,-1,3,-1,-2,-9,-3,0
1511885807099768,-1,1,0,1,0,5,2,-1
1511885807099768,1,-2,0,-1,-1,-6,-1,0
1511885807108790,0,0,-1,-3,-1,5,-1,-2
1511885807108790,0,1,-4,0,1,-4,0,-1
1511885807122832,1,-1,-2,-3,-2,-2,1,0
1511885807122832,-1,-2,-3,1,1,0,0,0
1511885807130019,-1,-4,-1,-1,-1,2,0,0
1511885807130019,1,1,1,2,1,-5,0,0
1511885807153914,-1,1,0,1,-1,-2,-1,-1
1511885807153914,1,0,2,0,-1,-1,-3,-1
1511885807154946,-2,1,-1,0,-4,5,-2,-1
1511885807154946,-1,-2,-3,-1,3,-3,0,-1
1511885807167977,-2,-1,0,-2,-2,0,-1,0
1511885807167977,-3,-2,-2,1,2,3,-4,-2
1511885807175969,-2,-1,-3,-3,-1,-1,1,0
1511885807175969,-1,-1,-1,0,-1,-2,-2,-1
1511885807190035,0,-3,1,2,-2,1,-1,-1
1511885807190035,0,0,-1,-3,-1,0,0,-1
1511885807199054,0,0,0,-1,0,-7,0,1
1511885807199054,-2,-1,0,-4,-2,-10,-2,-1
1511885807213068,0,0,1,0,1,-6,0,0
1511885807213068,0,0,1,-1,-1,-11,0,0
1511885807215073,1,-1,1,0,2,-6,0,-3
1511885807215073,2,-2,0,-2,-1,-10,1,0
1511885807227105,-1,0,-2,-1,-1,-9,-2,0
1511885807227105,-2,1,-1,0,-3,-8,2,0
1511885807236129,0,0,1,1,-1,-8,1,1
1511885807236129,0,2,-1,-2,-1,-9,-1,0
1511885807251172,2,-3,-2,-2,-1,27,-6,-2
1511885807251172,1,-12,-4,-2,-2,112,-21,-2
1511885807257187,-3,0,-1,0,-1,-73,-1,-2
1511885807257187,-2,22,5,1,0,-99,42,6
1511885807273420,1,32,13,5,8,-128,71,15
1511885807273420,3,27,12,9,12,-128,67,16
1511885807275235,6,9,2,4,5,20,27,9
1511885807275235,3,-13,-7,-4,-3,110,-21,0
1511885807287264,1,-30,-13,-5,-3,125,-62,-13
1511885807287264,-2,-31,-13,-9,-13,127,-73,-18
1511885807296288,-5,-22,-12,-8,-11,127,-61,-17
1511885807296288,-7,-17,-8,-5,-11,55,-41,-14
1511885807310506,-7,-10,-3,-6,-7,69,-24,-8
1511885807310506,-4,-4,-1,-1,-4,-20,-8,-5
1511885807317348,-2,3,1,-1,-3,-78,6,-3
1511885807317348,-4,8,5,2,3,-77,15,3
1511885807333387,5,7,1,0,0,-82,13,5
1511885807333387,0,7,2,-1,3,-86,23,5
1511885807335393,2,7,5,3,1,-55,19,5
1511885807335393,1,2,0,1,1,-33,11,4
1511885807356453,-2,1,1,-1,1,-33,4,0
1511885807356453,0,2,1,-2,-1,1,5,1
1511885807357452,-1,-1,0,0,1,44,0,2
1511885807357452,-1,-5,0,-2,-2,41,-8,-1
1511885807370530,-1,-4,-5,0,-2,40,-8,-4
1511885807370530,0,0,0,1,-2,26,-5,-5
1511885807377541,-1,-3,-3,-1,0,19,-3,-2
1511885807377541,1,1,6,0,-3,-36,-2,-1
1511885807393583,-3,-4,-21,-6,0,-40,7,2
1511885807393583,-1,4,3,1,1,-40,9,3
1511885807395554,0,1,3,0,1,-20,2,0
1511885807395554,1,2,0,1,2,-16,3,1
1511885807415606,0,5,8,1,-1,-30,7,0
1511885807415606,0,0,-2,-2,1,2,1,0
1511885807417612,-1,-3,-3,-1,0,25,2,-1
1511885807417612,-1,-1,-1,1,-1,41,-9,-2
1511885807430649,0,-4,0,0,-3,39,-9,-3
1511885807430649,-1,-4,-9,-5,3,-2,-5,-2
1511885807437668,0,3,11,-2,-1,-13,-2,-1
1511885807437668,-4,-4,-20,-3,2,-13,-1,-2
1511885807453833,-1,0,8,3,-2,-12,0,0
1511885807453833,-1,3,1,2,-1,-15,1,1
1511885807455714,1,1,-1,1,-1,-19,4,1
1511885807455714,2,2,2,-1,0,-15,5,1
1511885807475770,-1,0,0,-1,-1,-8,0,1
1511885807475770,0,1,8,-1,0,-5,-2,0
1511885807477797,-1,1,-3,1,0,-2,1,1
1511885807477797,1,1,0,-3,-1,-3,3,-2
1511885807490807,-2,-5,-11,2,2,-4,-3,-1
1511885807490807,-1,2,4,0,-1,6,2,-1
1511885807496825,1,7,1,-2,-1,-6,-4,-5
1511885807496825,-6,-7,0,-5,-2,0,0,2
1511885807513871,0,0,2,-2,1,9,-1,-2
1511885807513871,-6,-5,-3,-2,-5,-4,-1,0
1511885807514875,-7,-9,-6,5,0,0,-2,-3
1511885807514875,0,-20,-12,-4,0,-4,-3,-3
1511885807536115,1,7,2,-3,-1,-1,1,-2
1511885807536115,5,6,14,-1,-3,7,-3,0
1511885807537932,2,2,-8,0,0,2,-4,2
1511885807537932,2,7,7,7,-2,10,-3,0
1511885807549964,3,-2,4,-6,0,5,1,2
1511885807549964,9,16,9,0,1,0,1,1
1511885807556983,-2,-1,-17,-16,-3,1,3,5
1511885807556983,-9,-28,-6,12,-3,-4,-8,-7
1511885807574031,-2,1,0,-2,-5,-6,-3,-5
1511885807574031,-4,-6,-5,-1,3,12,2,0
1511885807575031,11,23,25,7,0,-1,-1,0
1511885807575031,-4,-12,-6,-5,0,-4,-1,2
1511885807596089,-7,-10,-3,-3,3,1,-1,-4
1511885807596089,-6,0,-1,2,-9,-3,1,-4
1511885807598095,-3,-1,8,6,2,-4,-2,0
1511885807598095,12,21,8,-3,2,5,2,6
1511885807610294,7,26,6,-2,-1,10,-1,1
1511885807610294,-6,-28,-26,-2,3,-5,-2,0
1511885807619283,-6,-5,-1,4,-4,-1,-3,-4
1511885807619283,-7,-15,-3,-6,-1,1,-2,-5
1511885807633319,0,6,11,6,-2,7,7,2
1511885807633319,0,8,3,-4,0,-1,-1,-1
1511885807635324,6,13,-11,-4,-1,2,0,4
1511885807635324,4,-2,9,-2,-1,2,-2,1
1511885807656572,-10,-17,0,6,-2,1,-7,-5
1511885807656572,0,1,-19,-7,-3,-7,-1,-2
1511885807657383,-2,-14,-6,1,0,-5,3,-2
1511885807657383,4,23,-1,-7,-2,1,-1,2
1511885807669594,0,-3,12,8,-1,-1,0,2
1511885807669594,-2,-3,-7,-6,-2,-2,1,0
1511885807678443,-1,-1,8,2,1,3,0,1
1511885807678443,-1,1,-19,-9,-1,-2,0,-5
1511885807693482,-2,-4,2,0,-1,-4,-2,-1
1511885807693482,2,-1,6,7,1,0,1,0
1511885807695488,9,-1,-2,-2,-1,-2,1,4
1511885807695488,-13,-3,5,3,-1,2,0,-6
1511885807716574,-6,-8,-14,-5,0,-5,-1,-3
1511885807716574,-3,-2,-5,-3,-3,-6,-3,-3
1511885807717543,0,-1,0,-2,0,0,2,-1
1511885807717543,6,14,11,1,2,-1,2,4
1511885807729599,3,8,5,6,0,1,-1,3
1511885807729599,-2,-28,-10,0,-1,-1,1,0
1511885807738599,-16,-12,2,3,-3,-9,-2,-7
1511885807738599,1,5,-2,1,0,-2,-1,-2
1511885807753820,2,14,1,-12,-1,3,2,2
1511885807753820,11,22,38,18,1,0,-1,3
1511885807755740,-1,-10,-6,-1,-1,-4,-3,1
1511885807755740,-8,-11,-8,-1,0,3,10,-2
1511885807775699,0,-23,-6,-1,1,14,1,-2
1511885807775699,-1,-1,-31,-10,1,0,-3,-1
1511885807777702,1,17,14,1,-1,2,-1,-1
1511885807777702,1,4,17,5,-4,5,-1,1
1511885807789738,-3,-7,-5,-8,-3,-1,-1,-3
1511885807789738,-1,2,-15,-5,6,5,0,-2
1511885807798760,1,0,2,8,-4,-1,2,1
1511885807798760,6,10,0,0,1,-5,-8,0
1511885807813803,-3,-16,18,8,-2,-8,-1,1
1511885807813803,2,14,-9,-6,-3,-1,-4,0
1511885807814803,-7,-16,-9,-2,-5,-3,-2,-3
1511885807814803,-6,-6,-13,-7,-1,-1,2,-1
1511885807835861,-3,-5,-11,-6,-11,-13,-2,-2
1511885807835861,-1,-1,-7,1,2,-8,-2,-3
1511885807837864,6,8,9,-8,-1,17,-2,3
1511885807837864,2,0,30,22,-2,-2,-7,3
1511885807849895,-2,7,-21,-12,8,14,9,-1
1511885807849895,-3,-6,-7,9,-10,-19,2,-1
1511885807859088,-6,-7,0,-6,-2,-3,-4,-4
1511885807859088,4,5,-2,-9,0,-12,-11,-2
1511885807873128,5,7,11,6,1,0,-6,4
1511885807873128,-5,-3,12,-8,3,6,7,0
1511885807875136,-2,-10,-20,0,-2,-7,2,0
1511885807875136,0,0,7,1,4,-2,3,-1
1511885807896191,2,8,-10,5,-1,-5,-1,1
1511885807896191,1,-2,20,6,2,0,2,1
1511885807897193,-2,-3,-21,-6,3,-3,0,-2
1511885807897193,0,2,8,-5,-5,0,2,-2
1511885807918263,1,1,-3,0,0,-9,0,0
1511885807918263,-4,-4,0,-3,-2,-1,-6,-3
1511885807920279,-3,-2,-4,-7,0,-2,0,-1
1511885807920279,0,0,-1,5,2,4,-2,-2
1511885807933286,0,3,3,0,-1,1,2,-2
1511885807933286,-2,-1,-4,-4,0,-1,0,0
1511885807939418,0,2,4,-1,-2,-13,-3,-1
1511885807939418,0,-5,-20,-1,0,13,3,-1
1511885807956350,-3,0,7,0,0,-2,-2,0
1511885807956350,0,2,8,1,-3,0,11,0
1511885807957348,0,-1,2,-9,-4,-14,-5,-1
1511885807957348,-4,-1,-3,6,4,12,7,0
1511885807978448,1,-2,-1,0,0,-7,-2,-2
1511885807978448,0,2,16,-1,0,5,-3,-1
1511885807980413,-2,-5,-27,-8,2,-2,2,-1
1511885807980413,0,-1,4,-3,4,-7,1,0
1511885807992447,-1,-3,-4,0,1,-5,-8,-1
1511885807992447,0,1,4,8,-7,3,10,2
1511885807999506,2,2,33,8,4,8,1,-1
1511885807999506,0,-3,-39,-7,0,5,-3,0
1511885808016511,0,1,6,-2,-1,-2,3,0
1511885808016511,-1,-2,-5,-4,0,-14,-7,-1
1511885808017513,-1,2,14,6,0,3,0,-1
1511885808017513,-1,-4,-7,-1,-5,-4,0,0
1511885808038567,-1,-1,-3,-2,4,0,-2,0
1511885808038567,-2,-2,-4,-3,-3,4,-3,-3
1511885808040569,0,1,1,5,-2,-1,-2,-1
1511885808040569,1,0,4,-9,-1,-8,-2,0
1511885808052783,-1,0,-6,9,-3,-1,2,1
1511885808052783,-1,0,1,0,-1,-7,-7,0
1511885808061629,-2,2,-6,-2,-1,-1,1,-1
1511885808061629,-1,0,11,-1,-1,4,-3,-1
1511885808076668,2,0,-12,-12,-3,6,12,-1
1511885808076668,-3,-6,3,14,1,-3,-3,-3
1511885808077669,1,0,3,1,5,0,1,1
1511885808077669,-1,-2,1,-1,-8,-14,-2,-1
1511885808089701,2,4,10,-4,-6,9,0,0
1511885808089701,0,-1,10,-4,-2,5,-4,-1
1511885808098725,-1,-3,-16,0,3,15,1,-1
1511885808098725,-1,-3,-2,-7,0,-3,1,0
1511885808113879,-1,-2,-4,-1,2,4,-4,0
1511885808113879,0,-1,-4,-4,-4,-12,0,0
1511885808114881,0,0,7,6,2,5,0,-1
1511885808114881,0,-1,1,2,1,-1,0,0
1511885808135940,-4,-4,-3,-8,-15,-16,-8,-4
1511885808135940,1,0,-3,8,-1,-1,-2,-1
1511885808137942,-1,0,2,-2,4,4,1,-2
1511885808137942,0,-1,-4,2,-8,-5,3,-1
1511885808149974,0,-3,-4,1,5,3,-2,0
1511885808149974,-3,2,-4,-10,3,2,-1,2
1511885808158999,-1,-3,-3,-6,-12,-5,-1,-1
1511885808158999,-1,0,4,2,2,1,-1,-1
1511885808173159,-2,-4,1,0,-1,-10,-4,-1
1511885808173159,0,0,-8,-8,-17,-8,-2,-2
1511885808175042,-3,-2,2,0,2,-10,-1,-2
1511885808175042,0,2,-1,1,3,-1,-3,-2
1511885808196374,-1,0,1,1,7,11,2,-2
1511885808196374,-1,-1,-4,-6,-22,5,-5,-1
1511885808198268,-2,1,-3,2,0,-1,3,0
1511885808198268,-2,-2,0,-6,-4,-6,-1,0
1511885808209291,0,0,-1,2,8,-4,-3,-1
1511885808209291,1,-2,0,0,3,-12,-1,0
1511885808218315,0,1,-2,-4,-2,3,3,-1
1511885808218315,-3,-3,-1,1,-21,-3,-8,-4
1511885808233367,1,-3,-3,1,6,-12,0,-4
1511885808233367,0,-1,-1,3,18,34,5,0
1511885808239368,-19,-1,2,0,1,-10,0,4
1511885808239368,-1,-2,-2,-1,-7,-7,2,3
1511885808256623,1,1,1,5,2,13,13,-1
1511885808256623,9,2,1,1,16,12,5,0
1511885808257441,-1,-1,-2,-1,1,6,-10,0
1511885808257441,-3,-1,1,1,9,1,-1,0
1511885808269464,-2,0,-2,-1,-5,9,-15,-1
1511885808269464,-2,0,1,1,9,3,-11,2
1511885808278485,4,-3,-3,-9,8,2,20,1
1511885808278485,3,2,3,12,-21,-3,-3,0
1511885808292513,0,-2,1,-2,18,1,6,2
1511885808292513,-2,0,-1,-3,-33,-28,3,-1
1511885808299531,6,1,-1,-3,6,6,-12,-3
1511885808299531,1,-1,-1,-5,-14,-25,-9,-1
1511885808315574,-2,1,-2,1,2,-3,-1,1
1511885808315574,-2,0,1,1,9,-1,-2,-2
1511885808317576,2,-1,0,0,-5,-3,3,-1
1511885808317576,-2,1,-1,-1,15,14,6,0
1511885808338632,-2,-4,-4,1,-6,0,-3,1
1511885808338632,0,-2,-5,1,3,-9,-3,-2
1511885808339635,4,0,2,4,-1,-1,-4,-1
1511885808339635,1,0,-2,-9,29,16,6,-3
1511885808352672,1,3,3,3,-21,-4,-6,0
1511885808352672,0,-1,2,2,0,22,10,1
1511885808359726,-1,1,-1,2,-9,-12,-15,-4
1511885808359726,3,1,1,2,22,6,-3,3
1511885808375734,-2,1,1,-7,10,-12,0,-1
1511885808375734,-3,-1,0,-3,-22,8,4,-1
1511885808377736,1,-2,-4,-2,2,15,4,-3
1511885808377736,-1,-2,0,2,-2,5,-1,0
1511885808398796,2,-1,-4,1,4,-5,2,0
1511885808398796,-4,-3,1,2,-10,3,-8,-2
1511885808399799,-1,-2,-2,-4,-19,-1,-2,-1
1511885808399799,-1,0,-2,-1,-7,-10,13,-4
1511885808412829,-2,0,-2,-1,-2,-15,-21,-1
1511885808412829,0,1,-1,0,22,1,1,0
1511885808419848,-1,0,1,-1,-50,-11,3,0
1511885808419848,3,-1,-1,2,32,16,7,0
1511885808435891,-4,0,1,-1,-22,-5,6,1
1511885808435891,-2,-1,-6,-1,-1,-20,-4,-3
1511885808437896,0,-2,0,-6,17,-6,-14,-2
1511885808437896,-1,0,-6,-8,-21,-5,7,-1
1511885808459108,0,0,4,9,15,20,4,-1
1511885808459108,1,-1,-1,-1,-1,-9,0,2
1511885808459971,-1,0,0,-2,10,2,-1,1
1511885808459971,0,-1,0,0,-4,-10,-26,-1
1511885808473186,-3,1,-2,-4,4,9,11,-7
1511885808473186,-2,0,1,-1,29,-10,-3,-1
1511885808480032,0,-1,-1,9,13,6,8,-1
1511885808480032,-4,0,-4,-4,-40,11,-5,0
1511885808496221,-1,-3,-3,-2,13,-12,-10,0
1511885808496221,1,0,0,1,-35,-18,2,1
1511885808498056,0,-2,-4,-3,-4,1,6,-1
1511885808498056,0,1,4,6,27,2,5,0
1511885808518112,-1,0,-4,-7,-20,-16,-3,-1
1511885808518112,-2,-1,5,4,24,4,0,-3
1511885808520114,1,-1,-1,2,-43,-7,0,-1
1511885808520114,-1,0,0,-1,-54,-17,2,-2
1511885808533149,1,-5,-6,-9,29,9,2,1
1511885808533149,-2,1,-1,-6,-35,0,-3,-3
1511885808540224,-1,0,4,4,27,-5,1,1
1511885808540224,-2,-1,-2,2,4,8,1,-1
1511885808556214,2,-1,1,0,-19,2,-1,1
1511885808556214,2,-2,-1,-4,-5,7,-1,0
1511885808557213,0,-1,-4,-1,10,16,-12,1
1511885808557213,0,-1,-1,3,22,-1,13,-2
1511885808578444,0,-1,-1,-2,15,6,0,-1
1511885808578444,-1,-1,-2,-6,-3,2,5,-2
1511885808580275,1,1,0,6,-1,-12,-11,0
1511885808580275,1,-3,-2,-7,15,8,3,-2
1511885808592502,0,-1,1,7,-22,-11,-18,1
1511885808592502,0,-2,-4,-3,55,13,-3,-2
1511885808601331,0,-2,-1,-1,14,-10,8,0
1511885808601331,-2,1,0,0,7,12,-5,1
1511885808616556,1,0,4,1,-23,-11,2,-4
1511885808616556,-1,1,-3,-4,-37,-9,-16,1
1511885808617499,2,1,-2,4,68,19,49,2
1511885808617499,-2,0,0,1,1,-6,-2,-1
1511885808638667,-1,-2,-2,-5,-18,-3,-5,0
1511885808638667,0,-2,-1,3,39,4,8,0
1511885808640561,-2,-1,0,-3,-77,-12,-10,0
1511885808640561,-1,0,2,2,23,-16,-6,1
1511885808652595,-3,-2,2,1,16,-4,6,-1
1511885808652595,0,-1,-2,-1,1,-1,-2,0
1511885808661616,-2,-1,0,-4,-10,-10,-11,-3
1511885808661616,-1,0,-1,0,11,3,-1,0
1511885808676700,0,0,-2,-2,-28,-8,-5,-2
1511885808676700,-2,-1,-2,-1,4,0,9,0
1511885808677661,-1,-2,1,-1,42,12,-3,-2
1511885808677661,2,-1,-1,-8,-42,-16,3,-2
1511885808698718,-2,1,-3,-1,15,13,8,1
1511885808698718,0,0,0,5,-6,-2,-2,0
1511885808699721,0,-1,-1,-2,-2,4,-9,-1
1511885808699721,0,-1,-2,-8,18,11,5,-1
1511885808712794,1,0,2,5,11,19,3,0
1511885808712794,2,-1,0,-2,-22,-4,1,1
1511885808721788,-1,0,-2,-7,-15,-5,-3,-1
1511885808721788,1,3,5,12,16,20,-4,3
1511885808735905,0,-1,-2,-6,-25,-13,0,-4
1511885808735905,-1,-1,-1,-2,12,-1,-4,0
1511885808737819,-2,-2,-3,-1,-30,-6,1,-1
1511885808737819,-3,-4,-3,1,-4,-5,-6,-2
1511885808759086,-2,-2,-2,-5,1,-1,0,-2
1511885808759086,1,3,2,-1,5,-2,3,-2
1511885808759891,1,-1,-2,-3,0,-4,-5,-1
1511885808759891,-9,-2,-3,0,-10,-9,0,0
1511885808771926,1,0,0,2,0,-7,2,1
1511885808771926,2,-4,-2,-1,35,-6,-7,-2
1511885808780947,-4,1,0,-1,12,8,4,2
1511885808780947,0,-1,-1,-4,-75,-18,-4,-2
1511885808796179,-3,1,-1,-1,53,1,0,-2
1511885808796179,1,2,-1,-8,-33,-5,2,0
1511885808798106,-3,-1,1,7,7,-5,-6,-1
1511885808798106,0,-3,-2,0,0,-7,-1,-2
1511885808819057,-3,-2,-1,0,-22,-4,6,0
1511885808819057,0,1,1,2,-6,-3,-7,1
1511885808820052,-1,-1,-2,-5,-5,-27,-1,-1
1511885808820052,4,-1,-1,-2,2,6,-5,0
1511885808832083,2,-3,-6,-4,-4,-1,7,1
1511885808832083,-5,-4,3,1,0,0,3,-2
1511885808841107,-2,-1,0,4,-1,-1,-4,-1
1511885808841107,0,3,5,-6,7,-3,1,0
1511885808856150,-1,-1,-10,4,27,5,-7,1
1511885808856150,-1,2,-3,-3,0,2,-1,0
1511885808858157,0,0,-4,-2,-8,1,-2,0
1511885808858157,0,-4,0,5,25,2,1,0
1511885808878386,0,0,-3,-3,-8,15,-1,0
1511885808878386,-6,1,3,7,-1,6,1,-2
1511885808880212,4,4,-3,-2,16,7,4,-1
1511885808880212,-2,-4,3,5,-14,-12,-4,0
1511885808893286,-3,-1,4,-3,2,-1,-3,-1
1511885808893286,-3,-7,-7,-3,-10,-3,1,-1
1511885808901267,1,3,5,0,-5,-1,1,-1
1511885808901267,8,0,-3,-3,14,9,-4,-1
1511885808916353,-6,0,1,2,-17,-7,-2,-2
1511885808916353,4,2,-1,-3,-1,-7,2,3
1511885808917315,-2,-3,-1,-1,-4,11,2,-2
1511885808917315,-6,-3,-6,0,6,-4,-3,-3
1511885808938408,7,2,4,-1,-2,-1,0,0
1511885808938408,-3,1,3,5,-1,-5,0,0
1511885808940375,1,1,2,0,3,-4,-5,-2
1511885808940375,-3,1,-2,8,6,-5,-1,-1
1511885808952406,-2,-6,-1,-5,-23,5,-2,-3
1511885808952406,-1,-5,-5,-2,-26,4,3,0
1511885808961515,6,1,10,-2,31,13,1,3
1511885808961515,0,-1,-20,3,-28,-1,-1,0
1511885808976556,1,-5,-6,-3,-2,-11,-2,0
1511885808976556,2,4,3,2,-12,-16,0,-1
1511885808977557,-4,-1,-2,-5,-12,1,-3,0
1511885808977557,-1,-2,5,-6,22,-8,-3,-2
1511885808998806,1,-1,0,-1,-12,10,-2,-2
1511885808998806,-1,-2,-2,1,12,9,0,-1
1511885809000620,-1,1,-1,-1,-2,-2,4,1
1511885809000620,0,0,2,0,8,-1,-12,-1
1511885809011806,-1,-1,2,0,-2,-5,0,1
1511885809011806,-2,-1,-2,-10,10,1,-2,-3
1511885809021853,-2,-3,-5,0,-9,-6,-2,-1
1511885809021853,0,1,4,0,0,3,3,0
1511885809035870,0,-2,0,10,-2,-3,1,-2
1511885809035870,-1,1,-2,-2,-7,2,-1,0
1511885809037873,-3,-3,-1,0,1,-8,-1,-3
1511885809037873,-3,-3,0,-8,15,0,1,0
1511885809059105,1,0,1,-4,-18,-16,-5,0
1511885809059105,-2,-1,-1,2,-4,11,3,2
1511885809059965,2,-2,-4,3,-5,-8,0,-2
1511885809059965,-1,-1,3,0,5,5,1,1
1511885809072078,-3,0,3,-2,-9,-14,8,0
1511885809072078,-2,-1,0,-1,4,-6,-3,0
1511885809080987,-1,0,-1,-1,-1,5,-2,1
1511885809080987,2,1,-7,-1,-23,-4,-1,1
1511885809096203,0,-2,2,3,19,3,3,-2
1511885809096203,0,-2,-12,-9,22,6,2,0
1511885809098033,-1,-1,5,5,-25,-4,-4,-2
1511885809098033,2,0,2,10,19,12,5,0
1511885809126283,-2,3,-13,-7,2,-5,-7,-2
1511885809126283,0,-2,9,14,-29,-2,2,0
1511885809128143,-3,-2,-1,-5,69,0,-1,-1
1511885809128143,-1,-3,-2,-8,-10,-6,1,0
1511885809132271,-4,-2,2,3,7,9,-3,-3
1511885809132271,0,1,3,-5,-46,-9,-5,-2
1511885809141273,6,1,-4,0,-6,12,4,1
1511885809141273,-2,1,3,-4,-7,-2,3,-1
1511885809156341,1,2,-1,-2,13,8,-1,2
1511885809156341,0,1,13,-4,12,-2,-3,-2
1511885809157321,-4,-7,-16,0,-13,-15,-4,-3
1511885809157321,-4,-4,-13,-11,4,2,0,-3
1511885809178487,-4,2,17,4,-19,-11,-1,0
1511885809178487,1,-3,-8,-2,10,0,-1,0
1511885809180375,-3,3,0,8,-13,-2,0,-1
1511885809180375,1,-5,1,0,-6,11,-1,-1
1511885809192407,1,1,4,-5,-4,-10,0,-1
1511885809192407,2,5,8,3,13,3,-2,1
1511885809201431,-4,-6,-17,-4,-4,-2,-4,2
1511885809201431,-4,0,-4,-7,-12,-10,-2,-1
1511885809215472,-1,-3,8,7,10,11,3,0
1511885809215472,2,0,-6,2,-1,3,-3,-2
1511885809222491,0,2,19,-3,-50,-4,-1,0
1511885809222491,0,1,-8,4,14,5,3,3
1511885809238530,-1,-2,-10,-7,4,8,-3,0
1511885809238530,1,-1,2,1,-9,2,-1,0
1511885809240535,-1,-2,-3,-2,-16,2,-2,-2
1511885809240535,0,1,10,-2,-27,-12,-2,-1
1511885809260589,-2,-2,1,10,72,9,-6,-1
1511885809260589,-3,-2,-14,-14,-72,-14,7,-1
1511885809262594,-1,-1,8,7,27,7,-10,-2
1511885809262594,1,2,12,0,-16,20,2,0
1511885809275755,0,0,-2,3,66,8,-1,0
1511885809275755,-4,-2,-6,9,15,-15,4,-1
1511885809282651,0,-2,-6,-11,-25,10,4,-1
1511885809282651,0,1,4,-1,17,4,-3,-1
1511885809298808,-2,0,-5,7,-50,-9,-1,-2
1511885809298808,0,-4,5,-3,14,-8,1,-3
1511885809299809,-1,0,1,0,15,-21,1,-1
1511885809299809,-1,-1,-3,-2,-58,4,1,1
1511885809320837,1,-1,0,2,41,2,-1,1
1511885809320837,-1,-4,-11,-4,28,11,-1,0
1511885809322753,-7,-1,-2,0,-10,-5,9,-3
1511885809322753,0,1,1,1,14,-6,-4,0
1511885809335865,-2,0,3,-6,-41,-5,-3,-1
1511885809335865,3,1,0,4,7,9,-1,0
1511885809341872,-1,-2,-2,-3,19,4,4,1
1511885809341872,-3,-4,1,4,27,-6,-1,0
1511885809358913,0,1,-2,-7,-4,0,0,-1
1511885809358913,-3,-1,-4,-5,-24,-9,-3,-1
1511885809359880,2,0,4,2,11,0,3,1
1511885809359880,1,2,2,15,-25,-5,-13,-2
1511885809380912,0,2,0,-3,13,0,2,-1
1511885809380912,-2,-2,-5,-4,-8,-7,-1,-1
1511885809382928,0,-2,-4,-10,-27,-9,-1,0
1511885809382928,-1,-2,9,6,-13,-16,3,-3
1511885809395987,0,-4,-21,-10,-33,3,1,-1
1511885809395987,-1,3,15,7,43,10,-3,1
1511885809401987,2,0,2,1,11,4,-3,0
1511885809401987,0,-2,4,-5,29,3,3,-1
1511885809419013,-1,2,1,-3,-18,-3,-3,0
1511885809419013,1,-1,0,0,5,-2,1,0
1511885809420012,-6,-3,-1,0,-8,3,-4,-2
1511885809420012,3,-1,-6,-2,18,-5,1,0
1511885809441238,-2,-4,-1,-5,-34,-6,11,-2
1511885809441238,0,2,-5,-4,-28,-2,-18,0
1511885809443074,1,2,3,-4,-7,-1,-2,0
1511885809443074,-2,-1,-3,7,-21,9,-1,-1
1511885809455203,2,-3,2,1,5,-11,-2,-1
1511885809455203,-2,0,3,0,9,0,1,-1
1511885809462377,1,-1,-10,-3,4,4,6,0
1511885809462377,0,0,2,1,6,-3,-11,-1
1511885809478342,1,2,13,4,19,13,-2,1
1511885809478342,-3,-3,-15,-3,-42,-9,2,-1
1511885809480307,0,2,11,10,97,19,1,1
1511885809480307,0,1,-5,-6,29,0,5,0
1511885809501383,1,1,-2,4,-10,-2,1,1
1511885809501383,-1,0,9,-1,-8,-5,2,-1
1511885809502365,0,2,12,9,2,1,-1,0
1511885809502365,-2,-3,-18,-6,-14,-8,1,-1
1511885809514537,-2,-2,3,-5,-59,-16,-4,-2
1511885809514537,1,-1,3,3,25,9,0,-2
1511885809523586,-1,-2,-7,-5,-28,-14,-4,-2
1511885809523586,-2,-1,6,0,21,-4,1,-1
1511885809538577,0,0,-1,-4,-17,-6,-4,-2
1511885809538577,-2,-5,-16,-4,-12,-5,2,-1
1511885809540581,-1,1,-3,-9,-36,-20,-5,-1
1511885809540581,-1,0,0,4,22,8,-1,-2
1511885809561664,-1,-1,-2,5,28,-2,-3,-1
1511885809561664,-2,0,10,-4,-9,7,2,-2
1511885809562640,-2,-4,-12,-11,-3,1,-1,1
1511885809562640,-1,0,2,1,-36,-3,2,1
1511885809574788,0,0,-6,0,6,4,-3,-2
1511885809574788,-2,-1,0,5,41,1,-1,0
1511885809583696,-1,-1,-3,-5,-56,-9,-2,0
1511885809583696,-1,-3,-2,-10,3,4,3,0
1511885809598827,-2,-1,4,4,20,8,0,0
1511885809598827,-1,1,1,2,6,7,1,-1
1511885809599741,-1,-1,-7,-1,-30,-7,-1,-2
1511885809599741,-2,-5,-7,-7,-31,-30,-4,-2
1511885809620796,3,3,7,4,-9,-1,1,1
1511885809620796,2,-1,6,4,-1,2,0,-1
1511885809622798,-1,-2,-8,-2,15,11,-2,-2
1511885809622798,0,0,2,12,2,6,-1,-1
1511885809634833,-3,-3,-10,-21,-31,-13,-2,-3
1511885809634833,0,0,3,12,38,7,1,1
1511885809643854,3,0,14,11,44,7,0,-2
1511885809643854,1,4,4,-6,-40,-1,0,2
1511885809659093,-1,-1,11,-5,23,9,1,-1
1511885809659093,-3,-7,-39,1,6,-9,-3,-2
1511885809659942,-2,0,3,1,-8,6,-2,1
1511885809659942,-4,0,-5,-9,-15,-25,-5,0
1511885809681033,0,1,5,4,31,16,2,2
1511885809681033,2,2,7,-3,-28,-7,0,0
1511885809683037,0,-2,-6,2,19,7,1,0
1511885809683037,0,-1,-1,-2,0,3,1,-2
1511885809695067,-3,-4,-9,5,-7,-6,-1,-1
1511885809695067,-2,0,0,0,39,10,-1,1
1511885809704173,0,-1,4,2,23,1,0,0
1511885809704173,3,1,-1,-3,24,15,1,2
1511885809718149,0,1,9,5,-8,-8,-1,-1
1511885809718149,-2,-1,1,9,-10,-5,0,-2
1511885809725132,-1,0,10,-19,-17,0,-1,0
1511885809725132,-2,-5,-15,3,11,9,0,1
1511885809741115,-2,-1,-3,5,32,5,2,1
1511885809741115,-1,-1,8,-6,-5,17,3,1
1511885809743122,-1,1,4,-1,-2,-1,-1,0
1511885809743122,0,0,-7,18,104,12,-1,-2
1511885809755172,0,-1,-3,-13,-63,-15,-3,-1
1511885809755172,3,3,10,-4,-10,0,-1,2
1511885809764178,1,3,25,2,38,10,0,-1
1511885809764178,-2,-7,-35,-2,22,3,0,-1
1511885809778390,-3,-2,-12,-12,-12,3,-1,0
1511885809778390,-2,-2,-8,2,5,-7,0,-1
1511885809780217,1,2,1,-4,-11,6,3,1
1511885809780217,-1,-2,22,0,-20,-12,-2,-2
1511885809801272,0,2,5,2,22,-1,0,0
1511885809801272,-3,-4,-5,-7,-8,9,1,-1
1511885809802279,-3,1,-1,12,-33,-5,-1,-1
1511885809802279,0,1,4,-9,-39,0,-1,0
1511885809814415,0,-3,-9,3,-5,-6,-2,-1
1511885809814415,0,1,-5,-1,-31,-11,-2,-1
1511885809823332,-3,-3,-2,-3,17,-14,-3,-2
1511885809823332,1,1,-1,-4,2,5,2,-1
1511885809838490,1,-3,-5,-6,-13,1,-2,-1
1511885809838490,-1,-1,-1,11,-31,-7,-2,-2
1511885809840379,-1,-1,-3,1,-7,-4,-2,-2
1511885809840379,-1,0,9,-9,-17,0,1,-1
1511885809861626,1,0,4,3,-33,-9,-1,-1
1511885809861626,0,1,11,-7,9,11,2,-1
1511885809862436,0,-9,-24,8,-14,-6,-4,-2
1511885809862436,0,6,21,2,16,2,-1,1
1511885809874468,-2,-4,-34,-7,9,1,-2,0
1511885809874468,-2,0,16,-8,-61,-19,-2,0
1511885809883492,0,-2,4,-2,51,3,0,0
1511885809883492,-2,1,8,-12,-29,-8,-3,-3
1511885809898719,1,3,13,23,43,16,3,1
1511885809898719,0,1,0,-4,8,-4,0,0
1511885809900538,0,-4,-5,-3,-21,3,1,-2
1511885809900538,0,-2,-8,-1,10,0,2,0
1511885809920643,-2,-1,2,-7,-2,-10,-4,-3
1511885809920643,0,-5,-14,-1,53,1,-3,-2
1511885809922648,-1,-2,-23,-7,-8,10,5,1
1511885809922648,0,-1,12,3,-43,-15,-6,-4
1511885809934683,0,-2,1,1,-13,1,-3,0
1511885809934683,1,3,4,-1,33,-2,-2,0
1511885809943834,0,0,5,9,-3,-6,-1,-1
1511885809943834,-1,-8,-37,-26,7,8,4,-1
1511885809957980,-1,2,8,16,-16,-5,1,0
1511885809957980,-2,-2,6,-4,-3,-4,-1,-2
1511885809964888,1,1,4,-4,-4,-4,-2,2
1511885809964888,0,-1,3,4,11,1,-2,-1
1511885809980931,-1,-2,-1,-3,0,-3,0,-1
1511885809980931,-2,1,17,-6,32,9,2,0
1511885809982939,0,11,7,8,-28,0,1,0
1511885809982939,-6,-14,-53,-7,11,-15,-2,-2
1511885810003992,0,0,10,-5,-19,18,2,-1
1511885810003992,2,0,2,2,-4,-5,0,-1
1511885810004994,-1,1,6,-20,-10,-1,-1,-2
1511885810004994,1,8,30,41,54,10,3,1
1511885810018032,0,0,-2,-1,-35,-2,-1,-2
1511885810018032,1,-6,-13,2,2,-3,1,1
1511885810025051,-1,-4,-6,-10,-6,-4,1,-1
1511885810025051,-1,-4,-8,-21,-6,10,1,1
1511885810041255,-2,-7,-35,-3,10,-13,0,-1
1511885810041255,1,6,27,18,-1,5,-2,0
1511885810043096,0,0,-6,-8,-5,-1,-1,0
1511885810043096,0,0,14,9,52,3,1,0
1511885810055159,-2,-2,6,-5,4,-1,-1,-1
1511885810055159,-2,-4,-35,-14,-14,-5,-2,-1
1511885810064153,-2,-2,1,12,3,-10,-1,-2
1511885810064153,1,5,10,0,-19,16,-1,0
1511885810079198,-1,1,8,1,34,10,1,2
1511885810079198,-2,-2,0,0,5,0,-2,-2
1511885810080197,-3,1,-12,3,10,-2,-1,-1
1511885810080197,1,4,17,3,-66,0,-2,1
1511885810101255,0,-7,-36,-11,13,-11,-3,0
1511885810101255,1,-2,9,-12,-26,-12,2,-1
1511885810102254,2,1,-1,17,-11,16,0,1
1511885810102254,0,-2,7,0,5,-5,0,-2
1511885810114286,0,-2,-28,-27,-18,-8,-1,0
1511885810114286,2,-1,-2,8,36,-4,-1,-1
1511885810123309,-1,0,6,10,-1,-9,-1,-2
1511885810123309,0,-1,-7,-8,50,9,0,-1
1511885810138352,0,-1,20,15,0,-14,-4,-2
1511885810138352,-3,-5,-24,-41,16,-1,-3,0
1511885810144421,1,0,-3,28,-10,-6,2,0
1511885810144421,-1,5,14,8,-8,-3,0,1
1511885810161414,-5,-6,8,-7,-17,-1,-1,-1
1511885810161414,0,1,-19,-1,5,12,1,1
1511885810162413,-3,-5,8,-7,-9,-21,-3,-1
1511885810162413,-1,-3,-15,-8,-27,-3,-3,-1
1511885810174604,1,7,20,11,7,9,0,1
1511885810174604,-1,-1,7,7,-21,-13,-2,-2
1511885810183469,-2,-2,-7,-13,-11,3,-1,-2
1511885810183469,1,0,4,1,-18,-11,-2,-2
1511885810197509,2,-1,-9,-5,18,14,0,0
1511885810197509,1,2,15,14,-6,2,0,1
1511885810204529,2,-1,-23,-12,12,3,3,0
1511885810204529,-1,2,5,-4,-32,-4,-2,-1
1511885810220816,-1,1,12,20,35,2,0,-1
1511885810220816,-3,-4,-14,-3,-17,2,-1,0
1511885810222819,-1,-2,4,-3,-4,8,0,-1
1511885810222819,0,0,-2,-10,-24,-7,-3,-1
1511885810244053,-2,1,2,-6,-38,-5,-1,0
1511885810244053,-2,1,11,12,0,-4,-4,-2
1511885810244948,-2,-2,2,-6,24,17,0,-1
1511885810244948,0,2,5,3,7,4,2,-1
1511885810258091,0,-3,-11,0,4,-4,1,0
1511885810258091,0,-1,-1,-3,-5,3,0,-1
1511885810264932,-1,-2,2,-3,-5,-8,0,-2
1511885810264932,-2,2,-12,-5,-7,-11,-1,1
1511885810282026,0,-3,-2,3,4,14,-1,1
1511885810282026,0,-2,-5,2,-4,-7,1,1
1511885810283028,-1,2,2,-2,0,-1,-3,0
1511885810283028,-2,-2,4,2,2,-4,1,-1
1511885810304085,-2,2,9,-5,1,-5,-2,-1
1511885810304085,-2,0,0,0,-2,5,0,-2
1511885810305095,-2,-5,-5,-6,1,-2,-1,1
1511885810305095,1,-2,-6,-1,-3,-2,-2,0
1511885810318127,1,1,0,0,-3,-7,-2,-2
1511885810318127,0,1,7,4,-2,8,3,0
1511885810325143,1,-2,1,-4,-6,-8,1,0
1511885810325143,0,-2,0,5,7,6,0,-1
1511885810340260,0,2,-6,0,6,11,3,2
1511885810340260,-1,1,7,-7,-5,-13,-6,-1
1511885810341192,-1,-3,-14,2,-1,-12,-2,-3
1511885810341192,-4,-4,5,4,8,5,1,-3
1511885810363286,1,1,-1,1,-3,-9,-1,-1
1511885810363286,-1,-2,-8,-7,2,4,-1,-2
1511885810363286,0,0,4,0,3,6,-1,0
1511885810363286,0,-1,1,1,-7,-3,-2,-1
1511885810377282,-2,0,9,2,-1,-5,1,-1
1511885810377282,-1,-2,-12,-2,-3,-1,0,0
1511885810385303,0,1,2,1,1,2,-1,-1
1511885810385303,-1,-2,-3,-4,-6,-5,-2,-2
1511885810400340,0,2,8,-2,-1,-1,0,-1
1511885810400340,0,0,-2,0,-3,-2,-1,0
1511885810401343,-2,-1,3,0,-3,2,-2,-4
1511885810401343,0,1,-1,2,2,1,2,0
1511885810423402,-1,0,-5,-4,-3,-5,-3,-1
1511885810423402,0,0,0,2,-2,-3,-2,-1
1511885810423402,-1,-1,3,-1,1,1,-1,1
1511885810423402,1,0,-3,-2,-1,1,0,0
1511885810437443,0,-2,0,-2,-3,-3,1,-1
1511885810437443,0,-1,0,1,-2,-5,-1,-2
1511885810445602,1,2,4,-1,0,4,-3,1
1511885810445602,-2,0,-6,-2,-2,-2,-2,0
1511885810460506,-2,-1,2,-3,-2,-1,0,-1
1511885810460506,0,-2,0,1,-2,-1,0,-1
1511885810461540,-1,1,-1,0,1,-1,0,1
1511885810461540,-1,-1,-2,-3,1,-1,1,0
1511885810482562,0,-1,1,-1,-3,-3,-3,-1
1511885810482562,0,-1,1,0,1,1,-1,0
1511885810483562,0,0,-2,-3,-2,0,0,0
1511885810483562,-2,0,-3,2,2,-1,-2,-2
1511885810497602,-3,-1,0,-1,1,-3,3,-1
1511885810497602,-2,0,-2,2,3,0,0,0
1511885810505623,1,1,1,4,4,-2,-1,-1
1511885810505623,-2,-1,0,-7,-8,0,0,-1
1511885810520822,0,0,-1,-2,-1,1,0,1
1511885810520822,-3,-3,0,0,-1,-1,0,-1
1511885810521687,-2,-1,-2,-13,-4,-1,-2,-1
1511885810521687,-1,-2,0,15,3,1,0,-1
1511885810543752,-1,-1,-2,2,-1,0,-2,-2
1511885810543752,2,-2,0,-10,-1,-6,-3,1
1511885810544724,-1,0,-2,-6,-7,-4,2,1
1511885810544724,2,-1,-4,0,7,-3,9,-1
1511885810565780,1,-1,-2,-13,-7,0,-12,-2
1511885810565780,0,1,4,28,17,1,-3,0
1511885810566783,1,-2,-3,-69,-24,-2,2,-3
1511885810566783,-1,-2,-1,79,24,2,0,0
1511885810580820,0,2,0,-47,-2,-16,6,1
1511885810580820,-1,1,-1,-17,-13,-6,0,-1
1511885810580820,0,-1,2,5,2,-9,2,0
1511885810580820,-2,0,-3,-20,-19,-12,-8,0
1511885810602882,-4,-3,1,-4,8,-6,0,-1
1511885810602882,1,2,4,15,19,-9,2,0
1511885810603887,0,0,2,48,10,-13,1,-1
1511885810603887,2,4,0,-52,5,-16,12,-1
1511885810625943,0,2,0,2,-5,-21,-13,6
1511885810625943,1,2,0,-32,-17,-28,9,-2
1511885810626942,-1,2,-2,13,-2,-59,9,2
1511885810626942,-1,6,2,14,2,-64,-9,5
1511885810640091,-1,3,2,7,2,-25,18,3
1511885810640091,2,-8,-6,-6,-17,97,-28,-4
1511885810640980,2,-9,1,12,9,67,-18,-5
1511885810640980,-2,8,-2,-20,-12,-85,12,-2
1511885810663038,-1,24,8,4,2,-122,52,9
1511885810663038,2,17,8,22,8,-20,49,13
1511885810664045,1,8,4,4,12,12,16,10
1511885810664045,2,-31,-10,-17,-1,127,-54,-8
1511885810686104,-3,-44,-17,14,-10,127,-94,-25
1511885810686104,-2,-26,-14,-11,-16,42,-62,-20
1511885810687206,-17,-17,-11,-11,-10,-21,-37,-16
1511885810687206,27,2,-1,-5,-9,-12,-3,-2
1511885810700154,21,9,4,7,-3,-70,9,-11
1511885810700154,-69,0,-1,-2,5,-113,22,-3
1511885810701140,19,14,6,-4,0,-120,20,9
1511885810701140,-38,12,6,11,5,-103,30,9
1511885810723201,12,5,1,7,3,7,18,4
1511885810723201,16,3,2,-5,0,10,6,2
1511885810723201,1,-2,-1,5,4,40,6,-2
1511885810723201,2,-3,-2,-7,-5,40,2,-1
1511885810746287,-7,-4,1,3,1,9,4,0
1511885810746287,3,4,1,1,0,-31,0,1
1511885810747267,-7,1,0,0,0,-14,3,2
1511885810747267,10,-2,1,-1,-5,37,-7,-3
1511885810760302,-11,-2,-3,-2,-4,51,0,0
1511885810760302,15,-2,-2,5,0,0,-16,1
1511885810761325,4,-1,0,-2,-3,-10,-3,-3
1511885810761325,-5,2,0,-4,-3,-30,5,0
1511885810782357,-5,3,0,6,4,-38,6,4
1511885810782357,6,2,0,-1,-2,-22,4,2
1511885810783359,-2,0,0,-1,2,6,-3,-1
1511885810783359,-3,0,2,2,2,-10,5,0
1511885810805461,-4,0,-1,1,0,-24,0,1
1511885810805461,8,1,1,2,1,-3,1,-3
1511885810806421,-10,-1,-3,0,1,0,2,-3
1511885810806421,13,0,-1,2,5,12,9,8
1511885810820500,1,0,1,0,-1,-7,-1,-1
1511885810820500,1,-1,-1,-3,0,0,1,-6
1511885810821489,3,1,1,1,0,4,4,12
1511885810821489,-6,-1,-1,1,-1,4,-6,-4
1511885810842520,1,-1,-1,1,-2,4,1,3
1511885810842520,1,-1,-1,0,-1,-10,2,-2
1511885810843519,-2,-2,-1,3,-1,-3,-5,-6
1511885810843519,1,-1,-2,-1,-1,4,-10,-3
1511885810865580,-6,-1,-1,0,1,5,6,1
1511885810865580,1,0,-2,-3,-2,-5,5,-1
1511885810866580,3,0,0,4,0,3,-1,-2
1511885810866580,-2,-1,0,-2,-1,0,-5,-1
1511885810880620,-4,-1,-3,1,0,-5,-4,-5
1511885810880620,1,0,-1,-1,1,3,2,1
1511885810881623,-1,-1,0,-2,-4,-7,-6,-1
1511885810881623,-4,-2,-2,-2,-2,-2,3,-2
1511885810902679,-1,0,1,1,3,4,2,1
1511885810902679,3,1,0,2,-1,-3,-1,1
1511885810903678,0,-1,-1,-3,0,6,-4,-2
1511885810903678,-2,0,1,-1,-2,-3,1,-3
1511885810925737,3,-3,-1,-1,-1,5,-1,0
1511885810925737,0,-1,-3,1,0,-3,1,0
1511885810925737,-3,-2,-3,-1,1,0,0,-1
1511885810925737,-2,-1,0,-3,-3,-12,-4,-2
1511885810940795,-3,0,-1,-1,1,-3,-2,0
1511885810940795,0,-1,0,0,0,11,-1,1
1511885810940795,-3,-1,0,0,0,7,-4,-1
1511885810940795,1,-1,0,2,3,6,12,1
1511885810963058,1,-1,-1,-1,-1,-10,-5,-1
1511885810963058,1,-3,-2,-1,0,-15,-3,-2
1511885810963960,0,0,-2,-1,0,4,2,-1
1511885810963960,1,0,1,-2,-2,-3,-4,1
1511885810985019,-1,0,1,2,2,-8,2,0
1511885810985019,-1,-1,2,0,3,1,3,-1
1511885810986018,-2,0,-1,-3,-2,-5,1,-2
1511885810986018,0,-2,-4,0,-2,-12,0,-2
1511885811000056,-1,1,-1,1,-2,-10,2,0
1511885811000056,0,0,-1,-1,0,-11,1,0
1511885811001058,2,1,-2,0,1,-13,3,1
1511885811001058,-4,0,1,0,-1,-15,1,1
1511885811023208,-1,1,-1,-3,-2,-16,3,-1
1511885811023208,1,1,1,1,1,0,3,0
1511885811024158,0,-9,-2,-2,-3,110,-15,-3
1511885811024158,-3,-12,-6,-4,-2,118,-26,-6
1511885811045198,0,-11,-4,-4,-4,73,-22,-6
1511885811045198,-3,-3,-1,-3,-3,-7,-8,-2
1511885811046184,-2,3,1,-2,-2,-59,6,-2
1511885811046184,1,4,0,2,1,-27,2,0
1511885811060221,-2,-1,-1,0,-3,-25,2,-1
1511885811060221,0,2,1,-1,-2,-16,5,0
1511885811061220,0,1,1,0,-1,-34,6,-1
1511885811061220,-1,2,1,-2,2,-32,7,0
1511885811083314,-2,2,2,-1,-2,-19,6,0
1511885811083314,1,-1,-2,-2,-1,-4,2,1
1511885811083314,1,0,0,-2,-1,0,-1,-1
1511885811083314,-3,0,-1,0,1,-11,2,1
1511885811105379,0,1,-1,-1,0,-1,1,1
1511885811105379,-1,-2,0,-3,0,10,-4,-1
1511885811106363,0,-2,-2,-1,-2,5,-1,0
1511885811106363,0,-1,0,-1,-3,-9,1,0
1511885811120379,0,1,-1,-2,-1,-5,-1,1
1511885811120379,1,-1,-1,1,2,4,-1,0
1511885811121382,-1,0,1,1,0,-8,0,-2
1511885811121382,0,1,1,-2,-2,-13,1,1
1511885811143442,0,0,-1,-1,0,-4,3,-1
1511885811143442,0,-1,1,-1,0,5,1,1
1511885811143442,-1,0,-3,-1,1,5,-3,-1
1511885811143442,-2,-1,-2,0,-3,8,-2,-1
1511885811165501,-1,-3,-1,-1,1,13,-3,1
1511885811165501,-1,-4,-3,-3,-2,27,-5,-1
1511885811166500,-2,-2,0,-1,-4,18,-3,-2
1511885811166500,0,-1,-2,-1,-2,4,-3,-1
1511885811180631,1,-1,-1,0,0,-8,0,-3
1511885811180631,1,1,2,0,0,-14,2,1
1511885811181634,-2,1,4,1,0,-15,2,-1
1511885811181634,5,0,-5,-2,-1,-10,0,0
1511885811202893,-4,3,3,-2,0,-5,2,-2
1511885811202893,5,2,-7,2,0,-5,-2,-2
1511885811203783,-8,-12,-2,-2,-2,-7,2,-1
1511885811203783,-10,-5,0,-2,0,-11,1,-4
1511885811225844,0,-3,-5,0,-1,-8,0,-2
1511885811225844,0,-1,-5,-3,-1,-2,2,-2
1511885811225844,6,9,8,-4,0,-5,-2,0
1511885811225844,3,4,4,4,0,0,-1,2
1511885811240121,0,-1,-8,1,-2,-11,-2,1
1511885811240121,-2,3,13,-2,0,30,3,0
1511885811241006,3,4,-40,7,4,-7,-2,1
1511885811241006,-2,-5,1,-4,0,3,-1,-1
1511885811263211,-4,-9,8,-5,0,5,3,-1
1511885811263211,-2,2,-2,2,0,5,0,-1
1511885811263211,1,-1,18,-5,-2,-4,-1,-2
1511885811263211,2,6,1,4,1,-6,-3,-3
1511885811285254,20,26,1,3,3,8,-3,4
1511885811285254,-30,-55,-10,-4,-3,-21,-4,-6
1511885811286253,-12,-10,-4,-5,5,17,-5,-6
1511885811286253,5,-5,-27,-10,-5,-11,5,1
1511885811300294,0,4,9,2,0,9,-4,-2
1511885811300294,13,30,33,4,-4,-7,2,3
1511885811301297,0,4,7,7,0,8,-3,-1
1511885811301297,-5,-10,-35,-10,1,-7,0,-3
1511885811323439,5,23,18,9,4,1,0,4
1511885811323439,3,-10,-1,3,2,13,-6,2
1511885811323439,-15,-14,-11,-17,-1,-22,-2,-6
1511885811323439,0,-9,-21,10,4,16,-3,-3
1511885811345520,-2,3,31,-4,-1,2,0,-1
1511885811345520,15,44,1,5,-1,7,2,5
1511885811346414,-7,-47,13,9,6,-4,1,2
1511885811346414,-12,-11,1,-8,24,0,-5,-6
1511885811360453,-12,-14,-9,5,-2,-17,-4,-8
1511885811360453,4,16,12,-10,-16,-20,-3,-2
1511885811361457,15,30,-2,0,-1,9,6,8
1511885811361457,4,6,6,6,1,-5,4,3
1511885811382636,-8,-9,-9,-19,-28,1,1,1
1511885811382636,-2,-11,-18,11,45,1,-2,-3
1511885811383634,-6,-8,-11,-14,-17,-23,-3,-7
1511885811383634,4,-1,49,17,-13,-16,0,-1
1511885811405813,9,23,-49,-4,8,11,5,7
1511885811405813,-7,-20,-6,-11,-16,-2,-1,-1
1511885811406713,-9,-14,-6,-5,-13,3,-2,-4
1511885811406713,-3,13,25,-1,6,-15,-4,-3
1511885811420737,0,-14,-10,-16,-2,0,2,-2
1511885811420737,4,5,-8,19,-5,-4,0,2
1511885811420737,6,23,17,9,10,8,3,2
1511885811420737,2,6,12,-3,-8,-2,1,3
1511885811442817,-2,-14,-8,3,8,-1,0,1
1511885811442817,-12,-15,-14,-13,-6,-4,0,-5
1511885811443795,1,2,-2,10,2,-7,0,0
1511885811443795,0,9,-3,-5,-7,-2,-1,1
1511885811465878,-2,-7,-8,-3,-2,2,-2,-1
1511885811465878,5,5,8,-1,6,0,-2,0
1511885811465878,0,-2,-3,2,6,10,-8,-4
1511885811465878,4,-11,-11,-9,-28,29,3,1
1511885811479894,-9,-8,18,7,-22,21,-6,-5
1511885811479894,-2,0,7,12,35,29,-4,-2
1511885811480893,5,12,-14,-7,5,-1,-8,0
1511885811480893,2,1,0,-4,-7,-16,7,-2
1511885811502956,1,-4,9,2,7,6,-1,0
1511885811502956,-7,2,4,0,-31,-14,1,-2
1511885811504111,3,-2,-3,-5,-7,-9,-3,2
1511885811504111,-1,-3,-15,-11,6,-1,-1,-1
1511885811526013,-2,2,13,9,10,-7,3,0
1511885811526013,-1,-5,0,-11,-13,-13,0,-1
1511885811526013,-1,-4,-33,5,7,7,5,2
1511885811526013,-2,4,19,5,-1,-2,-4,2
1511885811540157,0,2,-9,2,-3,-7,0,0
1511885811540157,0,-5,2,-6,-3,3,-1,-4
1511885811541159,-1,2,14,-2,-3,-14,6,-1
1511885811541159,-1,7,2,5,6,1,-1,1
1511885811563220,-2,-4,-13,-8,1,-13,-2,-1
1511885811563220,2,-1,-5,0,5,-2,0,-1
1511885811563220,-2,-4,-2,-3,-4,7,3,-2
1511885811563220,-1,1,-2,0,12,5,3,-1
1511885811585276,0,-3,10,5,-11,-10,-3,0
1511885811585276,2,0,-10,-5,6,-6,-3,2
1511885811586399,1,7,15,4,-21,-2,10,0
1511885811586399,-2,-3,1,1,6,13,2,-1
1511885811600322,0,-1,2,-3,8,-12,-2,-3
1511885811600322,-2,2,-10,0,-12,-1,-1,0
1511885811601320,1,-1,3,-1,2,2,-4,0
1511885811601320,-2,-2,4,-1,-3,-3,-2,0
1511885811622417,-3,2,10,9,2,1,2,-1
1511885811622417,-2,-3,-13,-13,-2,-1,-2,-1
1511885811623381,3,1,13,11,5,1,-1,-1
1511885811623381,0,0,-3,2,-6,-7,-4,0
1511885811645436,2,-1,-4,-3,4,5,-4,-1
1511885811645436,1,-1,1,3,1,-8,-2,-1
1511885811646443,-1,2,11,-7,3,18,6,2
1511885811646443,-2,-7,-30,-10,-1,-8,-2,-1
1511885811660479,0,-2,5,8,6,-4,-5,-1
1511885811660479,-3,-4,-10,-4,-4,-6,-2,-1
1511885811661482,1,1,1,-10,1,4,3,0
1511885811661482,-1,1,9,16,3,1,-3,0
1511885811683541,-2,-4,-6,-5,-1,-1,1,-3
1511885811683541,1,2,5,1,-6,-12,-2,0
1511885811684541,0,0,1,0,-3,3,-6,-2
1511885811684541,-1,0,0,-2,-1,6,1,0
1511885811705628,-1,1,-7,-4,5,-8,-1,-1
1511885811705628,-1,1,4,4,6,-1,3,-1
1511885811706665,0,-1,-4,-2,-5,0,-3,0
1511885811706665,0,-1,0,5,-1,-1,-2,-2
1511885811719705,-2,-3,-3,-1,-3,2,1,2
1511885811719705,-1,0,6,1,0,6,0,0
1511885811727757,-1,-1,-6,-4,4,3,1,-2
1511885811727757,-1,-1,1,-5,1,0,-1,-2
1511885811742795,1,0,-3,-1,-2,-1,0,-2
1511885811742795,-2,-1,0,4,-2,1,-2,-2
1511885811743801,-1,-2,-2,0,-2,-4,-5,1
1511885811743801,-1,-1,0,-2,-4,6,2,-1
1511885811765864,1,-2,-3,-3,-3,12,3,2
1511885811765864,0,0,-2,-2,5,5,3,0
1511885811765864,0,0,3,6,-5,-11,-1,-1
1511885811765864,-1,0,-3,1,1,-11,-3,0
1511885811780007,0,0,0,-4,-1,-7,-1,-2
1511885811780007,-1,1,-1,3,1,5,0,1
1511885811788032,-2,-1,-2,-7,2,-7,-1,0
1511885811788032,0,-1,2,4,0,-2,0,0
1511885811803071,-2,-1,-5,-2,3,-2,0,-2
1511885811803071,0,-2,0,-10,-16,0,1,-2
1511885811804192,0,0,7,21,2,-4,-4,-1
1511885811804192,-2,3,5,-20,2,9,2,-2
1511885811825250,0,-2,-12,11,7,1,-2,2
1511885811825250,1,1,3,0,-7,-19,-2,0
1511885811826253,-1,-1,-5,-6,-1,6,0,-1
1511885811826253,1,-3,4,2,-4,-9,1,0
1511885811839288,-1,0,3,-2,-4,-10,-9,-1
1511885811839288,0,0,-4,-5,3,15,1,1
1511885811848317,-2,3,1,1,-7,-14,-2,0
1511885811848317,0,0,-1,4,13,19,1,1
1511885811863353,-3,-3,-1,-9,-43,-32,6,-5
1511885811863353,1,-2,0,4,11,-4,-23,2
1511885811863353,1,2,0,-3,-17,4,0,-1
1511885811863353,-3,-1,-5,2,11,1,0,1
1511885811885464,-2,-2,-4,-1,1,14,2,0
1511885811885464,0,0,4,3,40,6,5,1
1511885811886474,-1,-2,-2,0,11,4,10,0
1511885811886474,0,-2,-4,-4,-24,-27,-19,-3
1511885811899486,1,-2,2,1,8,8,0,-2
1511885811899486,-7,1,0,0,-14,1,-12,4
1511885811907504,7,-1,-3,-5,4,-3,30,-10
1511885811907504,0,-5,-6,-6,4,8,17,-1
1511885811922547,1,3,9,18,12,16,-21,2
1511885811922547,0,-3,-3,0,-15,-5,0,-2
